time,time,flux,flux_err
-0.49983600917403237,-0.49983600917403237,0.9999656349757587,7.648574465329098e-05
-0.4992804273169895,-0.4992804273169895,0.999945591446291,7.00160469206737e-05
-0.49890255500140485,-0.49890255500140485,0.9999835779526848,6.998646932342315e-05
-0.49870268383965594,-0.49870268383965594,0.9999800136571112,7.054474089902282e-05
-0.4981670779066917,-0.4981670779066917,1.0001317249634298,7.024764063363683e-05
-0.49776871543726886,-0.49776871543726886,0.9998634501749833,7.085695651186654e-05
-0.4975638498028275,-0.4975638498028275,1.0000327161884788,6.989102244110487e-05
-0.4973598624346778,-0.4973598624346778,1.0001305635894158,6.978623812962547e-05
-0.497124774963595,-0.497124774963595,0.9999607951051879,7.031781538672378e-05
-0.4967729148826038,-0.4967729148826038,0.9999118345800756,7.077873669816271e-05
-0.49624962268717354,-0.49624962268717354,1.000046186889109,6.989210771735476e-05
-0.4959254050765594,-0.4959254050765594,0.9999854004656321,7.021635146725941e-05
-0.4957412743620807,-0.4957412743620807,0.9999411985036474,7.08556705312446e-05
-0.4954284571591415,-0.4954284571591415,0.9998924820182605,6.886049017255555e-05
-0.49528318892407697,-0.49528318892407697,1.000012394963865,7.076758743086538e-05
-0.49511603747087063,-0.49511603747087063,0.9999884315134825,6.947948326843149e-05
-0.4948910582141252,-0.4948910582141252,0.9999917093394288,7.087128701618653e-05
-0.49472174461261603,-0.49472174461261603,1.0002090317664476,7.088840359996182e-05
-0.4945226956704573,-0.4945226956704573,0.9998537544754915,6.943022316035038e-05
-0.49408928516349987,-0.49408928516349987,0.9998951866031897,7.021042720129469e-05
-0.4934323923633201,-0.4934323923633201,1.0001552049786855,7.037033040507517e-05
-0.4931111201047315,-0.4931111201047315,0.9999719512683651,6.995482895728266e-05
-0.4928699318152212,-0.4928699318152212,0.9999578685463482,7.088799215022907e-05
-0.4924343237493304,-0.4924343237493304,1.000111131795545,7.017940133973028e-05
-0.4921709244445083,-0.4921709244445083,0.999812824173449,7.03633968789235e-05
-0.4918986147735268,-0.4918986147735268,0.9999920186378148,7.008187858620866e-05
-0.4916523185383994,-0.4916523185383994,1.0001040055865968,7.035508950245418e-05
-0.4913352174386091,-0.4913352174386091,0.9999733366444346,7.039178018455917e-05
-0.4909496949403547,-0.4909496949403547,0.9998178673169974,7.000608912060252e-05
-0.49064681714080505,-0.49064681714080505,1.0000134341689202,6.951355326923797e-05
-0.490454363552999,-0.490454363552999,1.0000301217675758,7.021722794332869e-05
-0.49031224375867166,-0.49031224375867166,1.0001053215793305,6.976255473407248e-05
-0.4901761528599309,-0.4901761528599309,0.9999977236454576,6.950320974651368e-05
-0.48991574960018625,-0.48991574960018625,1.0000076534521696,6.966677933289708e-05
-0.4897202345993719,-0.4897202345993719,0.999898473220871,7.030466260430298e-05
-0.4893272515386343,-0.4893272515386343,1.0000752922587846,7.120425971219301e-05
-0.4889380093925865,-0.4889380093925865,1.0000182476550172,6.952586991110826e-05
-0.4888171543447243,-0.4888171543447243,1.000061285574755,6.972998132991603e-05
-0.48852567933136015,-0.48852567933136015,1.0000414655889815,7.07737796245314e-05
-0.48808691248996183,-0.48808691248996183,1.00012323868003,7.027474134961161e-05
-0.4877511220292945,-0.4877511220292945,1.0000259444034831,6.937765907854445e-05
-0.48740489846240964,-0.48740489846240964,1.0000629709231326,7.079543646470848e-05
-0.4871562015679956,-0.4871562015679956,1.000141168621548,6.882547621551906e-05
-0.48687689023281566,-0.48687689023281566,1.0000920920314367,7.049290058760867e-05
-0.48652749685497837,-0.48652749685497837,0.999963360373021,7.087666245425914e-05
-0.4862864278598863,-0.4862864278598863,0.9999963860050352,6.977219709227152e-05
-0.48609280673699684,-0.48609280673699684,0.9998657783329298,6.927866882313073e-05
-0.4859441802786023,-0.4859441802786023,0.9999900757086942,7.053393306339223e-05
-0.48566465101757783,-0.48566465101757783,1.0000119339633304,6.92829108773619e-05
-0.4851973084114434,-0.4851973084114434,0.999911794039777,6.950694003759474e-05
-0.4847971121700539,-0.4847971121700539,1.0000971310505962,7.01759258401203e-05
-0.4845557941036532,-0.4845557941036532,0.9998548422815338,7.061728874882076e-05
-0.48409820630331524,-0.48409820630331524,0.9999248761257176,7.035247484097734e-05
-0.48368853383362875,-0.48368853383362875,0.9999226672225685,7.078321968824716e-05
-0.48349131724535255,-0.48349131724535255,1.000059430774297,7.091351067190918e-05
-0.4831579123339907,-0.4831579123339907,1.000036215926778,6.93406029859149e-05
-0.4826993450333248,-0.4826993450333248,1.0000002994766173,7.028434280921039e-05
-0.4822685903272941,-0.4822685903272941,0.9999600342981374,7.022954270993848e-05
-0.4818746003787965,-0.4818746003787965,0.9999212549722948,6.980536852634373e-05
-0.48170114303575245,-0.48170114303575245,1.0000988601671963,6.989838812802732e-05
-0.48142447955542594,-0.48142447955542594,0.9998801576250205,6.924277770144903e-05
-0.48121296617973713,-0.48121296617973713,0.9999566150100219,7.023287192049242e-05
-0.48095437545853204,-0.48095437545853204,0.9999263018497839,7.04506079536344e-05
-0.4807228999750805,-0.4807228999750805,1.0001087305184586,7.095920585128572e-05
-0.48059927206122666,-0.48059927206122666,0.9999425728571654,6.953841814869045e-05
-0.4804190528593608,-0.4804190528593608,0.9999838639180358,6.996962927364892e-05
-0.47999916085900624,-0.47999916085900624,1.0001679431536856,6.99229534223096e-05
-0.47933870083943475,-0.47933870083943475,1.0000685874450863,7.01452850950449e-05
-0.47920366000689685,-0.47920366000689685,0.9999681611363809,7.044572468872408e-05
-0.47892854063393314,-0.47892854063393314,0.9998553711618348,6.960317293358094e-05
-0.47871215264531203,-0.47871215264531203,0.9998368482434534,7.068567004664908e-05
-0.47828207935817774,-0.47828207935817774,1.0000658455126583,6.989430543694706e-05
-0.4779499461801606,-0.4779499461801606,0.9999955897432287,7.074245525343291e-05
-0.4777589374469244,-0.4777589374469244,0.9999542689229269,7.048319798133254e-05
-0.47758617971048806,-0.47758617971048806,0.9999887596230301,6.973931204171978e-05
-0.47729095894610507,-0.47729095894610507,1.0000612937577593,7.00399980225654e-05
-0.4768757960751827,-0.4768757960751827,1.0000032760107302,7.002301571498628e-05
-0.47658939808316064,-0.47658939808316064,1.000038066615786,6.911344631460503e-05
-0.4763639685625094,-0.4763639685625094,0.9999042465308332,7.005226441274171e-05
-0.47621677455390454,-0.47621677455390454,1.0000086476651462,7.022858978874195e-05
-0.4760697969155444,-0.4760697969155444,1.000105667097705,6.96024617541569e-05
-0.4757575875046314,-0.4757575875046314,0.9999724939128857,7.02702344881961e-05
-0.4753768276445044,-0.4753768276445044,0.9999594864949823,7.09780543895015e-05
-0.4749384625407401,-0.4749384625407401,1.0000510197357086,7.00704400666724e-05
-0.4747676713122928,-0.4747676713122928,1.0001518431565617,6.961073279470459e-05
-0.47445278908708133,-0.47445278908708133,1.0000257465238576,7.090297778713767e-05
-0.474055384528765,-0.474055384528765,1.0000715924874473,7.03976127689344e-05
-0.4737819217094511,-0.4737819217094511,0.9998686512125353,6.987500449395201e-05
-0.4735507131612394,-0.4735507131612394,0.9999872920504945,7.010581445851468e-05
-0.47318775429521337,-0.47318775429521337,1.0000507216944559,7.009001338564261e-05
-0.4728738092337153,-0.4728738092337153,0.9999137335703822,6.984257094330576e-05
-0.47243506871163843,-0.47243506871163843,0.9999388187896898,7.109324315468744e-05
-0.4721288526721764,-0.4721288526721764,0.999923945204011,6.987563531405861e-05
-0.4719103151379386,-0.4719103151379386,0.9999849016571387,7.051949831831328e-05
-0.4715856944480038,-0.4715856944480038,0.9999962147020229,6.926930597914906e-05
-0.47127174080887924,-0.47127174080887924,1.0001235156863195,6.99820292980795e-05
-0.4709042857008171,-0.4709042857008171,0.9999939179651347,6.879977711288835e-05
-0.4706931601103861,-0.4706931601103861,0.9999823999110582,7.017793576770234e-05
-0.4704991463666374,-0.4704991463666374,0.9999618249232467,7.038650247758423e-05
-0.470169419539161,-0.470169419539161,1.0000385607640496,6.993924972957392e-05
-0.4698857277398929,-0.4698857277398929,0.9999159025784878,7.045166702918046e-05
-0.46957845875949716,-0.46957845875949716,1.0000182020781074,7.131345894689087e-05
-0.46940283803269267,-0.46940283803269267,1.0000196469500016,7.038643322935219e-05
-0.46909466557117413,-0.46909466557117413,1.0000575381936558,6.93437122392724e-05
-0.468764491523325,-0.468764491523325,0.9998905928134809,7.013544201078715e-05
-0.46846209632858515,-0.46846209632858515,0.999958419831605,6.936698106868817e-05
-0.4682325604691869,-0.4682325604691869,1.0001084621772205,7.114736569231812e-05
-0.4678519852452155,-0.4678519852452155,1.0000280964585286,6.96839426385636e-05
-0.46761777940628235,-0.46761777940628235,1.0000886292298123,7.13479368914356e-05
-0.4673413431431982,-0.4673413431431982,1.0000143869334122,6.876924937087938e-05
-0.4671276641493023,-0.4671276641493023,1.0001094429226953,7.002451635782989e-05
-0.4668365095261834,-0.4668365095261834,0.9998530269502129,7.002522912415314e-05
-0.46664467474329285,-0.46664467474329285,1.0000012587361957,7.076565002644894e-05
-0.46646608205192025,-0.46646608205192025,1.0000344158612524,7.0417796352902e-05
-0.4660362696689845,-0.4660362696689845,1.0000142477381762,6.982104237080707e-05
-0.4656445878565137,-0.4656445878565137,1.0000311658065228,7.025353245064966e-05
-0.46524569156536016,-0.46524569156536016,1.0000650426736692,7.023765000739934e-05
-0.46503950593978516,-0.46503950593978516,1.0000110971436624,7.008621344106493e-05
-0.4647396025779017,-0.4647396025779017,0.9999449750597073,7.088875729320135e-05
-0.4642968498097616,-0.4642968498097616,0.9999853848136405,6.987672613973721e-05
-0.4639503198981402,-0.4639503198981402,1.0000216276104041,7.064459029078391e-05
-0.463715583881276,-0.463715583881276,1.0000041955836385,7.096493415012693e-05
-0.46356959373515566,-0.46356959373515566,1.0001614757760042,6.97493501589313e-05
-0.46329822648185653,-0.46329822648185653,1.0000701654634259,7.02479798938484e-05
-0.46290888859148255,-0.46290888859148255,0.9999827899989109,7.030787251994752e-05
-0.46258406766792176,-0.46258406766792176,1.0001200162229291,6.936228944184634e-05
-0.4623032357158081,-0.4623032357158081,0.9998412117367771,7.005839301715422e-05
-0.4621440895112755,-0.4621440895112755,0.9999840486627246,7.027739481580778e-05
-0.46200496637975447,-0.46200496637975447,1.000075548000715,6.960590391445388e-05
-0.46167745760685647,-0.46167745760685647,0.9999873407269385,7.015605605084936e-05
-0.46131533529187435,-0.46131533529187435,0.9999368196240044,7.060991794102458e-05
-0.46088215002964716,-0.46088215002964716,1.0000364016049335,7.008086539457155e-05
-0.4606601870895247,-0.4606601870895247,1.0000365977751684,7.001379684781661e-05
-0.4603640007138893,-0.4603640007138893,0.999947620786749,7.065184279311156e-05
-0.4599290239879338,-0.4599290239879338,0.9999302512326077,7.076557437837805e-05
-0.4595362232583284,-0.4595362232583284,0.9999920977805609,6.945026841056742e-05
-0.4592739064268244,-0.4592739064268244,0.999968159852954,7.103661526350773e-05
-0.4588758022473485,-0.4588758022473485,1.0000026855784254,6.980320849913325e-05
-0.4584348000738828,-0.4584348000738828,0.9999885226816716,7.146260120728501e-05
-0.4581666395017237,-0.4581666395017237,1.0000409911012036,7.019820441921037e-05
-0.4578994128307386,-0.4578994128307386,0.9999655311649567,7.019245485811819e-05
-0.4576704639737727,-0.4576704639737727,1.000017810917274,7.001235133442755e-05
-0.4573046488636464,-0.4573046488636464,0.99998372492039,6.961622621907782e-05
-0.4569876021552773,-0.4569876021552773,1.0000305409770585,6.988981668009219e-05
-0.45669238964110265,-0.45669238964110265,1.0000064406563596,7.000511327378353e-05
-0.45653894475181006,-0.45653894475181006,0.9999698352777682,6.967259494463577e-05
-0.45632440674526153,-0.45632440674526153,0.9999023381210124,7.071283096930599e-05
-0.4560773019838962,-0.4560773019838962,1.0000808979252196,6.986973218189749e-05
-0.45590084764407945,-0.45590084764407945,1.000036105005907,6.893177810727122e-05
-0.45564815310863194,-0.45564815310863194,1.000107932149492,7.130601124892002e-05
-0.45542084016342416,-0.45542084016342416,1.000091107639481,7.086632782166845e-05
-0.4552716095582582,-0.4552716095582582,1.0000227845385876,7.082705428809243e-05
-0.4548932152953057,-0.4548932152953057,1.0000389286775024,7.039243858824618e-05
-0.45449269241435103,-0.45449269241435103,0.9999181972018711,6.952678349293742e-05
-0.4541765682923142,-0.4541765682923142,1.0001017760731326,6.981962626848663e-05
-0.45379446679071406,-0.45379446679071406,1.0000587485931633,7.013635321526505e-05
-0.4535977062958409,-0.4535977062958409,0.9999587357144183,7.114322071210466e-05
-0.45330974816461095,-0.45330974816461095,1.0002648051669403,6.919088150737228e-05
-0.4530917849937396,-0.4530917849937396,1.0000822785092527,6.986304526085999e-05
-0.4528118631824327,-0.4528118631824327,0.9999866524331658,7.035068382859134e-05
-0.45260500910735574,-0.45260500910735574,0.9999865908718839,7.076181253904308e-05
-0.4524567654887505,-0.4524567654887505,0.9998891374826917,7.009442709276661e-05
-0.4519936645592679,-0.4519936645592679,1.0000722601836505,6.999658043241266e-05
-0.45149674579224663,-0.45149674579224663,1.0000080287085904,7.017918775337152e-05
-0.4511278203150141,-0.4511278203150141,1.000005639087505,7.049697691759171e-05
-0.45084968287483207,-0.45084968287483207,1.0000773468501858,7.065552953287925e-05
-0.4504859869812208,-0.4504859869812208,1.0000492928772111,7.093759902951512e-05
-0.4501471163261158,-0.4501471163261158,0.9999336605424771,6.895265718970558e-05
-0.44986607039172666,-0.44986607039172666,1.0001039733445054,7.068575256863468e-05
-0.4497047664845013,-0.4497047664845013,1.0000163940788611,7.046759170485478e-05
-0.44953391100934825,-0.44953391100934825,1.000104107013759,7.001148994518943e-05
-0.4492367712322448,-0.4492367712322448,1.0000501155478023,7.03655730563798e-05
-0.44887655327183895,-0.44887655327183895,0.9999411844334943,7.030475948032724e-05
-0.4484928173049411,-0.4484928173049411,0.9998881955825757,6.952910513986989e-05
-0.4481834998543491,-0.4481834998543491,1.000127974083986,6.982868567204168e-05
-0.44804238307406197,-0.44804238307406197,0.9999512625627223,7.048205117702835e-05
-0.4478865504650457,-0.4478865504650457,1.000014140755454,6.983463597614647e-05
-0.4475888878405385,-0.4475888878405385,0.9999380179412682,7.020338556837487e-05
-0.4473246231340454,-0.4473246231340454,0.9999140027594329,7.05280600429826e-05
-0.4470776337249845,-0.4470776337249845,0.9999492179298214,7.017310927659256e-05
-0.44684735277842264,-0.44684735277842264,1.0000794892480636,7.023031306617049e-05
-0.4466417205549078,-0.4466417205549078,0.9998675149218478,6.956958177455001e-05
-0.44631057180667993,-0.44631057180667993,0.9999148541007891,7.013913680938956e-05
-0.4458839162136428,-0.4458839162136428,1.0001488146440822,7.031939956926681e-05
-0.44552610863393055,-0.44552610863393055,0.9999871466436587,6.950948914902825e-05
-0.44528466862757343,-0.44528466862757343,0.999970047246169,7.13958915297116e-05
-0.44496429161954437,-0.44496429161954437,0.9998246318753141,6.998826455279129e-05
-0.4445838556159288,-0.4445838556159288,0.9998415778747812,7.067776478436399e-05
-0.4442106565380527,-0.4442106565380527,1.000027514676224,7.035355517112078e-05
-0.44399486601905663,-0.44399486601905663,1.0000372659230121,7.031766119326339e-05
-0.44375236377381955,-0.44375236377381955,1.0000824946533897,6.954860002359053e-05
-0.44340400671571845,-0.44340400671571845,0.9998181533660503,6.973105042380992e-05
-0.44309873670281374,-0.44309873670281374,1.0000187928121467,6.959136951216233e-05
-0.44279087211034496,-0.44279087211034496,0.9999225245717083,7.002031568811588e-05
-0.4425262691715034,-0.4425262691715034,1.0000174083990996,7.008257223173737e-05
-0.44224677247548244,-0.44224677247548244,0.9998334104263844,7.004205427017966e-05
-0.4419499521034595,-0.4419499521034595,1.0000093713321911,6.98351430211249e-05
-0.4417712720212876,-0.4417712720212876,1.0000291587107195,7.00003161703179e-05
-0.44149802834290314,-0.44149802834290314,0.9999625114912641,7.106945825016429e-05
-0.44126936717220816,-0.44126936717220816,1.0000291559181633,7.038893122480978e-05
-0.4409695710579399,-0.4409695710579399,1.0000192461765423,7.029528310471827e-05
-0.4404761103753117,-0.4404761103753117,0.9999497149075192,7.008207180171224e-05
-0.44017961421632207,-0.44017961421632207,0.9999441435590424,6.924326408790476e-05
-0.43991885171708417,-0.43991885171708417,0.999987563912641,7.004035917522362e-05
-0.43964816676161717,-0.43964816676161717,0.9999580051990792,7.060359685131241e-05
-0.43949401201753063,-0.43949401201753063,1.0000707145332246,7.132176695971045e-05
-0.43914734971403957,-0.43914734971403957,1.0000977095547694,6.893996284819225e-05
-0.4389528663938108,-0.4389528663938108,0.9999920628684521,6.985973223753795e-05
-0.43862820031135924,-0.43862820031135924,0.9998873455530586,7.033740117264677e-05
-0.43846385110155095,-0.43846385110155095,0.9999776060531254,7.076577032145658e-05
-0.4382566040621896,-0.4382566040621896,0.9998750125178704,7.011471132061265e-05
-0.43799982654527414,-0.43799982654527414,1.0000114016091468,6.962547337246384e-05
-0.43766738789272497,-0.43766738789272497,0.9998909772686091,7.000031945786696e-05
-0.43745631357815,-0.43745631357815,0.999996743814053,6.960257740234752e-05
-0.43716385203661046,-0.43716385203661046,0.9999060517333879,7.05609660243532e-05
-0.43701261411915765,-0.43701261411915765,0.9999869817847227,6.970329810595152e-05
-0.43678245982519004,-0.43678245982519004,0.9999978069496486,7.022207902498634e-05
-0.4364020350636565,-0.4364020350636565,0.9998757753230778,7.078061108289016e-05
-0.4360272183213965,-0.4360272183213965,0.9999055175798931,6.940389521560865e-05
-0.4357112540659728,-0.4357112540659728,0.9999467294921128,7.124117582716284e-05
-0.43553533708982284,-0.43553533708982284,0.9999393901872444,7.00555957709141e-05
-0.43535675651000927,-0.43535675651000927,0.9999878895347202,6.979058020456703e-05
-0.4350258074286103,-0.4350258074286103,1.00005458666026,7.084664445444087e-05
-0.43462638309574686,-0.43462638309574686,1.0000583200498878,7.051788140977176e-05
-0.4343077434612496,-0.4343077434612496,0.9999386615819473,6.985766522104531e-05
-0.4340379240362381,-0.4340379240362381,0.9999347601557481,7.030528522565361e-05
-0.4339180745053454,-0.4339180745053454,0.9999368336802972,6.951630857089147e-05
-0.4336407322465675,-0.4336407322465675,0.9998956473111278,6.981419592653885e-05
-0.4333274718701432,-0.4333274718701432,1.000025010872498,7.039973526767976e-05
-0.43297667009901486,-0.43297667009901486,0.9998634893336487,7.032000913040465e-05
-0.43269055131822826,-0.43269055131822826,1.0000148493983216,7.011473288208735e-05
-0.4324640317383455,-0.4324640317383455,0.999963805706766,6.937137328081268e-05
-0.43196510849156766,-0.43196510849156766,0.9999930656926992,7.033422406144891e-05
-0.43153917504678246,-0.43153917504678246,0.9999493035646635,6.936125155183949e-05
-0.4313447092899878,-0.4313447092899878,0.9999870540144895,7.098229405645194e-05
-0.4310349816812959,-0.4310349816812959,1.0000319861451301,7.04931133319674e-05
-0.4308034845009388,-0.4308034845009388,0.999997599312667,6.880444901052646e-05
-0.43044597201878787,-0.43044597201878787,0.999905925705691,7.104768943871364e-05
-0.43019410965935095,-0.43019410965935095,1.0000306939785946,7.045070583653919e-05
-0.42988657735913877,-0.42988657735913877,1.0001072395633974,7.022926034264784e-05
-0.42962677222967616,-0.42962677222967616,0.9999983245984321,6.908712387906949e-05
-0.42931473982971513,-0.42931473982971513,0.9999372415589317,6.983343386563464e-05
-0.4290972030357807,-0.4290972030357807,1.0000216335438947,6.982273212701057e-05
-0.42879060009145176,-0.42879060009145176,0.9999081786858028,6.970679821976932e-05
