time,time,flux,flux_err
-0.4999177228789288,-0.4999177228789288,1.0002175753061773,0.0002738227921506106
-0.4997451118907179,-0.4997451118907179,0.9999580567912055,0.00024007791489474937
-0.49963622957740955,-0.49963622957740955,0.9999751312720128,0.0002479434538407512
-0.49952053070753283,-0.49952053070753283,1.0000728466227216,0.0002432476151296808
-0.4994055138537362,-0.4994055138537362,0.999725980838809,0.00025916418636392276
-0.4992260247072068,-0.4992260247072068,0.9996965657358675,0.00025514684533922775
-0.49907668937831884,-0.49907668937831884,1.000393667495716,0.0002144244527067333
-0.4989789890066788,-0.4989789890066788,0.9999851381567646,0.00022968991055071752
-0.4988849256400044,-0.4988849256400044,1.0001036769589735,0.00022595485214464906
-0.49880628833425933,-0.49880628833425933,1.0000583003489691,0.00021575878601182716
-0.4986462028233916,-0.4986462028233916,0.9998204885579096,0.00026781565914146956
-0.49849662347779145,-0.49849662347779145,0.9996607877908097,0.00024513139165702094
-0.49836751003641666,-0.49836751003641666,1.0000567482385343,0.00022091474498602708
-0.49828183178548213,-0.49828183178548213,0.9998456783236271,0.0002278610863174482
-0.4981865722547411,-0.4981865722547411,0.9998273877992971,0.00022232272195084126
-0.49809066957511733,-0.49809066957511733,0.999918201578813,0.0002201423498836282
-0.49790103744290376,-0.49790103744290376,1.000021595633394,0.00028728259197060343
-0.49779296194449785,-0.49779296194449785,0.9999661082852921,0.0002209143583869721
-0.49765988449615295,-0.49765988449615295,1.0003127210333473,0.0002171075689965401
-0.4975881126466334,-0.4975881126466334,1.0001503728036218,0.00023052284658400885
-0.49748462796915194,-0.49748462796915194,1.0001714164264763,0.00022562682892795046
-0.49737556955782336,-0.49737556955782336,0.9997246393010302,0.0002597052969022602
-0.4971890505843078,-0.4971890505843078,0.9999084215562117,0.0002547545504350164
-0.49703835892672715,-0.49703835892672715,0.99943465527817,0.00021076270040692227
-0.49696019216075343,-0.49696019216075343,0.9999219189298698,0.0002302223595493489
-0.4968868052864934,-0.4968868052864934,0.9997591419647465,0.00022307355766255297
-0.4967912316613422,-0.4967912316613422,1.0000757017462605,0.00022163007957685314
-0.4966552704012429,-0.4966552704012429,0.9997792543772357,0.00026452424248230353
-0.49646523612451005,-0.49646523612451005,0.9997553644201256,0.00025091175176764253
-0.4963286817973426,-0.4963286817973426,1.0001617426224514,0.00021662591643520495
-0.4962655366464503,-0.4962655366464503,1.0000066246269919,0.0002242280155119496
-0.4961840138481534,-0.4961840138481534,1.0001263416854194,0.00022518754147206641
-0.4960986990446827,-0.4960986990446827,0.9999477399869472,0.000219652562216589
-0.4959343565256461,-0.4959343565256461,0.9998290642611257,0.0002722593947897005
-0.4957414304835936,-0.4957414304835936,0.9996811465268213,0.0002468815641184058
-0.49562247479257737,-0.49562247479257737,0.9998087036949963,0.0002179801258181143
-0.4955623765378846,-0.4955623765378846,1.0002135368433458,0.00022568909135261265
-0.4954812970706257,-0.4954812970706257,0.9998741995448965,0.0002259669638468507
-0.4954026689469629,-0.4954026689469629,1.000169268287567,0.00021580081327834876
-0.49518822215266595,-0.49518822215266595,1.0002464615878608,0.0002706518712370204
-0.49503060107806507,-0.49503060107806507,0.9999227354094591,0.00024766887431035603
-0.49491502732457204,-0.49491502732457204,0.9998905063668848,0.00021615014001314615
-0.4948497298198163,-0.4948497298198163,1.000185942151634,0.00023104305641602827
-0.4947755834863187,-0.4947755834863187,0.9998053389787348,0.00022297523229048094
-0.49468389225057197,-0.49468389225057197,0.9999639628581672,0.00026410756819514813
-0.49445989282997405,-0.49445989282997405,0.9999015452928912,0.0002308892371570347
-0.49432241847305247,-0.49432241847305247,0.9998543895349516,0.00024334058302953186
-0.49421534535550793,-0.49421534535550793,1.0001008093750812,0.0002191448671346738
-0.4941381964775644,-0.4941381964775644,1.0001244720880247,0.0002208136432898712
-0.49407435071859707,-0.49407435071859707,0.9997857664095721,0.00023287759769035336
-0.4939624508521888,-0.4939624508521888,0.9998516970799958,0.00026368909332062315
-0.4937524220043599,-0.4937524220043599,0.9996893818372838,0.00022700165573431556
-0.49361076469226645,-0.49361076469226645,1.000214853250287,0.0002497490881938812
-0.4935058760027459,-0.4935058760027459,1.0000180986618274,0.00021918776801281743
-0.493431647718262,-0.493431647718262,0.9999003304108207,0.0002214889028685395
-0.49337314473769994,-0.49337314473769994,0.9999888797369287,0.00022379500333239558
-0.49323263770583026,-0.49323263770583026,0.9999660120413884,0.00027232433514355836
-0.4930395006908611,-0.4930395006908611,1.0006126216338174,0.00022242443167818735
-0.49290314913658906,-0.49290314913658906,1.0002026680809575,0.0002466319886596111
-0.4928121295960864,-0.4928121295960864,0.9998592004049087,0.00021950441880328624
-0.4927346037043094,-0.4927346037043094,1.0001908200585041,0.00023220538140442706
-0.4926797734592753,-0.4926797734592753,1.000136761193648,0.00021569465530545925
-0.4924957887735843,-0.4924957887735843,0.9998488015348238,0.00027570837130659164
-0.492337830648421,-0.492337830648421,0.9999864648810928,0.0002460367870442198
-0.4921969145396929,-0.4921969145396929,0.9998672759060188,0.00021639173169608759
-0.49209965572237024,-0.49209965572237024,1.000050416640122,0.00022512336917728665
-0.49202597794496794,-0.49202597794496794,1.0003276092194389,0.00023424537207815976
-0.4919629717444082,-0.4919629717444082,0.9999995743981918,0.00020878023635131337
-0.4917682682612735,-0.4917682682612735,1.000131385561388,0.0002761961330020786
-0.49162699959426276,-0.49162699959426276,1.000391494699599,0.0002469247383126352
-0.49150196328773743,-0.49150196328773743,1.0001143525626752,0.00022172188647652053
-0.4913969428780092,-0.4913969428780092,1.0003995599637157,0.00022592038059801248
-0.4913309739789895,-0.4913309739789895,1.0002038399364772,0.00022371478625184935
-0.4912219481403611,-0.4912219481403611,0.9998593769316455,0.00026891536755983326
-0.49105627357760684,-0.49105627357760684,1.0004122416321912,0.0002309021691706109
-0.49090791781176224,-0.49090791781176224,1.0000986612495786,0.00024262302710328278
-0.49079950131193756,-0.49079950131193756,1.0002895961790346,0.00022398404187834187
-0.4906997934685819,-0.4906997934685819,1.0001303897819274,0.00023145807771659963
-0.4906267102160825,-0.4906267102160825,1.0000342209532107,0.0002157017969915005
-0.49050827198131514,-0.49050827198131514,0.9998193783376192,0.00027072354147663605
-0.49034881419880777,-0.49034881419880777,1.000015169023124,0.00022693032119966558
-0.4901846199235365,-0.4901846199235365,1.0000485297708883,0.00021986948401854985
-0.4900975589622476,-0.4900975589622476,0.999952252532258,0.0002485390579331872
-0.49000152243061734,-0.49000152243061734,0.9996392155634479,0.00023050768572410157
-0.4899243539734698,-0.4899243539734698,0.9996863764294043,0.00021188270489386885
-0.4897863366295894,-0.4897863366295894,0.9999558338607372,0.0002795528783462461
-0.4896358873122608,-0.4896358873122608,1.0003501537388981,0.00022206586848354023
-0.48947402459639305,-0.48947402459639305,1.0000254906863932,0.0002164704219490958
-0.489397117012777,-0.489397117012777,0.9999386046446641,0.0002521160174499122
-0.48930814606236483,-0.48930814606236483,1.0000620968159988,0.00022654087091663927
-0.4892175243866177,-0.4892175243866177,1.000155054009117,0.00021837544444774758
-0.48905805902077193,-0.48905805902077193,1.0003818957885098,0.0002806911832921835
-0.4889212334332001,-0.4889212334332001,1.0000515741497265,0.00021699884803314732
-0.488779070852604,-0.488779070852604,0.9999428711808129,0.0002450253154127313
-0.4886740401390739,-0.4886740401390739,0.9995666492712066,0.00022573756688672357
-0.48860031292094275,-0.48860031292094275,1.000002235268947,0.00022086877756589848
-0.48849880575606336,-0.48849880575606336,1.0002735065736847,0.0002801362313906386
-0.48833853366596147,-0.48833853366596147,0.9996566088855673,0.00022348922737801827
-0.4882096735614482,-0.4882096735614482,0.999726613901263,0.00022021717342643742
-0.48807661136143,-0.48807661136143,0.9998138512557515,0.00024702553944899557
-0.4879768924764221,-0.4879768924764221,0.9999222976220377,0.00023114748612243654
-0.4879013442083192,-0.4879013442083192,0.9996930538813352,0.00021293168664928116
-0.4877347105834303,-0.4877347105834303,1.000224295563722,0.00028295668106019143
-0.4876082759261749,-0.4876082759261749,0.9997591533077795,0.0002195229969189615
-0.4874617239516283,-0.4874617239516283,1.0000982533548766,0.00021956736107690456
-0.4873566641228422,-0.4873566641228422,0.9998311198162263,0.00024620652027745416
-0.48725580071381386,-0.48725580071381386,1.0003408843436028,0.00021930136941677997
-0.48711869903673916,-0.48711869903673916,1.0000611899498497,0.00027983714612853875
-0.4869848898814837,-0.4869848898814837,1.0004149865116634,0.00022942787953835858
-0.4869027536117187,-0.4869027536117187,0.9998433016996264,0.00022261005985778392
-0.48675113466385367,-0.48675113466385367,1.000305409590675,0.00021651302484383344
-0.4866538555169598,-0.4866538555169598,1.0000575755324044,0.0002480936511344953
-0.4865581415464021,-0.4865581415464021,0.9996403123883939,0.00022075720127647937
-0.4864050206163085,-0.4864050206163085,1.0001867290401658,0.0002814077476329057
-0.48628262825017143,-0.48628262825017143,0.9997205396545406,0.00022543042659487538
-0.48616750454800695,-0.48616750454800695,0.9999573168732676,0.00022002611841659127
-0.48603444650291294,-0.48603444650291294,0.9997275440877083,0.00024695546697901214
-0.4859308544825126,-0.4859308544825126,0.9998621384116554,0.00022615390756323934
-0.4858284537817667,-0.4858284537817667,0.9998420582355616,0.0002149188924923703
-0.4856674170956069,-0.4856674170956069,0.9998655052076003,0.00028768009257772794
-0.4855585294964328,-0.4855585294964328,0.9998355301570683,0.00022194298511607697
-0.485416781829889,-0.485416781829889,0.9997954902941467,0.00022376538800434573
-0.48533721167420935,-0.48533721167420935,0.9998008888459677,0.0002426342952739284
-0.48522777664565525,-0.48522777664565525,1.0002469310062565,0.00022323105860654326
-0.48511449753023045,-0.48511449753023045,1.000107797988908,0.00027987473778980207
-0.4849625880630299,-0.4849625880630299,0.9999191067115005,0.00023223790387198926
-0.48484315122816496,-0.48484315122816496,1.0004714815607223,0.0002190650760105891
-0.48469317797441247,-0.48469317797441247,0.9997881731177678,0.00024200591376880468
-0.48459868103253145,-0.48459868103253145,1.0002668068426104,0.00021997949724502996
-0.4845159701797854,-0.4845159701797854,0.9999372092596672,0.00022064052128130626
-0.4843628478235587,-0.4843628478235587,0.9997765630481792,0.00028423776300637245
-0.48424046024425704,-0.48424046024425704,0.9998631748738914,0.00022538028379266926
-0.48412350759813877,-0.48412350759813877,0.9998808277940713,0.00023266189698824014
-0.4839757697705579,-0.4839757697705579,1.0000874086984937,0.0002426139162257035
-0.4838836527139449,-0.4838836527139449,0.9998679992138941,0.00022274372331695827
-0.48381490026670804,-0.48381490026670804,1.0000269772036332,0.00021024662773148334
-0.48365477751065666,-0.48365477751065666,0.999940149794068,0.0002907465434616555
-0.4835369278273049,-0.4835369278273049,1.000082992124019,0.00022535124478481743
-0.4833648640345814,-0.4833648640345814,0.9998442389698855,0.00021782216896249138
-0.483250235533626,-0.483250235533626,1.000330683963951,0.00024808387570430504
-0.4831547610572443,-0.4831547610572443,0.9999839154311584,0.00021732429762830093
-0.4830479246268851,-0.4830479246268851,1.0003609651392276,0.0002839675001388852
-0.4829204096306171,-0.4829204096306171,1.0000023401394789,0.00023222184561347666
-0.4828308479533575,-0.4828308479533575,0.9999624580582716,0.00022251049225942
-0.4826525759519654,-0.4826525759519654,0.9999912380001931,0.0002449845255507892
-0.4825448379575278,-0.4825448379575278,1.0003454135198857,0.00022963075393268216
-0.48245594191213287,-0.48245594191213287,1.0000952238389316,0.0002095502251094972
-0.4823234923312441,-0.4823234923312441,0.999816465612972,0.0002850789857190464
-0.4822198168385228,-0.4822198168385228,0.9997965021494502,0.0002294038209800958
-0.4820823248426166,-0.4820823248426166,1.0001821911262407,0.0002259356986443975
-0.4819336069293684,-0.4819336069293684,0.9997205710457738,0.00024268261619618704
-0.48182415202071527,-0.48182415202071527,0.9999378602858571,0.00022306990639313
-0.48172135423567963,-0.48172135423567963,1.0000249083417034,0.00021521778072796957
-0.481583073134351,-0.481583073134351,0.9999650486223514,0.00029377672664150005
-0.48148597715405117,-0.48148597715405117,0.9999817766292003,0.0002262102063460097
-0.4813515452461047,-0.4813515452461047,1.0001410169139036,0.00021902884743385631
-0.4812301606485107,-0.4812301606485107,1.0002871019955786,0.00024628519081463845
-0.4811292917123751,-0.4811292917123751,1.0001528649219875,0.00021897790384474555
-0.4809921810105209,-0.4809921810105209,0.9997161615080085,0.0002891279016946156
-0.48085836741790333,-0.48085836741790333,1.0003643920713912,0.00022951244742735276
-0.4807544757364724,-0.4807544757364724,1.0000816071680452,0.00022223129698489496
-0.48061041101374824,-0.48061041101374824,1.00024063647626,0.00024510765581111754
-0.4805026592933871,-0.4805026592933871,1.0001498096241845,0.00022951430014479796
-0.48041128659020843,-0.48041128659020843,1.0000137091883095,0.00021029852484404435
-0.4802511574242544,-0.4802511574242544,1.0001988706488452,0.00029632089428552127
-0.4801555795142008,-0.4801555795142008,1.0001549938735066,0.0002185997262289184
-0.4800349696003593,-0.4800349696003593,1.0002825801217061,0.00022596834478932085
-0.47990497927693243,-0.47990497927693243,0.999884097404846,0.0002467601361287271
-0.4798043249440866,-0.4798043249440866,0.9998594840753185,0.00022579720209562753
-0.47965025760170193,-0.47965025760170193,0.9999081264035954,0.00028824061683300985
-0.4795037856247063,-0.4795037856247063,1.0001651960725033,0.00022983593194889052
-0.47943295000212627,-0.47943295000212627,1.0000626722531218,0.00021430456924047687
-0.4793013823548108,-0.4793013823548108,0.9998121659313819,0.00022123225312113665
-0.4792003597828966,-0.4792003597828966,1.0004848948362242,0.00024925139784231414
-0.4791012523506197,-0.4791012523506197,1.0002036611657856,0.00022299838847959804
-0.4789299068106743,-0.4789299068106743,0.9994294085706285,0.0002929657732612304
-0.47879467899612677,-0.47879467899612677,0.9998439377495286,0.00022531847623280936
-0.4787299759256484,-0.4787299759256484,1.000100660497902,0.00021700260951705734
-0.47856824608740567,-0.47856824608740567,1.0000604225387624,0.0002451977403116293
-0.47846048064714636,-0.47846048064714636,1.0000336499027536,0.00022936811692605597
-0.478369528820599,-0.478369528820599,0.9998823775649586,0.00021955351848799466
-0.4781794532210483,-0.4781794532210483,1.0000038723659683,0.00030036518099364865
-0.4780838589239238,-0.4780838589239238,0.9996976219921583,0.00021574153685240743
-0.4780212710825026,-0.4780212710825026,1.00001386435574,0.00021925945351820392
-0.4778657872287397,-0.4778657872287397,0.9993898556961159,0.0002472775499713845
-0.4777621484619544,-0.4777621484619544,0.9998697471198466,0.0002256580080490319
-0.4776290041496679,-0.4776290041496679,1.0003716883972125,0.0002955849796700587
-0.47747460052950147,-0.47747460052950147,0.9999703317527551,0.00023209254708400412
-0.4773959815197998,-0.4773959815197998,1.0000463550147636,0.00021759587054786573
-0.4772733062671136,-0.4772733062671136,0.999872432365519,0.00021858837117426317
-0.4771458250753824,-0.4771458250753824,0.9999008752261819,0.00024654155720021226
-0.4770454837951036,-0.4770454837951036,0.9998394104861017,0.00021905040507309853
-0.47690879137993536,-0.47690879137993536,0.9991516672241992,0.00029982919789436224
-0.4767740192107624,-0.4767740192107624,0.9998555235169129,0.00022929192491110258
-0.47669588712393535,-0.47669588712393535,0.9999063156954943,0.000219184178477947
-0.4765566347998288,-0.4765566347998288,0.9999270798746143,0.0002163743403903021
-0.47644299575289895,-0.47644299575289895,1.0002024096945454,0.000248515905278313
-0.4763353865349302,-0.4763353865349302,0.9995351387415023,0.00022382088070892238
-0.47616681337013345,-0.47616681337013345,1.000295260220357,0.00030531494416645937
-0.4760523538440452,-0.4760523538440452,1.0003496830905052,0.0002208698715066737
-0.4759541634237053,-0.4759541634237053,1.0007024747602322,0.00022016692571978362
-0.475823622445688,-0.475823622445688,0.9998718713864575,0.000247422467470647
-0.47571997199559063,-0.47571997199559063,0.9998784852311664,0.00022562101070335944
-0.4755868392597165,-0.4755868392597165,1.0000538095249554,0.00030068360760857873
-0.4754324221358786,-0.4754324221358786,0.9998757822133519,0.00023203263749646376
-0.47534391579012547,-0.47534391579012547,1.0000876605773854,0.0002185993317585358
-0.47517885257684045,-0.47517885257684045,1.0001590998381131,0.00021640024120395687
-0.47508154782443623,-0.47508154782443623,1.0000720769693607,0.00024853466958009386
-0.474989051202715,-0.474989051202715,1.0001186076833268,0.0002177203222301745
-0.4748352057773957,-0.4748352057773957,1.0001390305016087,0.00030298880682329537
-0.47473112022287867,-0.47473112022287867,1.000059522957239,0.00023214389968814856
-0.47463127595843274,-0.47463127595843274,0.9998962560663655,0.00021923981314315565
-0.4744709437379299,-0.4744709437379299,1.0000649154160934,0.0002504641838269222
-0.47435374348772824,-0.47435374348772824,0.99989867568825,0.00022347140416105346
-0.4741987706992802,-0.4741987706992802,1.0000479029813498,0.00030039166297544104
-0.47406465235899875,-0.47406465235899875,0.9999971819070701,0.00023571703481835301
-0.47399513106119573,-0.47399513106119573,0.9996303346213418,0.00021976648758684447
-0.47387921269721006,-0.47387921269721006,1.0003504562028227,0.00021958203522551926
-0.47375950996034816,-0.47375950996034816,1.0001862333657685,0.00024320325509003313
-0.4736491690332173,-0.4736491690332173,1.0002314058284942,0.00022075880561138323
-0.4734715480031241,-0.4734715480031241,1.0007817786759143,0.0003096035178241484
-0.4733294570916769,-0.4733294570916769,0.9996816853416244,0.0002207575954451066
-0.4732312675841456,-0.4732312675841456,1.0002223408270503,0.00022002099003530233
-0.4731075728106475,-0.4731075728106475,1.0002068305122145,0.000250489296946906
-0.4730063835977603,-0.4730063835977603,1.0000934600484979,0.00023061042937543697
-0.47287067336621363,-0.47287067336621363,0.9998849787394237,0.000302222999690775
-0.47269933225663296,-0.47269933225663296,0.9998667439401601,0.00023064852573150197
-0.4726261443140231,-0.4726261443140231,1.000346869330932,0.0002174441885219276
-0.47249263160906596,-0.47249263160906596,0.9993254820666545,0.00022181999229872604
-0.4723807669707753,-0.4723807669707753,1.0000642419820005,0.00024678502333130636
-0.4722837580379746,-0.4722837580379746,1.0001200237304275,0.00022387946055322264
-0.47211010281803284,-0.47211010281803284,0.9999429311948156,0.0003126759278658465
-0.47199428577260394,-0.47199428577260394,0.9996754110002131,0.00021914504602890342
-0.47193082319652147,-0.47193082319652147,0.9996764464233726,0.00021896070723581156
-0.4717820749629936,-0.4717820749629936,1.0001134355646701,0.0002197003837780197
-0.47167792804017383,-0.47167792804017383,1.0001529168660135,0.00024876232813530964
-0.47158091784656336,-0.47158091784656336,0.999935855145384,0.000222084890484182
-0.47139491122556476,-0.47139491122556476,1.0000035649620442,0.00031400227537888513
-0.4712933073263798,-0.4712933073263798,1.0004133793712113,0.0002192151239595182
-0.47121997862180365,-0.47121997862180365,0.9999834783635361,0.00022003446394268242
-0.4710871418391889,-0.4710871418391889,0.9998366316834233,0.0002485581551074467
-0.47097249243282135,-0.47097249243282135,1.0001356204424616,0.00022911356910860012
-0.4708649401630737,-0.4708649401630737,1.0000772089724193,0.00021793521881519352
