time,time,flux,flux_err
-0.4998974310025612,-0.4998974310025612,0.9998907382325782,0.0002209069052288602
-0.49976936640390096,-0.49976936640390096,0.9999651620958785,0.00021705406074494672
-0.4996580094048113,-0.4996580094048113,0.9998263993352823,0.00025853582041227723
-0.4995596068663872,-0.4995596068663872,0.999948877000737,0.0001960947107338333
-0.4994773172380519,-0.4994773172380519,0.9998656824738366,0.0002129330543065604
-0.4993444436811842,-0.4993444436811842,1.0001606550137336,0.0002318119869218149
-0.4992776333434449,-0.4992776333434449,0.9999765764779699,0.00022078383660129107
-0.4992075685040618,-0.4992075685040618,1.000145944701224,0.00022507341421984587
-0.4991592000602395,-0.4991592000602395,1.0001369964032087,0.00023608206779814753
-0.499095288618264,-0.499095288618264,1.000100611716476,0.00022449313578007122
-0.4989224857643421,-0.4989224857643421,1.0000371785046362,0.00023765699527179704
-0.49878533722658175,-0.49878533722658175,0.9999029885424895,0.00021610442035776973
-0.49866405275897707,-0.49866405275897707,0.9999124758964802,0.00021894984682084272
-0.4985421007266268,-0.4985421007266268,1.0002092574499453,0.00021570785417282835
-0.49839048366411587,-0.49839048366411587,0.9995649994031869,0.0002046405394016117
-0.4981906631575839,-0.4981906631575839,0.9999598205109688,0.0002087859304876589
-0.49810780527477616,-0.49810780527477616,1.0000081332407293,0.0002184337974701757
-0.4980138884886401,-0.4980138884886401,0.9998894154477584,0.00019786924007880114
-0.4979158535032184,-0.4979158535032184,1.0001459791071745,0.00023399340932218795
-0.49783246203369347,-0.49783246203369347,0.999839621197691,0.00021159363142780993
-0.497778344067774,-0.497778344067774,1.000068005432142,0.00023132122479223565
-0.4976464694205788,-0.4976464694205788,1.0000806747524646,0.00021178817674995815
-0.49755709576420487,-0.49755709576420487,1.0000521512545917,0.00021674513166876713
-0.4974075362100848,-0.4974075362100848,1.0002698423257415,0.00020619571822816498
-0.49731445538127445,-0.49731445538127445,1.0000400632509658,0.0002271736091420078
-0.4971974841515475,-0.4971974841515475,0.9999189973831282,0.00019969274226590652
-0.4970310259639518,-0.4970310259639518,1.0000808072913159,0.00022074211376907582
-0.49683810628266656,-0.49683810628266656,0.999840747520967,0.00020120992266453724
-0.4966964952465787,-0.4966964952465787,1.0000315690169654,0.00019565176199000576
-0.49644002177301444,-0.49644002177301444,0.9999943093515332,0.00020113095640096487
-0.4963739752274705,-0.4963739752274705,1.0000499222128307,0.0002000439937885453
-0.49620878839195937,-0.49620878839195937,1.0000777998418149,0.00021883802410274108
-0.4961049746743811,-0.4961049746743811,0.9998912446075433,0.000192817142931883
-0.4960003667387355,-0.4960003667387355,0.999807066152265,0.00019440123833211747
-0.49577366138109935,-0.49577366138109935,1.0002814506947997,0.0001978589114321422
-0.4956555857083004,-0.4956555857083004,0.9999848211711388,0.00020411567113713327
-0.49555587177019333,-0.49555587177019333,0.999685894775386,0.00022269198013949638
-0.4954423036564549,-0.4954423036564549,1.0001590003166845,0.00022330101925998946
-0.4952569849287102,-0.4952569849287102,1.0000384192063732,0.0001984002892544968
-0.49517710593063385,-0.49517710593063385,0.9997787567353675,0.00022586152486288219
-0.49507606554034284,-0.49507606554034284,0.9999025299308937,0.00020909744015791534
-0.49501367488483083,-0.49501367488483083,0.9999541567987427,0.0002201772692151484
-0.4949343091400806,-0.4949343091400806,1.0001601706206285,0.00021466124436940034
-0.49481856471684293,-0.49481856471684293,1.0000444760788656,0.00020075408834762773
-0.4947334151082032,-0.4947334151082032,1.000035756810319,0.00023111545920829132
-0.4946501484562759,-0.4946501484562759,1.0000964148779303,0.00022726045253972224
-0.49454370416060556,-0.49454370416060556,1.000318749923629,0.00020523538396291892
-0.49444587657271766,-0.49444587657271766,0.9999525407370268,0.00022211993759303642
-0.49433469630384935,-0.49433469630384935,0.9997931045982945,0.00019370274298130048
-0.49418040533491875,-0.49418040533491875,1.00003709473139,0.00023123557708388487
-0.4940822545366245,-0.4940822545366245,0.9996928618096579,0.0001994060655083854
-0.4940107061505842,-0.4940107061505842,1.000180138762562,0.0002266827195812999
-0.4938628686373704,-0.4938628686373704,1.0003626979461089,0.00022582521205415516
-0.4938041492663615,-0.4938041492663615,1.0001459103653818,0.00019973374506047865
-0.4937522815918783,-0.4937522815918783,0.9998163157155983,0.0002270824492209698
-0.49370600351830946,-0.49370600351830946,0.9999763472366455,0.00021162508460774104
-0.4936457321622584,-0.4936457321622584,0.9999601866346589,0.00022016343164373104
-0.49353737027195166,-0.49353737027195166,1.0001797142049722,0.00022374795965452742
-0.49341676897674913,-0.49341676897674913,1.0001373841996144,0.00023248481606082434
-0.4932910223171348,-0.4932910223171348,1.0004290515064862,0.00022454966687524445
-0.49311930089606903,-0.49311930089606903,0.999917453568256,0.00022061979243321114
-0.49298947462448267,-0.49298947462448267,1.0001860828648153,0.00020190332616670066
-0.492843761981203,-0.492843761981203,0.9999306703472296,0.00019993051198600163
-0.4927042190764041,-0.4927042190764041,0.9999024889226655,0.0002122959870673365
-0.4926112799490511,-0.4926112799490511,1.0001165602684405,0.0002067844494836256
-0.492521224929078,-0.492521224929078,0.999664191501355,0.00022374524563826035
-0.4924387367194868,-0.4924387367194868,0.9998939723710842,0.00020559524497884828
-0.49239758715266363,-0.49239758715266363,1.0000959755396321,0.00021170949981134086
-0.49235111088710254,-0.49235111088710254,0.9995653721614597,0.00022169963015043295
-0.49230004722776355,-0.49230004722776355,1.0000114268892681,0.00022515131265849332
-0.49222611876975864,-0.49222611876975864,0.9998876948612156,0.0002298901203572483
-0.4920608617037942,-0.4920608617037942,0.9995342755591887,0.00022345030837715293
-0.4919572623461136,-0.4919572623461136,0.9999766387563401,0.00022614542272521998
-0.4917774772235134,-0.4917774772235134,1.0001728517131763,0.00020801280443808845
-0.4915291378121765,-0.4915291378121765,1.0001160340187958,0.00022368070553274591
-0.49141640831221595,-0.49141640831221595,0.999840028433505,0.00022346912079572364
-0.4912834301627299,-0.4912834301627299,0.9999435840382684,0.0002226475233654284
-0.4911528551354422,-0.4911528551354422,1.0001437083758187,0.00021175579730428541
-0.49094239519399707,-0.49094239519399707,0.9997511364581447,0.00020614958553827328
-0.49080216460497467,-0.49080216460497467,0.9997931855473073,0.00020322678854594903
-0.49066857878569864,-0.49066857878569864,1.0001612063272842,0.0002175167493634249
-0.49052007674836207,-0.49052007674836207,0.9999221911509062,0.0002061019000604276
-0.4902764265614678,-0.4902764265614678,1.000171451346421,0.0002244860604912777
-0.4900773872541322,-0.4900773872541322,1.0000563729585537,0.00020030758141622625
-0.48992848415873597,-0.48992848415873597,0.9996934552376503,0.00019842431257754964
-0.48979070609784686,-0.48979070609784686,1.0000736143931641,0.00019824867928126317
-0.48969901967357143,-0.48969901967357143,0.9998792055230059,0.0002032984668517115
-0.4895924641736201,-0.4895924641736201,1.0000641907432228,0.00021505217263698755
-0.48941934310860236,-0.48941934310860236,0.9998946654769529,0.00021038353174292556
-0.4893423108907882,-0.4893423108907882,1.0001769790542867,0.00020238327332254268
-0.48920930345266245,-0.48920930345266245,1.0000027160045806,0.00019701685753173415
-0.48904337378844503,-0.48904337378844503,0.9999624385818562,0.00020517591113312477
-0.4889500823810522,-0.4889500823810522,0.9998952720043619,0.00021660383272416585
-0.4888554564815422,-0.4888554564815422,0.9999869394945634,0.00022622657069881004
-0.48876225128915396,-0.48876225128915396,1.00013590752372,0.0002225022506690669
-0.48857181111816317,-0.48857181111816317,1.0002712981315454,0.00022633139257078146
-0.48839366771644566,-0.48839366771644566,1.0000307276311104,0.0002127090759543441
-0.4883242858268204,-0.4883242858268204,1.0000635342749002,0.00021774332129167163
-0.4882815613782441,-0.4882815613782441,1.000125401116101,0.00022237443086339133
-0.488245920441841,-0.488245920441841,1.0001369557306585,0.00020571304941350722
-0.4881882288711495,-0.4881882288711495,1.0001345977209024,0.00021737438541855414
-0.48810477294246085,-0.48810477294246085,0.9997725841047181,0.00022857011840086413
-0.48802357723325257,-0.48802357723325257,1.0000332595965504,0.00022655997404412317
-0.4879447803243238,-0.4879447803243238,1.0002867009943346,0.0002135984892902447
-0.4878812197195657,-0.4878812197195657,1.0000357973378697,0.00019562556042788297
-0.48776745294526336,-0.48776745294526336,1.0000424659356144,0.00022127127180158364
-0.4876044482087309,-0.4876044482087309,0.9998095295900583,0.0002167808755973271
-0.48749940916677587,-0.48749940916677587,1.0000602390875943,0.0002023959009557078
-0.4873952516034478,-0.4873952516034478,0.9997416505083688,0.00019983677283714704
-0.4872874072229024,-0.4872874072229024,1.0003556274101282,0.0002097720496020498
-0.4872192521383113,-0.4872192521383113,0.9997338732341443,0.0002468313987472467
-0.48711915108942777,-0.48711915108942777,1.0001213269341065,0.0002224120064227996
-0.48703358369457417,-0.48703358369457417,1.0003380117515548,0.0001990436110961911
-0.48697097936383216,-0.48697097936383216,1.0004011431978792,0.00023255899548116796
-0.4868614228260412,-0.4868614228260412,0.999952251698031,0.00021703450341880142
-0.4867545911751222,-0.4867545911751222,1.0000194518999874,0.00022946602283186048
-0.48662303376113414,-0.48662303376113414,1.0000979290950494,0.00023592213524381401
-0.48652734686038457,-0.48652734686038457,1.000157543087814,0.00023104592415445612
-0.4864144589795615,-0.4864144589795615,0.9997445878869984,0.0002230577429003816
-0.48625784418836704,-0.48625784418836704,1.0000454474740132,0.00019798648522444936
-0.4860899711151433,-0.4860899711151433,0.9997949929470129,0.00020749256066553563
-0.4859192477611941,-0.4859192477611941,0.9998251701877827,0.00020930076593495282
-0.48578858792898244,-0.48578858792898244,1.0000404893751216,0.00019814339927199027
-0.48568538613108103,-0.48568538613108103,0.9997787186653682,0.00020851512074147117
-0.4856604701897595,-0.4856604701897595,1.0000532509200601,0.00023094175712321777
-0.48561491596337875,-0.48561491596337875,0.9997997410487919,0.00020576696098463984
-0.48556006756844,-0.48556006756844,0.9998236497677537,0.0002512773501195161
-0.48549016399192624,-0.48549016399192624,1.000092580313104,0.00023596125855919356
-0.4853223847705522,-0.4853223847705522,0.9998141221362765,0.00023238078868431005
-0.48515900924321614,-0.48515900924321614,1.0000760041346417,0.00020771145630006012
-0.48501299941926845,-0.48501299941926845,1.0000978696495952,0.00021382678204727822
-0.48486146698196536,-0.48486146698196536,1.0001257448546783,0.00024574139438546667
-0.48469352096071816,-0.48469352096071816,1.000129833272948,0.0002206427470389094
-0.48459385724490855,-0.48459385724490855,0.9999211690050526,0.00020562855012016314
-0.48450011644963525,-0.48450011644963525,0.9997252046093472,0.0001978560669737354
-0.4843744794503436,-0.4843744794503436,0.999908914923666,0.00020944736413461306
-0.48426277749895236,-0.48426277749895236,0.9999469538048,0.00020795966586184363
-0.48420443773502486,-0.48420443773502486,1.000162434553058,0.00020826017809804032
-0.4840605844190577,-0.4840605844190577,0.9997955932547917,0.00021432069422712218
-0.48390687716382674,-0.48390687716382674,0.9998670157680895,0.00020011882947572573
-0.4837379570795747,-0.4837379570795747,0.9998852657345256,0.00019902082807171667
-0.48352392821761897,-0.48352392821761897,1.0000002953867162,0.00019994109379916042
-0.4833549929106084,-0.4833549929106084,1.0000028015875417,0.0001998380750400363
-0.4831961050738755,-0.4831961050738755,1.000214977084208,0.00020031067560354098
-0.48305854326099507,-0.48305854326099507,0.9999553505530547,0.00021491435647845865
-0.482925605122,-0.482925605122,1.000011197801628,0.0002117317496432802
-0.4828320545799215,-0.4828320545799215,1.0000268697218664,0.00021449333904658782
-0.4827664972857747,-0.4827664972857747,0.9997495473144866,0.00020782112069340797
-0.4826492884596519,-0.4826492884596519,0.9997444155424352,0.00021434213800419153
-0.48248692057095466,-0.48248692057095466,1.0000434862031606,0.00020866519127325125
-0.4823991524630401,-0.4823991524630401,0.999643092280532,0.00020625592618746442
-0.4822413038316881,-0.4822413038316881,0.9999404780496045,0.00022107145485301613
-0.4821372028643964,-0.4821372028643964,0.9998251595083,0.00023129663740779744
-0.48202947347599545,-0.48202947347599545,0.9999327606971006,0.0002005544127866795
-0.48187537928970414,-0.48187537928970414,0.9998975422059164,0.00024305461483326517
-0.4817557520720584,-0.4817557520720584,0.9997185561497213,0.0002072640959247348
-0.4816750687721651,-0.4816750687721651,1.0001914842724564,0.0002134361395347869
-0.4815876154068974,-0.4815876154068974,0.9997828721825981,0.00020408589814222428
-0.48152545037592065,-0.48152545037592065,0.9998569121714187,0.00022153540027069094
-0.48145922077092107,-0.48145922077092107,1.000284398026331,0.00020343988951687233
-0.48142735190776875,-0.48142735190776875,1.0001222849336269,0.00022311377980572443
-0.4813935756275896,-0.4813935756275896,1.0001104022589389,0.00023387580897621103
-0.48134430004211026,-0.48134430004211026,0.9997193567237878,0.0002065816411820879
-0.4812956838752143,-0.4812956838752143,1.0000428417110174,0.0002048292587180067
-0.4811656844722165,-0.4811656844722165,1.0000549797555542,0.0002324148341477358
-0.4810304006983642,-0.4810304006983642,1.0001444899118597,0.00023480303192321663
-0.480885680171923,-0.480885680171923,0.9999528257991587,0.0002219784063174156
-0.48079415697720834,-0.48079415697720834,0.9998671920683411,0.00019793693609540473
-0.48066929328415425,-0.48066929328415425,1.0000869238933252,0.00022069599454185021
-0.4805886219452077,-0.4805886219452077,0.9998692506468514,0.00022399230589333365
-0.4804763071573689,-0.4804763071573689,0.9999057088911781,0.0002098819787262386
-0.48032311797287547,-0.48032311797287547,1.000208920380998,0.00022473731418008367
-0.48023868812888393,-0.48023868812888393,1.000232905170381,0.00022310807768430532
-0.4801838756080542,-0.4801838756080542,1.0001581926117198,0.00022854418981713967
-0.48009944323202947,-0.48009944323202947,0.9998603943221468,0.00024155408424878606
-0.4799942408608331,-0.4799942408608331,0.999871942983166,0.00020785542175326033
-0.47985679301273193,-0.47985679301273193,1.0000856168747252,0.00025003126347627905
-0.4797202985115291,-0.4797202985115291,0.9999525852668982,0.00020782527304407804
-0.4795815054581908,-0.4795815054581908,0.999967332697131,0.00022102472852995764
-0.4794205014441104,-0.4794205014441104,1.0000017712032858,0.000207425158949653
-0.47918851090798853,-0.47918851090798853,0.999979519921883,0.00020625495379128817
-0.47908527289837366,-0.47908527289837366,1.000272330040618,0.00020506733292024163
-0.4790000911947573,-0.4790000911947573,0.9999179146812651,0.00021904471014603955
-0.47889896425695044,-0.47889896425695044,1.000190193318787,0.0002285472238808386
-0.47881645321831456,-0.47881645321831456,1.0000120835256594,0.0002129675247882675
-0.47876402643814797,-0.47876402643814797,1.0002748283493692,0.00022051242171236673
-0.4786921410181094,-0.4786921410181094,1.00008353101781,0.00022682216108479958
-0.4785915460219258,-0.4785915460219258,0.9999408585934381,0.00020077582812261406
-0.4784684948863287,-0.4784684948863287,0.9999598564540092,0.0002297326428866449
-0.4783375188075297,-0.4783375188075297,0.9999303950494596,0.00020660174730045413
-0.4782353492068069,-0.4782353492068069,0.9999465777287299,0.00022672691437217377
-0.4781209963191941,-0.4781209963191941,0.9997749954684029,0.00023907819369827502
-0.4779143043255317,-0.4779143043255317,0.9998688850291471,0.0001996371088607408
-0.47779617070191305,-0.47779617070191305,0.9998286678913371,0.00020329362286335617
-0.47766910962673137,-0.47766910962673137,0.9996096213198122,0.00019675530999304145
-0.4775060715895961,-0.4775060715895961,1.0001729928982965,0.00020666938108334097
-0.4773897716782812,-0.4773897716782812,0.9999586565694258,0.00020186950682014832
-0.47730166234759963,-0.47730166234759963,0.9997089014273174,0.00021047092022588926
-0.4771468831590028,-0.4771468831590028,0.9999682771948555,0.00021704497411822971
-0.47705357918894153,-0.47705357918894153,1.00021555726271,0.00019494013245184108
-0.4768154478057113,-0.4768154478057113,0.9999103714433224,0.00020136126207627626
-0.4766257230519841,-0.4766257230519841,1.0000464825352164,0.00020812631448926763
-0.4765103619909496,-0.4765103619909496,0.9999713831809544,0.0002227263402357254
-0.4763942759716883,-0.4763942759716883,0.9999742196664488,0.00022337273238398487
-0.47620687683229335,-0.47620687683229335,1.000083881559315,0.00019837428167853482
-0.47613169000542255,-0.47613169000542255,1.0002782005187294,0.00022991983287097505
-0.47606156510009895,-0.47606156510009895,1.0000919076349277,0.00021256870295775554
-0.4759554114512866,-0.4759554114512866,1.0000061269708507,0.0002196086648266743
-0.4758771203327342,-0.4758771203327342,0.999925678123277,0.00021586332348805785
-0.4757667173718801,-0.4757667173718801,0.9998193727659406,0.0002071203699195302
-0.4756925004789082,-0.4756925004789082,1.0001446876015143,0.00022537648267958785
-0.47559514959793886,-0.47559514959793886,0.9999876528348679,0.00022723125331929996
-0.4754966054315446,-0.4754966054315446,0.9997962881217874,0.00020587835819469913
-0.4753952278930228,-0.4753952278930228,1.0002774338819957,0.0002222470958583135
-0.47529785533843094,-0.47529785533843094,1.0001434913164473,0.00019355627443054855
-0.4751284425765334,-0.4751284425765334,1.0001430950574517,0.00023045917349545506
-0.47502071639100907,-0.47502071639100907,0.9997801122821798,0.00020518929362703105
-0.47494164394011024,-0.47494164394011024,1.000091849299365,0.00022141117654556948
-0.47481302346132,-0.47481302346132,0.9996589060524326,0.00020236391333814532
-0.47476400934247065,-0.47476400934247065,1.000260925947454,0.00022205341913338747
-0.4747277521521028,-0.4747277521521028,0.9998996591761788,0.00022609522058943221
-0.474681332649925,-0.474681332649925,1.000252004621835,0.0002056848026885062
-0.47463870087667603,-0.47463870087667603,1.000012002762121,0.0002321939909418608
-0.4745786620223953,-0.4745786620223953,0.9998202034584193,0.00022773350953659042
-0.4744455073996505,-0.4744455073996505,1.0000913451870568,0.00020269702390059624
-0.4743397499070852,-0.4743397499070852,1.0001235164770585,0.00023517121073542203
-0.4742009548252099,-0.4742009548252099,1.0002423998908512,0.00021062868051404171
-0.47407629710796756,-0.47407629710796756,1.0002511599678,0.0002206215813114096
-0.4739515455708897,-0.4739515455708897,0.9998884115801076,0.0001992805146704365
-0.47383623562927824,-0.47383623562927824,0.9999277371162927,0.00020177473354046383
-0.47368415485543663,-0.47368415485543663,0.9999013903495392,0.00020957238559161576
-0.4735964975618117,-0.4735964975618117,1.0001660465290638,0.00020380532654459176
-0.4734930678168894,-0.4734930678168894,0.999979686011088,0.00020246359287857114
-0.473468826001772,-0.473468826001772,0.9998049594041797,0.0002362159532538309
-0.4734356541644956,-0.4734356541644956,1.0000968780625399,0.00022349682056042793
-0.4733872337121284,-0.4733872337121284,0.9998824480736884,0.00021237469546032486
-0.4733433430570585,-0.4733433430570585,0.9995029061775206,0.00023127730554611375
-0.47329369960207257,-0.47329369960207257,0.9999544331754497,0.00023477566368669284
-0.4732200873506372,-0.4732200873506372,0.9998345377834529,0.00022742813770725503
-0.47306802841339957,-0.47306802841339957,0.9996041387104244,0.00021964199540996398
-0.4729268559050979,-0.4729268559050979,0.9997702374933837,0.0002228067125691964
-0.47277812071552033,-0.47277812071552033,0.9998737321775149,0.0002103231259332964
