time,time,flux,flux_err
-0.49980767804421095,-0.49980767804421095,1.0000461085783836,6.626532765320947e-05
-0.4994953822642856,-0.4994953822642856,1.000039544133163,6.641011874356965e-05
-0.4993060865381267,-0.4993060865381267,0.9999853786031713,6.963601217219504e-05
-0.49915156655624743,-0.49915156655624743,1.000022174050789,6.276999760744448e-05
-0.4987902514098096,-0.4987902514098096,1.0000542357210978,6.33178801955595e-05
-0.498512570920866,-0.498512570920866,1.0000998129388647,6.226363677218217e-05
-0.49825608163228025,-0.49825608163228025,1.000162610796496,6.066837219766394e-05
-0.4981404517937335,-0.4981404517937335,1.0000819042072826,6.29666354515946e-05
-0.4978585889955866,-0.4978585889955866,1.0001193519145832,6.179641384229171e-05
-0.4976255132583901,-0.4976255132583901,1.00001712103792,6.219874470026321e-05
-0.49735436891933205,-0.49735436891933205,1.0001245709061362,6.318881667355733e-05
-0.4969445966053172,-0.4969445966053172,0.9999703372853166,6.522234504276066e-05
-0.496691296643985,-0.496691296643985,0.999978907805855,6.146068982029817e-05
-0.49635641450586265,-0.49635641450586265,0.9999232727943413,6.115078675159197e-05
-0.496083583626023,-0.496083583626023,1.0000560490668466,6.171413008667555e-05
-0.4958205278540845,-0.4958205278540845,0.9999197293854515,6.0917440758086434e-05
-0.4956740886715124,-0.4956740886715124,1.000031524796944,6.302023052725801e-05
-0.49520136094506595,-0.49520136094506595,1.0000049759020644,6.26238229906422e-05
-0.49484949148318264,-0.49484949148318264,1.0000673686815384,6.355090628477716e-05
-0.49455957764730557,-0.49455957764730557,0.9999460892874314,5.985835789627463e-05
-0.49433922257449014,-0.49433922257449014,0.9999966829389344,6.456731393321995e-05
-0.49395098824315936,-0.49395098824315936,1.0000234431932482,6.339425626100369e-05
-0.4937610327906441,-0.4937610327906441,0.9999611446627338,5.985988762722564e-05
-0.4934819752626936,-0.4934819752626936,0.9999964543511393,6.142123740259745e-05
-0.4931239145807922,-0.4931239145807922,0.9999939598319024,6.457880644648056e-05
-0.4927194392963429,-0.4927194392963429,0.9999608870917862,6.09697715309791e-05
-0.4923802017365233,-0.4923802017365233,0.9999321342316975,6.355092197805111e-05
-0.4920146773511078,-0.4920146773511078,1.0000669438359449,6.147619716407926e-05
-0.4918051597996964,-0.4918051597996964,1.0000743713183484,6.191407868738941e-05
-0.49146085685642904,-0.49146085685642904,1.0000026362663441,5.903446865397634e-05
-0.4911860864143819,-0.4911860864143819,1.0000059080091375,6.452810542034357e-05
-0.49087636625918096,-0.49087636625918096,1.000014806963582,6.031304602774003e-05
-0.49057392600225286,-0.49057392600225286,1.0000579426578562,6.0268847033197406e-05
-0.4902693602576619,-0.4902693602576619,1.000131179708482,6.33252159054787e-05
-0.4900945619534468,-0.4900945619534468,1.0000344752257,6.48298930316145e-05
-0.4896626740359352,-0.4896626740359352,0.9999867823401066,6.394975119927833e-05
-0.48928539281623673,-0.48928539281623673,1.0000459247897608,6.141825759358603e-05
-0.4891200185957132,-0.4891200185957132,1.000050752302646,6.10431524185059e-05
-0.4887648764721234,-0.4887648764721234,1.000048712879695,6.180007868060401e-05
-0.4885686548150261,-0.4885686548150261,0.9999631113843475,5.9603823655087864e-05
-0.48844607998471473,-0.48844607998471473,1.0000087758112266,6.154980742093789e-05
-0.48805409749766115,-0.48805409749766115,1.0000702579663685,6.435523348819787e-05
-0.4877453109555063,-0.4877453109555063,1.0000958174490544,6.238862020977465e-05
-0.4873367796113598,-0.4873367796113598,1.0000226986942058,6.187220404564359e-05
-0.4870318846835289,-0.4870318846835289,0.999973388379518,6.275859257568398e-05
-0.4867255234654294,-0.4867255234654294,1.0001551828634903,6.273134383856487e-05
-0.4863886656734394,-0.4863886656734394,1.0000796815631277,6.083996730115547e-05
-0.48589878620696253,-0.48589878620696253,0.9999724320632728,6.525085475216977e-05
-0.4855753123876639,-0.4855753123876639,1.0000173773251784,5.966621737348336e-05
-0.4853861177689396,-0.4853861177689396,1.0000035527246596,6.319761231845652e-05
-0.48504550969664706,-0.48504550969664706,1.000144182218025,6.327350303598404e-05
-0.48478838033188365,-0.48478838033188365,0.9999553969356685,6.158006485347183e-05
-0.4845428994463873,-0.4845428994463873,0.9999668611695819,5.976739228791439e-05
-0.4841443900804734,-0.4841443900804734,0.9999694988222128,6.262770138613236e-05
-0.4837353674840415,-0.4837353674840415,1.000043951489706,6.258434955509266e-05
-0.48351432997878874,-0.48351432997878874,0.9999244504203453,6.084255268785769e-05
-0.483098387667269,-0.483098387667269,1.0000203661479754,6.318344979342369e-05
-0.4829076831476414,-0.4829076831476414,1.0000292314653858,6.443866399797251e-05
-0.48268673675775065,-0.48268673675775065,1.00004425245213,6.020337058675171e-05
-0.48224573008337757,-0.48224573008337757,1.0000408968721204,5.8698783832393956e-05
-0.48200863147794737,-0.48200863147794737,0.9999023058422903,6.284584353108118e-05
-0.4817937084109872,-0.4817937084109872,0.9999672430021889,6.004185173661641e-05
-0.48149076271947705,-0.48149076271947705,0.9999833456684076,6.0049368852035924e-05
-0.4811652978372877,-0.4811652978372877,1.0001046573496726,6.495698164913605e-05
-0.48092081760987637,-0.48092081760987637,1.0000925609033573,6.12304837594472e-05
-0.4806764785258565,-0.4806764785258565,0.9999592909617376,6.237070250507069e-05
-0.4802610121900216,-0.4802610121900216,1.000059437283101,5.9816495975321276e-05
-0.47999443453300045,-0.47999443453300045,0.9999649676320208,6.459577197472124e-05
-0.4796184435239411,-0.4796184435239411,0.9999017037632788,6.0716779782626504e-05
-0.4794617018313147,-0.4794617018313147,0.9999900752713646,6.060601378791464e-05
-0.4791415141589823,-0.4791415141589823,1.0000156627384547,6.22526507331748e-05
-0.47879581122397213,-0.47879581122397213,0.9999194256243541,6.29149699876779e-05
-0.47827526528271846,-0.47827526528271846,1.0000813060771274,6.199763983403025e-05
-0.47795810212846845,-0.47795810212846845,1.0000060613549078,6.311605158261162e-05
-0.4776421983318869,-0.4776421983318869,1.0000653044869545,6.0494222598051374e-05
-0.4773407462620526,-0.4773407462620526,0.999998974067777,6.42091047177953e-05
-0.47685416930471547,-0.47685416930471547,0.9999873362891238,6.356855186728878e-05
-0.47667844201496334,-0.47667844201496334,1.0000231132933108,6.073741451185256e-05
-0.47649215551064117,-0.47649215551064117,0.9999367452105228,5.991847710573421e-05
-0.4760860498441616,-0.4760860498441616,1.0001060769822068,6.353779544336345e-05
-0.47579485696624035,-0.47579485696624035,0.999983657494473,6.209254570040808e-05
-0.47563388261187356,-0.47563388261187356,0.9999725468591102,6.216717198953572e-05
-0.475481639195641,-0.475481639195641,1.0000623141695564,6.0791738460991915e-05
-0.4748886646470055,-0.4748886646470055,0.9999944736923924,6.262082694478898e-05
-0.4746209755234304,-0.4746209755234304,1.0000615137470636,6.322410154138022e-05
-0.47435882382560524,-0.47435882382560524,0.9999835608000961,6.132959469537161e-05
-0.4741986315784743,-0.4741986315784743,0.9999754405490734,6.25230149960665e-05
-0.4739244503842201,-0.4739244503842201,0.999937091315411,6.126038893605539e-05
-0.47374574468121866,-0.47374574468121866,0.9999467145159416,6.16798280987701e-05
-0.47350857488054315,-0.47350857488054315,0.9999618356796505,6.085424960968358e-05
-0.4729283647262491,-0.4729283647262491,1.000016829613307,6.170310168873552e-05
-0.4725812123477226,-0.4725812123477226,0.9999940462385405,6.220981002786655e-05
-0.4722650007723132,-0.4722650007723132,0.9999655652726404,6.020448135986555e-05
-0.47193741384835447,-0.47193741384835447,1.0000580583979706,6.356677435421558e-05
-0.47164952610619365,-0.47164952610619365,1.000040603414354,6.158893345616177e-05
-0.4712749769721995,-0.4712749769721995,0.999849943075872,6.176474605341841e-05
-0.47097052924509625,-0.47097052924509625,0.999922364648295,6.064853333894451e-05
-0.47074079232261284,-0.47074079232261284,1.0000551639804927,6.340868203167502e-05
-0.47054789957765025,-0.47054789957765025,1.000001639768355,6.0608907051042145e-05
-0.4704123816845822,-0.4704123816845822,0.9998972867993011,5.914774569051051e-05
-0.46993818204209675,-0.46993818204209675,1.0000880204983913,6.39392101902608e-05
-0.4695066440341179,-0.4695066440341179,0.9999523756890328,6.331346435687997e-05
-0.46910930670710516,-0.46910930670710516,0.9999569224971419,5.9723266246268885e-05
-0.4687934406276327,-0.4687934406276327,0.9999200981755599,6.582790336429375e-05
-0.46854614631010916,-0.46854614631010916,0.9999238790559588,6.124836399280854e-05
-0.46832687920104943,-0.46832687920104943,0.9999615029578999,6.260488845670319e-05
-0.4677863859775243,-0.4677863859775243,0.9998879419192608,6.337319888425499e-05
-0.46760336961306165,-0.46760336961306165,1.0000848254014594,6.150624591301866e-05
-0.46735810752143153,-0.46735810752143153,0.9999917984558897,6.11828489320291e-05
-0.46705117704259463,-0.46705117704259463,0.9999940792504391,6.427167256773246e-05
-0.46674235532409514,-0.46674235532409514,1.0000593769989177,6.123820235236685e-05
-0.4665874760990846,-0.4665874760990846,1.0001239600853102,6.182946981477886e-05
-0.4664984036789974,-0.4664984036789974,0.999959011953667,6.114039410374126e-05
-0.46639259146613765,-0.46639259146613765,1.000004956115984,6.29269145020629e-05
-0.46590536397416143,-0.46590536397416143,1.0000292531723916,6.081413262213049e-05
-0.4656736050223117,-0.4656736050223117,1.0000474588120523,6.527241820048503e-05
-0.4654011041056947,-0.4654011041056947,0.9999269703343042,5.931427091384592e-05
-0.4651625454091118,-0.4651625454091118,1.0000353204244674,6.19465243760722e-05
-0.4648572071295348,-0.4648572071295348,1.0000575428874139,6.078486377804263e-05
-0.46465415000129723,-0.46465415000129723,0.9999238111083791,6.52187459396327e-05
-0.4644660608129925,-0.4644660608129925,1.000076501629073,6.084638723227847e-05
-0.4638557855243562,-0.4638557855243562,1.000093167111963,6.060893525791033e-05
-0.4635210732303676,-0.4635210732303676,1.0001566241496307,6.146098387851699e-05
-0.4632505987741752,-0.4632505987741752,1.0001115742433164,6.032996668462992e-05
-0.46293499289313333,-0.46293499289313333,0.9999090073384631,6.359931062808623e-05
-0.4626616687484784,-0.4626616687484784,1.0000150094808542,6.206006866770371e-05
-0.4623243138208636,-0.4623243138208636,1.0000750408278631,5.992523272306903e-05
-0.4620873841151479,-0.4620873841151479,0.9999744166710522,5.923232531702162e-05
-0.4618466602783883,-0.4618466602783883,1.000022289958968,6.313181579801358e-05
-0.46168807820940855,-0.46168807820940855,1.0000929217225454,5.980487463685191e-05
-0.46151852704933843,-0.46151852704933843,1.000043503422748,6.171618645509261e-05
-0.4613151569850743,-0.4613151569850743,0.9999316437420791,5.9153474969684766e-05
-0.46106049925729164,-0.46106049925729164,1.0000860981329707,6.26459263590597e-05
-0.46068606913031546,-0.46068606913031546,0.9999058613066344,6.208451763731316e-05
-0.4601511837245198,-0.4601511837245198,1.0000500488929887,6.232708545352578e-05
-0.45967012711043936,-0.45967012711043936,1.0000808746596632,6.429193382272589e-05
-0.4593828283730545,-0.4593828283730545,1.0000291230717182,5.9276163002387466e-05
-0.4588306013320107,-0.4588306013320107,0.9998051316111228,6.33672323807531e-05
-0.4585839578852756,-0.4585839578852756,1.0000927657388066,6.322172121021001e-05
-0.45830098095320865,-0.45830098095320865,1.000170290481472,6.118916884359583e-05
-0.4579410675287363,-0.4579410675287363,1.0001150413349837,6.234118644398298e-05
-0.4577507146692369,-0.4577507146692369,0.9999971525229713,5.944403783542761e-05
-0.45756299007771306,-0.45756299007771306,1.0000694737365106,6.333906591570884e-05
-0.4574608056092984,-0.4574608056092984,1.0001167328821385,5.968954222547242e-05
-0.4571217864882783,-0.4571217864882783,1.000018105682505,6.53130436301663e-05
-0.4568472334125545,-0.4568472334125545,0.9999922434555171,6.004010494013714e-05
-0.4565643329420709,-0.4565643329420709,0.9999637421252799,6.505335818017305e-05
-0.4562753348029219,-0.4562753348029219,1.0000441309445935,5.961585848778582e-05
-0.4560089853039244,-0.4560089853039244,0.9999667999106355,6.344570951484027e-05
-0.4557753160712309,-0.4557753160712309,1.0000267904249842,6.186393427440746e-05
-0.45549501965288075,-0.45549501965288075,0.9999575577630075,6.613637344393991e-05
-0.4553309773444198,-0.4553309773444198,1.0000462741485872,5.93308053821819e-05
-0.45493630701093934,-0.45493630701093934,0.999956217531239,6.060483663671502e-05
-0.45442041550268186,-0.45442041550268186,0.99996758832063,6.011528286371834e-05
-0.45409470078593583,-0.45409470078593583,1.0000567219353946,6.0116154663536676e-05
-0.45370060196728446,-0.45370060196728446,1.0000916309538999,6.578424543306486e-05
-0.4531515744689386,-0.4531515744689386,1.000001682249735,5.935324074714489e-05
-0.4528494345126092,-0.4528494345126092,1.0001158101477048,6.316199346850394e-05
-0.4526643907520338,-0.4526643907520338,1.0000347582497136,6.17921145279552e-05
-0.4523599653810379,-0.4523599653810379,0.9999890720991684,6.004685091977434e-05
-0.45197478457994295,-0.45197478457994295,1.0000373535919642,6.260221472155744e-05
-0.4515743338080938,-0.4515743338080938,1.0000895281510425,6.247566180795001e-05
-0.45114030616823586,-0.45114030616823586,1.0001135250958284,6.395642771898323e-05
-0.45077981926879146,-0.45077981926879146,0.999938664184296,6.127665939432327e-05
-0.45052495080890365,-0.45052495080890365,1.0000102603749406,6.270574850932e-05
-0.4503162725872244,-0.4503162725872244,1.0000275492994835,5.960850600018829e-05
-0.45003612447471825,-0.45003612447471825,0.9999531959454064,6.335551425295003e-05
-0.44962866671558005,-0.44962866671558005,1.0000151886485618,6.397021772872543e-05
-0.4493934819838614,-0.4493934819838614,1.0000201644936777,6.284331967872691e-05
-0.44892454315850044,-0.44892454315850044,0.9999271028534258,6.266181579549123e-05
-0.4486164950532839,-0.4486164950532839,1.0000289608406265,5.944175299266761e-05
-0.4484585120968404,-0.4484585120968404,1.000033656785594,6.10399055110655e-05
-0.4482500736048678,-0.4482500736048678,1.0000715501498483,6.29582086040484e-05
-0.4479253712866921,-0.4479253712866921,1.000145411543016,6.250081744425131e-05
-0.4475214029487688,-0.4475214029487688,1.000015818542801,6.455167333477338e-05
-0.44728179579979044,-0.44728179579979044,1.0000394281259841,5.902033877633634e-05
-0.4470152878682711,-0.4470152878682711,1.0000689106256568,6.185482069848447e-05
-0.4468608447219594,-0.4468608447219594,1.0000333312473402,6.307840195120676e-05
-0.44668533547082917,-0.44668533547082917,1.000002161747292,6.028514381928369e-05
-0.44639386293274586,-0.44639386293274586,0.9999497094282492,6.264596117433002e-05
-0.44608406610641393,-0.44608406610641393,1.0000316868457162,6.0432986677027144e-05
-0.4456572954994044,-0.4456572954994044,0.9999713425557143,6.198308575323289e-05
-0.44528931441163877,-0.44528931441163877,0.9999551902913781,6.0434328638835523e-05
-0.44503558607393645,-0.44503558607393645,1.0000142617022176,6.039487788578469e-05
-0.4447233033424709,-0.4447233033424709,0.9999097063457653,6.410784291246686e-05
-0.44405655815935463,-0.44405655815935463,0.99998506472144,5.914754100495778e-05
-0.4437609875079943,-0.4437609875079943,0.9999404614019622,5.9593826172355595e-05
-0.4436235665372806,-0.4436235665372806,1.0000189748820463,6.407315939500485e-05
-0.4432903679466108,-0.4432903679466108,1.000071799781218,5.9603011843533903e-05
-0.44282658586162144,-0.44282658586162144,1.0000745129418054,6.202202512688969e-05
-0.4423843010910787,-0.4423843010910787,1.0000179364610966,6.229115815730262e-05
-0.4419675071345409,-0.4419675071345409,0.9999710421641627,6.158446264888846e-05
-0.44165695658593906,-0.44165695658593906,0.9999727949900434,6.239152543202479e-05
-0.4413655239201034,-0.4413655239201034,1.000122866598973,6.282960760660546e-05
-0.44112135579343886,-0.44112135579343886,0.9999894764791941,6.12869281196458e-05
-0.4408407530761906,-0.4408407530761906,1.0000495807854015,6.332566655495157e-05
-0.44057302022556544,-0.44057302022556544,1.000145078346153,6.0314818148595644e-05
-0.44034497558459407,-0.44034497558459407,1.0000990080027135,6.524254101584562e-05
-0.4399351924803341,-0.4399351924803341,0.9998723310182644,6.376003723136586e-05
-0.43967807613516924,-0.43967807613516924,1.000156960360841,6.167980566602777e-05
-0.4393750885079498,-0.4393750885079498,0.9999626911651195,6.311647627134036e-05
-0.4390513074613409,-0.4390513074613409,0.9999802688439899,6.432545412527878e-05
-0.4384804192755837,-0.4384804192755837,0.9999234672365331,6.272017730213366e-05
-0.4382603646197822,-0.4382603646197822,0.9999852916186265,6.277273238981853e-05
-0.4380130329518579,-0.4380130329518579,1.0000108319620007,6.020449270847712e-05
-0.4378322261152789,-0.4378322261152789,1.0000086705283768,6.306856527371504e-05
-0.4375858906729263,-0.4375858906729263,1.0001249004600974,6.0282124851504355e-05
-0.43731197186134524,-0.43731197186134524,1.000018795580075,6.305291965324232e-05
-0.43710583256033714,-0.43710583256033714,0.9999945475897677,5.9787782275906286e-05
-0.43689829297945837,-0.43689829297945837,0.9999589233975513,6.050609970492994e-05
-0.436532935773721,-0.436532935773721,1.000018771125466,6.0862999484439346e-05
-0.43600592228904134,-0.43600592228904134,0.999980389814868,6.149894886036352e-05
-0.4357326875440776,-0.4357326875440776,0.9999273206053617,6.317054784884633e-05
-0.4354203713941388,-0.4354203713941388,0.9999859993893174,6.274670972616336e-05
-0.4348183901645825,-0.4348183901645825,1.0000271681212307,6.183118207143726e-05
-0.43453551662823886,-0.43453551662823886,1.0000798104290962,6.398119343881811e-05
-0.4341539939501672,-0.4341539939501672,0.9999649987640649,5.9586103766922086e-05
-0.4339163598691812,-0.4339163598691812,1.0000898111924121,6.0401927425194984e-05
-0.43361245855048763,-0.43361245855048763,0.9999879091955582,6.260675327030146e-05
-0.43320183841569815,-0.43320183841569815,1.0000397739311213,6.312882471737134e-05
-0.4328187175124185,-0.4328187175124185,0.9999026543970546,6.053961688537474e-05
-0.4325557016156381,-0.4325557016156381,1.0000274284791542,6.172904066730544e-05
-0.43232903819298374,-0.43232903819298374,1.0000426826665485,6.084338923533502e-05
-0.432045325897343,-0.432045325897343,0.9999227751983085,5.947960299455586e-05
-0.4318000061088242,-0.4318000061088242,1.0000429889843065,6.318132484787992e-05
-0.4315753640956245,-0.4315753640956245,1.000035217172878,6.203769115260003e-05
-0.4311748351465212,-0.4311748351465212,0.9999058871425746,6.421245248531678e-05
-0.4308711147532449,-0.4308711147532449,0.9999865879920312,6.26687544165117e-05
-0.43070887634821703,-0.43070887634821703,1.000005806218057,6.466260425691249e-05
-0.4303502019145526,-0.4303502019145526,0.9999432445865585,6.276291672438367e-05
-0.4300363510410534,-0.4300363510410534,0.9999659188950268,6.377837028171256e-05
-0.42984330169419993,-0.42984330169419993,0.9999201606809361,6.125711288978037e-05
-0.4293763935886091,-0.4293763935886091,1.0000396888135998,6.454322685927524e-05
-0.4289644451535423,-0.4289644451535423,0.9999735510515937,6.007899500462924e-05
-0.42882168346259275,-0.42882168346259275,0.9999500675243246,6.082994130238337e-05
-0.4286951996400603,-0.4286951996400603,1.0001519563749721,6.157304087149853e-05
-0.42840644572715975,-0.42840644572715975,0.999938670371016,6.141001925929939e-05
-0.4281254533358151,-0.4281254533358151,1.0000090823714465,6.186413519660053e-05
-0.4278624113620026,-0.4278624113620026,1.0000528033415308,6.225897831495964e-05
-0.4275696620141389,-0.4275696620141389,0.9999898739681587,6.090834751439622e-05
-0.42707146710163213,-0.42707146710163213,0.9999618568958833,6.207650053616478e-05
-0.4267655580086284,-0.4267655580086284,1.0000516783060607,6.22281991041883e-05
-0.42623207471478963,-0.42623207471478963,1.0001512124299488,6.28627413881688e-05
-0.4257079032453476,-0.4257079032453476,0.9999881361878705,6.060272326318627e-05
-0.4254694527495303,-0.4254694527495303,0.9999853059082936,6.552829457227564e-05
