time,time,flux,flux_err
-0.4999496633790841,-0.4999496633790841,1.0000457736215966,8.445842166506128e-05
-0.49976270764746006,-0.49976270764746006,0.9999796207179715,8.281486080470685e-05
-0.4996067276857502,-0.4996067276857502,0.9999079196312021,8.157813605786267e-05
-0.4994313822273398,-0.4994313822273398,1.0000659273181582,8.346060233282953e-05
-0.4992871876442223,-0.4992871876442223,0.9998890791825644,8.324660168164533e-05
-0.4990673252250417,-0.4990673252250417,0.9999749649164873,8.241263770745283e-05
-0.498920457274653,-0.498920457274653,1.000075882153572,8.350756047004707e-05
-0.49887534173976744,-0.49887534173976744,0.9999833753225122,8.318432787765879e-05
-0.4988049165920529,-0.4988049165920529,0.9999419180599262,8.394981923688598e-05
-0.4986948140569439,-0.4986948140569439,1.0000226357327626,8.320354218866268e-05
-0.49854800399189114,-0.49854800399189114,1.0000652230712226,8.333995392225007e-05
-0.49844158644991693,-0.49844158644991693,0.9998158302178737,8.207731446635094e-05
-0.4983431123022456,-0.4983431123022456,1.000150975026218,8.247216269422557e-05
-0.4982697990919405,-0.4982697990919405,1.0000022200324936,8.153723513646756e-05
-0.4980760714257485,-0.4980760714257485,1.00015610201998,8.41831242959606e-05
-0.4979506184143247,-0.4979506184143247,0.9999816952973198,8.357978793165657e-05
-0.49787329820537707,-0.49787329820537707,1.000078339712887,8.139256964755426e-05
-0.4977628126544005,-0.4977628126544005,0.9999270685909936,8.151448639295587e-05
-0.4976414966957236,-0.4976414966957236,1.000010299223831,8.208316698796383e-05
-0.49752448475628624,-0.49752448475628624,1.0000529075815021,8.427556122850286e-05
-0.49740407573408446,-0.49740407573408446,0.9999288240977326,9.308195716252582e-05
-0.49721976618966435,-0.49721976618966435,1.000117767834641,8.15247023517427e-05
-0.4971005075763969,-0.4971005075763969,0.9998374562595009,8.274303918055767e-05
-0.49704354687346497,-0.49704354687346497,0.9999005069067047,8.277880307782306e-05
-0.4969916244052001,-0.4969916244052001,1.0000085564615635,8.325568423989145e-05
-0.49681660181158804,-0.49681660181158804,1.0000080255545825,8.53453250444055e-05
-0.49670579844969326,-0.49670579844969326,1.000127170923598,8.179560704364767e-05
-0.49657056853393444,-0.49657056853393444,1.000080885662547,8.185127601579244e-05
-0.49648844512194046,-0.49648844512194046,0.9999847465728953,8.232225046052746e-05
-0.49643373461512963,-0.49643373461512963,1.0002282323688814,8.534678518458077e-05
-0.4963193154853798,-0.4963193154853798,1.0000311621071931,8.213223888391851e-05
-0.4962448492013209,-0.4962448492013209,1.000073572480779,8.279857219968115e-05
-0.4961056212450785,-0.4961056212450785,0.9999873116725212,8.208542125801531e-05
-0.49595053657176325,-0.49595053657176325,1.0000480317806293,8.26102656398409e-05
-0.4958494975158828,-0.4958494975158828,0.9998327642566591,8.222697933544299e-05
-0.495722188038053,-0.495722188038053,0.9999199036514315,8.268455257587134e-05
-0.49563872956859995,-0.49563872956859995,0.9999636689505701,8.663372881441241e-05
-0.49540881798893677,-0.49540881798893677,1.0001485272074273,8.227387931475553e-05
-0.4953216610447271,-0.4953216610447271,0.9999437105284041,8.187926719936984e-05
-0.49521942482169834,-0.49521942482169834,1.0001016444139663,8.416066529746506e-05
-0.4951756377813581,-0.4951756377813581,1.0000260903089586,8.473126081118664e-05
-0.4950267059255566,-0.4950267059255566,0.9999070964248012,8.211618187970875e-05
-0.49489179963857166,-0.49489179963857166,0.9999072665363199,8.104516411477973e-05
-0.4946539910502906,-0.4946539910502906,0.9999886186073944,8.286403244863518e-05
-0.4945250825730909,-0.4945250825730909,0.9999923839756171,8.433424740439288e-05
-0.4944157855126832,-0.4944157855126832,0.9999597474211483,8.258828571083311e-05
-0.4943658288400911,-0.4943658288400911,1.0000147272040134,8.300539278148284e-05
-0.49425538486393633,-0.49425538486393633,0.9999565174666284,8.322926762582365e-05
-0.49412859211224713,-0.49412859211224713,0.999987529320026,8.262929071336122e-05
-0.4940480870965985,-0.4940480870965985,1.0000176822461622,8.256285712817748e-05
-0.49397080368144086,-0.49397080368144086,1.0001231823090388,8.237228622665222e-05
-0.49385615491701174,-0.49385615491701174,1.000053065329236,8.173054406794016e-05
-0.4937215191719588,-0.4937215191719588,0.9999609743148922,8.483488035388568e-05
-0.493588246760919,-0.493588246760919,1.0001471821431767,8.219054694666333e-05
-0.49349061806206007,-0.49349061806206007,0.9999045351398459,8.635747744729561e-05
-0.49330500864671195,-0.49330500864671195,0.9999476906644432,8.384089866487676e-05
-0.49315866691613336,-0.49315866691613336,0.9999969489404441,8.140818482581727e-05
-0.49301511695448424,-0.49301511695448424,1.0000621481950975,8.129956254116677e-05
-0.4928815040868358,-0.4928815040868358,1.0000944907171165,8.143496843752877e-05
-0.4927719579914992,-0.4927719579914992,1.0001502827118347,8.155654528230178e-05
-0.4926595560886199,-0.4926595560886199,0.9999734246954054,8.204481264631304e-05
-0.4925523216137663,-0.4925523216137663,0.9999801144950201,8.424781423347486e-05
-0.49241199989701273,-0.49241199989701273,0.9999804743935353,8.226747698313676e-05
-0.4923190395820711,-0.4923190395820711,1.0000805221095825,8.403117009611528e-05
-0.4922176005457004,-0.4922176005457004,0.9999736388495105,8.205372807742022e-05
-0.49213842645767725,-0.49213842645767725,1.0001465974927957,8.380331216525024e-05
-0.49195449485487186,-0.49195449485487186,1.0000175235740785,8.216492020664921e-05
-0.49182209153150325,-0.49182209153150325,0.999912874989327,8.264142343017875e-05
-0.49170506953669246,-0.49170506953669246,0.9999728772200938,8.183108556710488e-05
-0.4915649936476257,-0.4915649936476257,1.0001810081889773,8.225311044317858e-05
-0.4913383527426049,-0.4913383527426049,0.9998579386579444,8.174373395282864e-05
-0.4911537248925015,-0.4911537248925015,1.0000116014941667,8.17540255947109e-05
-0.4910036525405303,-0.4910036525405303,1.000049455759564,8.259906570627466e-05
-0.4908187003471539,-0.4908187003471539,1.0000048014505114,8.337732035996836e-05
-0.49070009487804783,-0.49070009487804783,1.0000081076567195,8.413489660516407e-05
-0.49059475329268026,-0.49059475329268026,1.0000358916661358,8.43879450780604e-05
-0.4903948783772648,-0.4903948783772648,0.9998511776452259,8.422763843777384e-05
-0.49031808705840374,-0.49031808705840374,0.9997405428676757,8.43574652441161e-05
-0.4902055747501436,-0.4902055747501436,0.9998719251619036,8.294943958406696e-05
-0.4900588136508304,-0.4900588136508304,0.9999982005963572,8.305588034998593e-05
-0.4899897595816583,-0.4899897595816583,1.0001973261955086,8.455807312879919e-05
-0.4897786265493778,-0.4897786265493778,0.9999186024839408,8.262679598456033e-05
-0.48963119247709985,-0.48963119247709985,0.9999417791869607,8.550207018238694e-05
-0.48949150406151604,-0.48949150406151604,0.9999679056523114,8.185720523369065e-05
-0.48941534713812873,-0.48941534713812873,0.9999370935478102,8.311701859355795e-05
-0.48936533434534796,-0.48936533434534796,0.9999144253308747,8.140996604496041e-05
-0.48912883903540205,-0.48912883903540205,0.9999787709948709,8.282727772591537e-05
-0.4889997905498603,-0.4889997905498603,1.0001928327683949,8.391065018498204e-05
-0.48885922838016993,-0.48885922838016993,0.9998994867717379,8.51722795575501e-05
-0.4887286798482819,-0.4887286798482819,1.0001177541725763,8.206750570795956e-05
-0.4886116966517875,-0.4886116966517875,1.0000095226216934,8.187760258850373e-05
-0.48851646953480665,-0.48851646953480665,1.0000751630613283,8.432166233477601e-05
-0.4884139264519035,-0.4884139264519035,0.9998337140652145,8.349728519499226e-05
-0.48832933537851203,-0.48832933537851203,1.0000012646325334,8.140601430481097e-05
-0.48824451099389987,-0.48824451099389987,1.0000327065710768,8.287232822056976e-05
-0.48808483621796767,-0.48808483621796767,1.000125499598456,8.278859408870884e-05
-0.48789329410574284,-0.48789329410574284,1.0001404688210271,8.373139688470196e-05
-0.4877884099543735,-0.4877884099543735,0.9999682932918406,8.280514521395141e-05
-0.48769718322255357,-0.48769718322255357,1.0001973760432084,8.48428922042883e-05
-0.487566710482497,-0.487566710482497,1.000060688146903,8.212784195518016e-05
-0.4873843654328084,-0.4873843654328084,1.0001030701286664,8.325745923158282e-05
-0.4872449297516141,-0.4872449297516141,0.9999808377658624,8.245895366098975e-05
-0.48714323744425203,-0.48714323744425203,1.0000360241493267,8.271322406909514e-05
-0.48702745723494445,-0.48702745723494445,1.0000416927898879,8.619336475678114e-05
-0.48681377125540165,-0.48681377125540165,0.9998891142153813,8.46685429386558e-05
-0.4867221120024624,-0.4867221120024624,1.000046523820015,8.196698699236155e-05
-0.486544156240052,-0.486544156240052,0.9999750392168508,8.150980706904618e-05
-0.4863900252144958,-0.4863900252144958,0.9998768399658158,8.380505859506038e-05
-0.48626939799360114,-0.48626939799360114,1.0000452370352821,8.437114415980543e-05
-0.48614770518397565,-0.48614770518397565,0.9999747829955116,8.103249491152079e-05
-0.4860061358980602,-0.4860061358980602,0.9999123617193897,8.213218513294105e-05
-0.4859285892060143,-0.4859285892060143,0.9999861824172065,8.337241173417728e-05
-0.48583567327514177,-0.48583567327514177,0.9998022623307747,8.511836064201971e-05
-0.48568208678625524,-0.48568208678625524,1.000023962875068,8.606384740864905e-05
-0.48555644264924924,-0.48555644264924924,0.9999578684648309,8.18046626955012e-05
-0.48549953424808334,-0.48549953424808334,0.9999258994982323,8.449937405388463e-05
-0.4853858054004377,-0.4853858054004377,0.9999593323412294,8.261968674311583e-05
-0.4853452963754535,-0.4853452963754535,1.0000784095007407,8.130500791709094e-05
-0.48521688907349014,-0.48521688907349014,0.9999866034151743,8.312608423398666e-05
-0.48508270056481706,-0.48508270056481706,1.0000575817695376,8.223781914341108e-05
-0.48496618807912456,-0.48496618807912456,0.9999171617452045,8.119506126379887e-05
-0.4848334714137309,-0.4848334714137309,0.9999768954466697,8.256599754367283e-05
-0.4847339926564018,-0.4847339926564018,0.9999230803854745,8.148985086644323e-05
-0.48459538899260224,-0.48459538899260224,0.9997306221132384,8.682266460731744e-05
-0.4845130328416417,-0.4845130328416417,1.0001587129342078,8.589559315473663e-05
-0.48435242995401495,-0.48435242995401495,1.000048980936399,8.543845072677953e-05
-0.48418009941888157,-0.48418009941888157,1.0000288269825963,8.302540121074545e-05
-0.4840611151572375,-0.4840611151572375,0.9998547217837345,8.372646065653161e-05
-0.48399553814524554,-0.48399553814524554,0.9999505220071432,8.434421322501221e-05
-0.4837942012825806,-0.4837942012825806,1.0000574719783968,8.157371671866533e-05
-0.4836428624737891,-0.4836428624737891,0.9999733791497128,8.216447897226397e-05
-0.48352552233773166,-0.48352552233773166,0.9999849552005771,8.17349621338362e-05
-0.4834564726195822,-0.4834564726195822,1.0000146908570482,8.267497575817728e-05
-0.4833529036637628,-0.4833529036637628,1.0002371823954292,8.267226631974197e-05
-0.4832425195832911,-0.4832425195832911,0.9999893734402029,8.280611589083102e-05
-0.483083330291629,-0.483083330291629,1.0000107314351157,8.235835972172981e-05
-0.4829443900147453,-0.4829443900147453,1.0000622131539278,8.161771005955271e-05
-0.48286183098898616,-0.48286183098898616,1.0002123895734982,8.224509774601696e-05
-0.4827769606752554,-0.4827769606752554,1.0000142310805253,8.58657384407041e-05
-0.4825978039101756,-0.4825978039101756,1.0000196334264984,8.37660050397539e-05
-0.48241072100790916,-0.48241072100790916,0.9999957220607254,8.20129176523173e-05
-0.48228059038738136,-0.48228059038738136,1.0001079313642023,8.42270179499806e-05
-0.48218187245875016,-0.48218187245875016,1.0000381850865836,8.162909205722282e-05
-0.48201205531149754,-0.48201205531149754,1.000063594723874,8.146250606488307e-05
-0.48183048142891494,-0.48183048142891494,1.0000957705123612,8.169703256604524e-05
-0.4816667770384811,-0.4816667770384811,1.0000225114618084,8.495680667603831e-05
-0.48155505916511177,-0.48155505916511177,0.9999617347997788,8.244530974653878e-05
-0.48143084576149703,-0.48143084576149703,1.0001056304844036,8.266609159167975e-05
-0.481350830932206,-0.481350830932206,1.0000224628478926,8.332385551710273e-05
-0.48124138526036403,-0.48124138526036403,0.9999557732727424,8.972083804044082e-05
-0.4811583020062244,-0.4811583020062244,1.0000360595030435,8.206480355338181e-05
-0.48104994643799726,-0.48104994643799726,1.0000494784251959,8.186234718542793e-05
-0.48098588571083384,-0.48098588571083384,1.0000226494883635,8.374836730997224e-05
-0.4808241668230039,-0.4808241668230039,1.0000427267506595,8.50069661543563e-05
-0.4806854508344259,-0.4806854508344259,0.9998445562337679,8.235907016447634e-05
-0.4805522394512082,-0.4805522394512082,1.0001763870676768,8.35637184836994e-05
-0.48042250271100784,-0.48042250271100784,0.9998554669914366,8.345356338047919e-05
-0.48023718342519717,-0.48023718342519717,0.9998659489969445,8.217316704363125e-05
-0.48007716027859715,-0.48007716027859715,1.000129466279244,8.179852759430001e-05
-0.4798665430629626,-0.4798665430629626,1.000141377617936,8.224837010617088e-05
-0.4797319871104264,-0.4797319871104264,0.9999968001777365,8.229231771388254e-05
-0.47961492568574615,-0.47961492568574615,0.9999028292601029,8.30855318794691e-05
-0.4794493629582576,-0.4794493629582576,1.0000237480567609,8.380991257484411e-05
-0.4793469043121149,-0.4793469043121149,0.9998658628921003,8.349893519783862e-05
-0.4792039470834425,-0.4792039470834425,1.0000472772996432,8.485380976281208e-05
-0.4791201884225302,-0.4791201884225302,0.9999610902313953,8.314892566879689e-05
-0.4789189065209939,-0.4789189065209939,1.0001137164860194,8.37018343299776e-05
-0.4788595946523856,-0.4788595946523856,1.0000432272603865,8.390484755784719e-05
-0.47873093550297197,-0.47873093550297197,1.000003820993438,8.143114742796735e-05
-0.4785487736829964,-0.4785487736829964,0.9998328512120663,8.367257728634314e-05
-0.47842995004102706,-0.47842995004102706,1.0001685659793738,8.386162987782255e-05
-0.47827662747658906,-0.47827662747658906,1.0000558695121833,8.425382469780349e-05
-0.4781376768092741,-0.4781376768092741,1.0000068389167793,8.100457947172725e-05
-0.477943390901055,-0.477943390901055,0.9999574732663419,8.290510527266894e-05
-0.4778033716858772,-0.4778033716858772,0.9999681629763778,8.472235991345064e-05
-0.4777062148161349,-0.4777062148161349,1.0000282371155522,8.186224094559297e-05
-0.4776140171168663,-0.4776140171168663,0.9999875956621895,8.433893814767051e-05
-0.47748111005930693,-0.47748111005930693,1.000017074096402,8.151285668668797e-05
-0.47733242705799056,-0.47733242705799056,1.0000935362522845,8.645323377640219e-05
-0.47722279666559186,-0.47722279666559186,0.9998240974379236,8.188675816609529e-05
-0.4771188021550188,-0.4771188021550188,0.9999656732707622,8.357733777338897e-05
-0.4769933869451052,-0.4769933869451052,1.0000645735889422,8.310017565207988e-05
-0.47683502761792623,-0.47683502761792623,0.999980608224605,8.28661371242371e-05
-0.47668874022492674,-0.47668874022492674,0.9999473402106599,8.27164973505817e-05
-0.4765497941982176,-0.4765497941982176,1.0001291754982495,8.395242268646711e-05
-0.4764394791716768,-0.4764394791716768,0.9999230074405124,8.247964298082712e-05
-0.47639586557488656,-0.47639586557488656,1.000047394620338,8.218217792525849e-05
-0.476190677859995,-0.476190677859995,1.000051294498808,8.28583367657131e-05
-0.47608751431616836,-0.47608751431616836,1.0000545015716575,8.264831152264305e-05
-0.4759484338705079,-0.4759484338705079,0.9999773049747256,8.593271309834676e-05
-0.47584119760504107,-0.47584119760504107,0.999990702182133,8.465098956401608e-05
-0.47565502611614646,-0.47565502611614646,0.9999784571376278,8.229752535434439e-05
-0.4754976086682291,-0.4754976086682291,1.0000332353706929,8.159605985465331e-05
-0.47537737148668385,-0.47537737148668385,1.000085429959871,8.213145035086283e-05
-0.4752264433758683,-0.4752264433758683,1.00003798723425,8.324859693801146e-05
-0.4750907808273041,-0.4750907808273041,0.9999607648002963,8.499569373032412e-05
-0.4748421244556084,-0.4748421244556084,1.0000876022738434,8.326256728235299e-05
-0.4747674323931278,-0.4747674323931278,0.9999941088550524,8.252904722655318e-05
-0.4747035772572417,-0.4747035772572417,0.9998994951426642,8.514217662766772e-05
-0.4745772479451261,-0.4745772479451261,0.9999972176445372,8.19912166824652e-05
-0.4744052288537205,-0.4744052288537205,0.9998594124875236,8.298893447236642e-05
-0.47428471736129724,-0.47428471736129724,0.9999372271442628,8.222312402392454e-05
-0.47421172367903636,-0.47421172367903636,0.9999093924256892,8.202115423465447e-05
-0.47407532092402105,-0.47407532092402105,0.9999672722465098,8.337610678754952e-05
-0.4738618389266776,-0.4738618389266776,0.9999521670297856,8.292468045726136e-05
-0.47373051126705834,-0.47373051126705834,1.0001791283647148,8.154463997239023e-05
-0.4736571845176513,-0.4736571845176513,0.9999751294990944,8.078163053759448e-05
-0.4735437006489519,-0.4735437006489519,0.9998901913442877,8.177554552646322e-05
-0.47341819760622456,-0.47341819760622456,0.9998859819637259,8.246084833377024e-05
-0.47325941851522657,-0.47325941851522657,0.9999426042186759,8.363621107196676e-05
-0.47308445228482016,-0.47308445228482016,0.9997828695647588,8.097514218147452e-05
-0.47297556342964525,-0.47297556342964525,0.9999281357683956,8.217084087236602e-05
-0.47289670141253737,-0.47289670141253737,1.000005922226913,8.400022016099594e-05
-0.472815204494691,-0.472815204494691,0.9999592582871101,8.362238197957662e-05
-0.47261496183418783,-0.47261496183418783,0.9999053443303634,8.361729652072659e-05
-0.4725490929864463,-0.4725490929864463,0.999883593177058,8.508524533858237e-05
-0.47243930301629006,-0.47243930301629006,1.000060164992664,8.22221067465192e-05
-0.47236545474879676,-0.47236545474879676,0.9999810926171617,8.180995704691938e-05
-0.472294449180481,-0.472294449180481,0.9999104299769943,8.546806468919857e-05
-0.472184419605037,-0.472184419605037,0.99995975150209,8.23043332279277e-05
-0.4720939973994973,-0.4720939973994973,0.9999700064368475,8.202001641751346e-05
-0.4719430695324263,-0.4719430695324263,1.0000200123726373,8.204191961562575e-05
-0.47184874114900593,-0.47184874114900593,1.0001832416182985,8.23544546785444e-05
-0.471790194924688,-0.471790194924688,0.9999673953979762,8.197819912452054e-05
-0.47166553459028365,-0.47166553459028365,1.0001790657199858,8.297662806459609e-05
-0.4715398962340259,-0.4715398962340259,1.0000479997269096,8.481851018750397e-05
-0.47138531956588847,-0.47138531956588847,1.0000939682025642,8.345295687378707e-05
-0.4712290565061267,-0.4712290565061267,1.000017822033766,8.146783906627528e-05
-0.4710893572875648,-0.4710893572875648,0.9999639527971198,8.53290662214376e-05
-0.47100579671096054,-0.47100579671096054,0.9999361582777071,8.387675603562313e-05
-0.4707579669826373,-0.4707579669826373,1.0001015637599504,8.10930767077117e-05
-0.47054128931413286,-0.47054128931413286,1.000079578129241,8.286320724825097e-05
-0.47040747759238,-0.47040747759238,0.999952629811261,8.453292923259926e-05
-0.47029167280416007,-0.47029167280416007,0.9999695489911721,8.252159205830865e-05
-0.4701905735688342,-0.4701905735688342,0.9999834044210558,8.19164534012464e-05
-0.47002198225491154,-0.47002198225491154,0.9999293193135618,8.157301425434411e-05
-0.4699470773754001,-0.4699470773754001,1.0001546557770182,8.268195255960363e-05
-0.46987195932961184,-0.46987195932961184,0.9998366806996632,8.159748908310694e-05
-0.4698004423378734,-0.4698004423378734,0.9998502154698254,8.254733166490559e-05
-0.4696085750641942,-0.4696085750641942,1.00004921655963,8.580508886601635e-05
-0.46950669039215426,-0.46950669039215426,1.0000262994125917,8.248037162092633e-05
-0.46939425936870977,-0.46939425936870977,0.9999042221366337,8.209483394838661e-05
-0.46926580374420157,-0.46926580374420157,1.0000449533336242,8.467575657092686e-05
-0.4691143985306553,-0.4691143985306553,0.9999044404094702,8.219290604351403e-05
-0.4689779376683873,-0.4689779376683873,0.9999469549287197,8.068235639013742e-05
