time,time,flux,flux_err
-0.49949891757860315,-0.49949891757860315,0.9987453017287677,0.0012182983216161485
-0.49713691539072896,-0.49713691539072896,1.0019811366634008,0.0011257585798295916
-0.4953787077094603,-0.4953787077094603,0.9984743712599016,0.0011158933031830966
-0.49416567654552634,-0.49416567654552634,0.9984555775265435,0.001122778580811107
-0.4927050427817449,-0.4927050427817449,0.9981910988683997,0.0011373189036621616
-0.4912637917987013,-0.4912637917987013,1.0004635080295678,0.0011219463306117385
-0.4896806518372614,-0.4896806518372614,1.0008150390131592,0.0011681610030359576
-0.48665113343522537,-0.48665113343522537,0.9998202032883509,0.0011251746925342036
-0.4854805216040404,-0.4854805216040404,0.9998710976200617,0.0011222899256755822
-0.48435106580072895,-0.48435106580072895,0.9998762885139424,0.00112105336798088
-0.48279822668409905,-0.48279822668409905,0.9978571441903117,0.0011199137760607935
-0.48155600509562646,-0.48155600509562646,0.9995815309365822,0.0011346188875013383
-0.4800743406849506,-0.4800743406849506,1.0009677066037423,0.0011550346941634761
-0.47767325100357994,-0.47767325100357994,0.9982649745339229,0.001221184272649472
-0.4764372843244928,-0.4764372843244928,0.9995784950994049,0.0011088751577287667
-0.47556255222007165,-0.47556255222007165,1.000780173730011,0.0011204392801315735
-0.47428688701984356,-0.47428688701984356,0.9989936180148005,0.0011272794082323409
-0.47315991269133517,-0.47315991269133517,0.9993447143938046,0.0011399947929255129
-0.47160016308771446,-0.47160016308771446,1.0017825185254072,0.0012562399554108252
-0.46982834443770116,-0.46982834443770116,0.9979390986316122,0.0011244392369813348
-0.46780904654006006,-0.46780904654006006,0.999121819114184,0.001118299653079178
-0.46674735579945265,-0.46674735579945265,1.0012346523973907,0.0011150767302366227
-0.46557038267783357,-0.46557038267783357,1.0009848135394241,0.0011269922014308681
-0.46432932258685466,-0.46432932258685466,1.0001335188953304,0.001139873994951046
-0.46298715911470933,-0.46298715911470933,0.9978125228268168,0.0011244041217295146
-0.4614305572613375,-0.4614305572613375,0.9972086470065621,0.0012223640975873153
-0.4594361645868048,-0.4594361645868048,1.000087192585183,0.001206904426067564
-0.45794797627604567,-0.45794797627604567,0.9997685229801299,0.0011104711537626483
-0.45656221660174195,-0.45656221660174195,1.0000911812007165,0.001120181057589305
-0.4555066704044293,-0.4555066704044293,0.997442501242863,0.001155898089393159
-0.4543599956166872,-0.4543599956166872,0.9959541788501003,0.0011134674800249874
-0.4525539824891894,-0.4525539824891894,1.0006267733669572,0.0012010186892348765
-0.45051483179559,-0.45051483179559,1.002072850791311,0.0011939785238442551
-0.44893888646474805,-0.44893888646474805,0.9981477798283096,0.0011104696164414766
-0.44758699543308467,-0.44758699543308467,0.9991909292150654,0.0011207855066188782
-0.4465064349504246,-0.4465064349504246,0.9992202854789634,0.00112209049929661
-0.44565733658091633,-0.44565733658091633,0.9998119890372259,0.001145807969961559
-0.4439487376039324,-0.4439487376039324,1.0022738020096562,0.0011926022114502658
-0.44175834129127906,-0.44175834129127906,1.000276852340114,0.0011744300858121195
-0.4402030607001507,-0.4402030607001507,0.9982257049585236,0.001126709458057244
-0.43906266038611647,-0.43906266038611647,0.9986555793859295,0.001120760864409663
-0.4380384462012444,-0.4380384462012444,0.997934364119294,0.0011205753461542563
-0.43697861801920224,-0.43697861801920224,0.9996078220152524,0.0011483263226001743
-0.43587443160795375,-0.43587443160795375,0.9997108642488817,0.0011311847760213443
-0.43389299181071694,-0.43389299181071694,1.0006154968376195,0.0011736596879507498
-0.43099102962223695,-0.43099102962223695,0.9981303317379135,0.0011327751870732912
-0.42956414830696305,-0.42956414830696305,0.9997318579273848,0.001118951691160023
-0.4283210316141776,-0.4283210316141776,1.001861318360652,0.0011185807480362066
-0.4271682701699319,-0.4271682701699319,0.9998305958275866,0.0011481310084319445
-0.4256353475706419,-0.4256353475706419,1.0024345449506054,0.00113697126794502
-0.4231408434869081,-0.4231408434869081,1.0009618579837536,0.0011635046068097065
-0.4207598290791793,-0.4207598290791793,0.9997943432936344,0.001122348901023822
-0.4195645238563884,-0.4195645238563884,0.9995696595258856,0.0011179989869532364
-0.41843115910960477,-0.41843115910960477,1.0019598352426313,0.0012281326778527041
-0.4167505556579272,-0.4167505556579272,0.9984844576588696,0.00112691533699092
-0.41539356010616757,-0.41539356010616757,0.9987194652934438,0.0012168818820118006
-0.41303159279341345,-0.41303159279341345,1.0008511327447702,0.001126108358723044
-0.41132594200462336,-0.41132594200462336,1.0018224263351851,0.0011156717882547574
-0.410302777603647,-0.410302777603647,0.9978704909940543,0.0011184668448786274
-0.40899380889022724,-0.40899380889022724,0.997685522117834,0.001140318674514398
-0.40735265379116753,-0.40735265379116753,0.9998944246209355,0.001117593455468867
-0.40609733653400326,-0.40609733653400326,1.0007550029473715,0.001168233423582118
-0.40297574861178875,-0.40297574861178875,0.9991257392452091,0.001132461761927365
-0.4015939880831866,-0.4015939880831866,1.0011279962663504,0.0011127456262318269
-0.4004829719051486,-0.4004829719051486,0.9998231231183231,0.0011202983128145085
-0.3990365965109959,-0.3990365965109959,0.9992783700551063,0.001122329194344808
-0.39766947285243076,-0.39766947285243076,1.002751652193767,0.001135073783023747
-0.3963745498112985,-0.3963745498112985,1.0000607902097811,0.0011551788300273914
-0.39420983638920004,-0.39420983638920004,0.9988132000038192,0.0012197761166796643
-0.39274785064699247,-0.39274785064699247,0.9989065927032806,0.0011107053995919438
-0.39175456366574507,-0.39175456366574507,0.9992459362517907,0.0011236356330696245
-0.3907284135850205,-0.3907284135850205,0.9967553941670697,0.0011269923456329527
-0.3894862699242367,-0.3894862699242367,0.9996276239861046,0.0011535112510362834
-0.3881421671503631,-0.3881421671503631,0.9992434337275451,0.001114248302027969
-0.3865888333835755,-0.3865888333835755,0.9988351379352343,0.0012428546456788006
-0.3843204221913766,-0.3843204221913766,0.9976094590218814,0.0011326346061432946
-0.38307036898768276,-0.38307036898768276,0.9987443138652488,0.0011070723677552223
-0.38199511710117806,-0.38199511710117806,1.0028503455330666,0.0011148814961420997
-0.38066582185347214,-0.38066582185347214,0.9991646044063195,0.0011611942693620194
-0.3795155361156503,-0.3795155361156503,0.9998594214586767,0.001115399201123831
-0.3779841513503925,-0.3779841513503925,1.0001434962117455,0.0012197677825043897
-0.37609075524742364,-0.37609075524742364,0.9994191235255091,0.0012005353968231615
-0.3743952850032656,-0.3743952850032656,1.0009778124211963,0.0011195979891192671
-0.3730114261677954,-0.3730114261677954,0.996691546821341,0.001116277353587672
-0.3717954848711088,-0.3717954848711088,0.998473227563091,0.001121712445405079
-0.3708138856352889,-0.3708138856352889,1.0012109737420574,0.0011428839691825143
-0.36910600449700726,-0.36910600449700726,0.9988150475512612,0.0012057838239651014
-0.3671968748036306,-0.3671968748036306,0.9999794052823068,0.0011176225723330377
-0.36548481974896274,-0.36548481974896274,0.9986378517568187,0.0011922656451909166
-0.36399526074674216,-0.36399526074674216,0.9976860229068626,0.0011116303729065114
-0.36278621350575124,-0.36278621350575124,1.0013949987255855,0.0011241776384150073
-0.36170088572616804,-0.36170088572616804,1.0000684230683583,0.0012857202109556134
-0.3606645346197183,-0.3606645346197183,0.9991967882832041,0.001118749515127025
-0.3585404784105776,-0.3585404784105776,0.9987886637144937,0.001182960899416372
-0.35665453362089466,-0.35665453362089466,0.9996273238748081,0.0011827207766464277
-0.35535805199178866,-0.35535805199178866,0.9992524497895436,0.0011218949545526602
-0.35441953730696696,-0.35441953730696696,1.000872222803266,0.0011262037309438858
-0.3532701288786484,-0.3532701288786484,1.0012805974917964,0.0011140331167296996
-0.3523257633816684,-0.3523257633816684,0.9984843425127453,0.0011521733490693136
-0.35058114147323066,-0.35058114147323066,1.0019722453400834,0.0011850856967716402
-0.34840981501693025,-0.34840981501693025,0.9997006499187681,0.0011243945599159785
-0.3461741710198112,-0.3461741710198112,0.9983642026771585,0.0011299838612154184
-0.345006413912779,-0.345006413912779,1.0000418022940383,0.0011200363971660757
-0.3436769008018018,-0.3436769008018018,1.0014505087619519,0.0011405833319745812
-0.3425154064585513,-0.3425154064585513,0.99920901518489,0.0011162089441219616
-0.3409975409573235,-0.3409975409573235,0.9981990601856904,0.0011796299158336877
-0.337621026654233,-0.337621026654233,0.9979149512151272,0.001129102252246178
-0.3361960708440165,-0.3361960708440165,0.9997800319076735,0.0011137248590943909
-0.3349772405825206,-0.3349772405825206,0.9961486808815166,0.0012090241049458785
-0.333741478498996,-0.333741478498996,0.9958642861379843,0.0011401435633555481
-0.3319795287476154,-0.3319795287476154,0.9979231168112772,0.0011788721982042586
-0.3306219097459689,-0.3306219097459689,0.9989629444473301,0.0011648027792034977
-0.32793939554831014,-0.32793939554831014,0.9988013819114407,0.0011348927863854895
-0.32675076673549486,-0.32675076673549486,0.9974439840059366,0.0011134758754777116
-0.3254036237238324,-0.3254036237238324,0.9994445401043986,0.0011207888444527672
-0.3238488513699849,-0.3238488513699849,0.9995129106532236,0.0011262232794868226
-0.3225835344943334,-0.3225835344943334,1.002134016053817,0.001135931234681725
-0.32019660561636554,-0.32019660561636554,0.9999721617849348,0.0011675883668471603
-0.3179053706066043,-0.3179053706066043,1.0018435328818176,0.0011127964932917504
-0.31691082283723515,-0.31691082283723515,0.9994502412326944,0.0011229339135558215
-0.31588649299083044,-0.31588649299083044,0.9982987800630042,0.001130068968496544
-0.3143004636935075,-0.3143004636935075,1.0000638429496456,0.0011186469886060942
-0.3129299090462155,-0.3129299090462155,0.998367245529443,0.0011601951336319327
-0.31088101014320274,-0.31088101014320274,1.0010827464501857,0.0011228126311643599
-0.30917400167745657,-0.30917400167745657,0.9995672370869262,0.0012109749762642405
-0.3080434088296897,-0.3080434088296897,1.001102919770348,0.0011152130094501552
-0.3071153854805743,-0.3071153854805743,1.001966022440019,0.0011198415096993768
-0.30582473723989095,-0.30582473723989095,0.9997175575649692,0.0011611250867656288
-0.3046711781884369,-0.3046711781884369,1.000536623506553,0.0011146674468223965
-0.30314003744497314,-0.30314003744497314,0.996992000212759,0.0012397003357561532
-0.3011134703927382,-0.3011134703927382,0.9973736064465818,0.001132030041515208
-0.2995178970028064,-0.2995178970028064,0.9997373477145945,0.0011146481099024075
-0.2983008121096645,-0.2983008121096645,0.9998771877400603,0.0011135010218096043
-0.2970971367358288,-0.2970971367358288,1.0002377460235743,0.0011262561357787881
-0.2959705115696124,-0.2959705115696124,1.0001758243040557,0.0011449552108951987
-0.2944065490286448,-0.2944065490286448,0.9996270019250332,0.0011475441735482477
-0.2927607255965995,-0.2927607255965995,0.998557299466835,0.0011968357789484765
-0.2909289363480639,-0.2909289363480639,1.000013349520923,0.0012069232467916682
-0.28953779865041723,-0.28953779865041723,0.9991284122612054,0.0011060476941012064
-0.2883517416834366,-0.2883517416834366,1.0003101290172054,0.0011200124839753716
-0.2872961433509772,-0.2872961433509772,0.9992730549784461,0.0011550328701835611
-0.28614990831629256,-0.28614990831629256,1.0012097336543975,0.0011140746600340598
-0.28434374887365266,-0.28434374887365266,0.9999527388928143,0.0011973831588684759
-0.2823036977504671,-0.2823036977504671,1.0007971314196074,0.0011916338353488052
-0.2807286369934445,-0.2807286369934445,1.0002407961930626,0.001111512606267052
-0.2793765753944172,-0.2793765753944172,1.0001317836378885,0.0011216187407112087
-0.27824606647700423,-0.27824606647700423,0.9977840992322422,0.0011204735063638587
-0.2769295019636047,-0.2769295019636047,0.9999083750221228,0.0011577882587803057
-0.27494505237555134,-0.27494505237555134,1.00037628307081,0.0011793762683677087
-0.27277114078897285,-0.27277114078897285,1.0005700288493191,0.0011820838755635876
-0.27148701792320934,-0.27148701792320934,0.9980507853070513,0.0011290914019719965
-0.27047917853997205,-0.27047917853997205,0.9991955832960866,0.0011140035496957413
-0.26941770475314114,-0.26941770475314114,0.9997950789399329,0.0011233132931095721
-0.2683693150713225,-0.2683693150713225,1.0023739385269743,0.0011463098395917196
-0.26691845725290475,-0.26691845725290475,0.9994423636096448,0.0011397993563955363
-0.26453420231773633,-0.26453420231773633,1.0005553434626204,0.0011681217594128753
-0.26206889878740186,-0.26206889878740186,0.997778354341223,0.001129698371703632
-0.26094890291860795,-0.26094890291860795,0.9975765264474082,0.0012602668187992913
-0.25982466897476114,-0.25982466897476114,1.0003967637443243,0.0011159108086010842
-0.2586871815066843,-0.2586871815066843,0.9981774534873882,0.0011387759553029213
-0.25713781141676006,-0.25713781141676006,0.9995680991290555,0.0011830418920721975
-0.2545347766747,-0.2545347766747,0.9985259535029309,0.0011262010152838678
-0.25254912963791865,-0.25254912963791865,0.9994772318860576,0.0011222610843207676
-0.2513542272638006,-0.2513542272638006,0.9997890552342328,0.0011178613996739874
-0.25022028362363924,-0.25022028362363924,0.9952398334756491,0.0012262710918065332
-0.2485404988474329,-0.2485404988474329,0.9998621109154779,0.0011255283713123196
-0.24718284577320446,-0.24718284577320446,1.0026428739254982,0.0012147414754297993
-0.24482095025523448,-0.24482095025523448,0.9989316682242736,0.0011251973400831664
-0.24306298057490494,-0.24306298057490494,0.9998164634454682,0.0011151536001848855
-0.24185007758787833,-0.24185007758787833,0.9975404953123824,0.0011223711292377015
-0.2403891630783619,-0.2403891630783619,0.996897685898859,0.0011358251063175143
-0.2389487215128611,-0.2389487215128611,0.9985687085055872,0.001120380368978505
-0.23736466125919833,-0.23736466125919833,1.0018706635003536,0.001166248480132236
-0.23433495354183834,-0.23433495354183834,1.001315040096426,0.0011256192089504533
-0.23319993448385504,-0.23319993448385504,0.9993988692526663,0.0011170345656687152
-0.23227256844693328,-0.23227256844693328,0.9979548731452258,0.001119925164899817
-0.23082630206772592,-0.23082630206772592,1.0003625706676835,0.0011219962231393652
-0.22934157413328649,-0.22934157413328649,1.001995154265837,0.0011327432066325787
-0.22775876400919515,-0.22775876400919515,1.00109414712522,0.001153559318363959
-0.22565082624787464,-0.22565082624787464,0.995279280122632,0.0012192954965447307
-0.22430283502399107,-0.22430283502399107,1.0009857244522997,0.0011052611784416475
-0.22339117156880092,-0.22339117156880092,0.999487650179311,0.0011252571450944032
-0.22225555294862714,-0.22225555294862714,1.0012037622731258,0.0011279964805310887
-0.22112721408557262,-0.22112721408557262,0.9989286308065453,0.0011459680239267755
-0.2195630458641972,-0.2195630458641972,0.9996672652724191,0.001154283856119672
-0.21791783896260314,-0.21791783896260314,0.9999600920309794,0.001211973016598896
-0.21580570731675836,-0.21580570731675836,1.0002824761958955,0.001123325688990482
-0.21443209939898225,-0.21443209939898225,0.9985395085316904,0.0011134300074157723
-0.21325456450358615,-0.21325456450358615,0.9988290877623488,0.0011258970791923916
-0.21216967235304765,-0.21216967235304765,1.0019778009193319,0.0011514183748760538
-0.21099649585739827,-0.21099649585739827,1.0010374571995555,0.0011168958183977308
-0.20950005343693193,-0.20950005343693193,0.9984969438508751,0.0012171547979607622
-0.20746494655468267,-0.20746494655468267,0.9998612835843804,0.001203379347507832
-0.2058850487905147,-0.2058850487905147,1.0006807224533885,0.0011079223857684418
-0.204533908823214,-0.204533908823214,1.000375780525222,0.001121817321141694
-0.20340439465217058,-0.20340439465217058,0.999392506080303,0.0011238678169440573
-0.2023260192181624,-0.2023260192181624,1.000178619362625,0.0011351850998264218
-0.20057580256980145,-0.20057580256980145,0.9992767720303031,0.0012058156899824011
-0.19864730021945434,-0.19864730021945434,1.001831354906929,0.0011205600534021803
-0.19727402797871035,-0.19727402797871035,0.999423040155143,0.0011900432950931708
-0.19578504638848243,-0.19578504638848243,1.0017692686792172,0.0011124074594806568
-0.19457566916244104,-0.19457566916244104,1.000356816384565,0.0011238678443106043
-0.19348471899793368,-0.19348471899793368,0.9984929673146403,0.0011482306193886663
-0.19163313030076096,-0.19163313030076096,0.9987865487218966,0.0011907228819190525
-0.1894421802237048,-0.1894421802237048,1.0006691788218471,0.0011728222011604201
-0.18788746129648642,-0.18788746129648642,1.0004044183725527,0.001127357162733529
-0.18674685998485074,-0.18674685998485074,1.0014836350422853,0.001120245287040127
-0.1857230268054991,-0.1857230268054991,0.9981720535498113,0.0011194549916463347
-0.18466259032793458,-0.18466259032793458,1.0002688948551501,0.0011475834066095691
-0.18355906331635197,-0.18355906331635197,0.9993742803123797,0.001129881397116067
-0.18157738259105827,-0.18157738259105827,1.0003793508394074,0.001171546112958716
-0.1786748630402144,-0.1786748630402144,0.9993325008756987,0.0011326899558348736
-0.1772484298533527,-0.1772484298533527,0.9987991118872313,0.001118629474282266
-0.17600528980401578,-0.17600528980401578,0.9964292116191393,0.0011186755953530396
-0.17485259958775715,-0.17485259958775715,0.9999424711849061,0.0011474920576062808
-0.1733199055081059,-0.1733199055081059,0.9989791641438581,0.0011369057412247891
-0.17082513946588734,-0.17082513946588734,1.0010911555340898,0.001163777121043841
-0.16844378076129943,-0.16844378076129943,1.0022850510317862,0.0011223483962700472
-0.1672490799341176,-0.1672490799341176,0.9981085338923525,0.0011189213313664305
-0.1661148462233541,-0.1661148462233541,0.9988621661906143,0.0012261425283026646
-0.16443547154485713,-0.16443547154485713,0.9997007851247066,0.0011244224718947257
-0.16325984311770297,-0.16325984311770297,0.9988958818801723,0.0011702602841056767
-0.1613336360984249,-0.1613336360984249,0.9983163080359333,0.0011665845081641132
-0.15917964201726137,-0.15917964201726137,0.9993653214226947,0.0011223815883423405
-0.1579873535381921,-0.1579873535381921,0.9981120330732327,0.0011178082365756853
-0.15667784351680894,-0.15667784351680894,1.001097453867023,0.0011389775832915442
-0.1550375300408632,-0.1550375300408632,1.001358023776316,0.0011171164730592149
-0.15378156421575112,-0.15378156421575112,1.0003367685336195,0.0011662384358695234
-0.15065917179745156,-0.15065917179745156,1.0012290207958912,0.0011324827045483337
-0.14927851585962343,-0.14927851585962343,0.997775416731684,0.0011126530641278431
-0.14840363383482327,-0.14840363383482327,1.0007239938361208,0.0011204464222052625
-0.14702039292023983,-0.14702039292023983,1.0021073520673538,0.001128889249080223
-0.14531650463613915,-0.14531650463613915,0.9985173913010582,0.0011236010816939859
-0.14365357302085613,-0.14365357302085613,1.0000524992003663,0.0011531459481226277
-0.1418446893498185,-0.1418446893498185,0.9981614104374117,0.0012189370113464256
-0.14043217917642323,-0.14043217917642323,1.0013862735964998,0.0011098923746601641
-0.13943923208789782,-0.13943923208789782,0.9999088387006271,0.0011232342672848922
-0.13841258215397828,-0.13841258215397828,0.998320117749197,0.0011260661646397526
-0.13717050696213845,-0.13717050696213845,1.0018140430306879,0.001143709760912609
-0.13582738121258445,-0.13582738121258445,0.998877488908479,0.0011234777603829676
-0.13427293659042333,-0.13427293659042333,1.0009619979955828,0.001237081171370589
-0.13200408290867927,-0.13200408290867927,0.9994907395150874,0.0011320119532295136
-0.13059799281181766,-0.13059799281181766,1.000589227096739,0.0011059188609601862
-0.12940413408359747,-0.12940413408359747,0.997896982174183,0.001122191646277295
