time,time,flux,flux_err
-0.4999250757151458,-0.4999250757151458,0.9999899009571177,0.00022030288669973498
-0.4998337132798042,-0.4998337132798042,1.00000467187758,0.00023196795066326997
-0.49968089896283346,-0.49968089896283346,1.0000458133229604,0.00021254637502829524
-0.49959433012190857,-0.49959433012190857,1.0001397378818495,0.000218803021120989
-0.4995262077078223,-0.4995262077078223,1.0003184904246614,0.0002108919466081446
-0.49944423736815224,-0.49944423736815224,1.0000660515499704,0.00021728986326321762
-0.4992567395514925,-0.4992567395514925,0.9998577015818197,0.0002432791009672696
-0.49916491907642924,-0.49916491907642924,1.0001768508278095,0.00022315089086864925
-0.4990052357141394,-0.4990052357141394,0.9999545660190912,0.00021791603044864013
-0.4988645618570445,-0.4988645618570445,1.0000912964650603,0.00022657347644254423
-0.49878306231767056,-0.49878306231767056,1.000500408595735,0.00021542899179478954
-0.49872635733045173,-0.49872635733045173,0.9997008272708994,0.00021981881974975225
-0.498647967409488,-0.498647967409488,1.000048215925165,0.00021838985218229634
-0.4985460545161914,-0.4985460545161914,1.0001282756936347,0.00021489933213788903
-0.4984160247287946,-0.4984160247287946,1.0003276018761347,0.00024025434911161144
-0.4983080249374325,-0.4983080249374325,1.0001106147539496,0.00021485905336409444
-0.49821713191631717,-0.49821713191631717,1.0000513241887194,0.0002265676392074663
-0.498019493038737,-0.498019493038737,0.9998668830554942,0.00021583248324977774
-0.49785251362263805,-0.49785251362263805,1.0001449702584058,0.00021199066365262562
-0.49775400600919967,-0.49775400600919967,1.0001223760601263,0.00020251106816939878
-0.4976611319383665,-0.4976611319383665,1.0000411580804673,0.0002469826667207987
-0.49755620579162496,-0.49755620579162496,0.9998780382889627,0.00021686400129372944
-0.4974812320135243,-0.4974812320135243,1.0002225387202803,0.0002469767484370298
-0.49741845943790397,-0.49741845943790397,0.9999853930715489,0.00024244148494012655
-0.497295669693267,-0.497295669693267,1.0000164123874877,0.00022184351286343908
-0.49717625777775537,-0.49717625777775537,0.9999437593259598,0.00020907485500068593
-0.49705071442658666,-0.49705071442658666,1.0002799948555106,0.00021295343771081626
-0.4969043634533591,-0.4969043634533591,0.9997514220551078,0.00022910728714301245
-0.496840833985334,-0.496840833985334,0.9999401011471443,0.0002252222620769058
-0.49673952283919787,-0.49673952283919787,0.9997312394695589,0.0002113112059633578
-0.49662446217844264,-0.49662446217844264,0.9999761242317498,0.0002219744307234162
-0.496506789936393,-0.496506789936393,1.0000603347501875,0.00020390940668462936
-0.49638940027944045,-0.49638940027944045,1.0001911411821036,0.0002245571087308573
-0.49626336719084063,-0.49626336719084063,1.000218021122699,0.00022854387266595268
-0.49606023217347683,-0.49606023217347683,1.000437090931029,0.00020963325370518685
-0.49599586725234984,-0.49599586725234984,1.0001992251488505,0.0002375592067903993
-0.4958531835021859,-0.4958531835021859,1.0001588105506745,0.0002351857635951125
-0.49569205091465846,-0.49569205091465846,0.9999705011210949,0.00021540085440716706
-0.4955646938746213,-0.4955646938746213,0.9998425859038356,0.0002154549801504101
-0.4954331118744449,-0.4954331118744449,0.999917162835259,0.000216506658381047
-0.49528202700603285,-0.49528202700603285,1.000044583898121,0.00021825894047572397
-0.4952201070438605,-0.4952201070438605,0.9997593241311703,0.00021543886344412596
-0.4951329881696438,-0.4951329881696438,0.999977187012858,0.00020541907654830316
-0.49499541610275627,-0.49499541610275627,0.9997854266551733,0.00022416750903417643
-0.4948920116868976,-0.4948920116868976,0.9998901029184377,0.0002347674092077967
-0.49476740167228855,-0.49476740167228855,0.9999854299000172,0.00021017605237314525
-0.49465097725696977,-0.49465097725696977,1.0000720301985375,0.00022821766295808647
-0.49451634248252957,-0.49451634248252957,0.9999040654846306,0.00023022971659150977
-0.49441187431730216,-0.49441187431730216,0.9999568888264024,0.00022156612438424772
-0.49434166566570636,-0.49434166566570636,0.9998992681162366,0.0002223616637364815
-0.49420750083663734,-0.49420750083663734,0.9999519010950406,0.00022094820050796055
-0.49410296392379677,-0.49410296392379677,1.0001294589257148,0.00020968120573321467
-0.4939945521262416,-0.4939945521262416,1.0001053357476546,0.0002343246239541026
-0.4939196313913271,-0.4939196313913271,0.9998154393941012,0.0002067758894555786
-0.49384856595570453,-0.49384856595570453,0.9997296837680363,0.0002287113839194228
-0.49371672071283684,-0.49371672071283684,0.9997863983978246,0.00021303200953867136
-0.4935551339374797,-0.4935551339374797,0.9996512375248334,0.00022281096921444366
-0.4934439788099553,-0.4934439788099553,0.9998396545733886,0.00021504560746627406
-0.4933367307021399,-0.4933367307021399,0.9999808302635295,0.0002223202885429444
-0.49318183840223356,-0.49318183840223356,1.0000235216146227,0.0002216752242488457
-0.49308647674988604,-0.49308647674988604,0.9999135767113911,0.00024434010460063307
-0.4929750414994487,-0.4929750414994487,1.00012436949276,0.00024208928093709804
-0.4928857866732869,-0.4928857866732869,1.0002534599893227,0.00023420106819250388
-0.4927678563260997,-0.4927678563260997,0.9999429781325155,0.00022129836279163802
-0.49263881449296604,-0.49263881449296604,0.9999911048625272,0.00021578788585981898
-0.49252704626997,-0.49252704626997,1.0000721605734193,0.00021761442502197243
-0.4923929130411125,-0.4923929130411125,1.000190375655553,0.0002168211949464173
-0.4923030830723292,-0.4923030830723292,1.0002427399556955,0.00022022734832399365
-0.49219629182407515,-0.49219629182407515,0.9999662996645124,0.00021714394586525894
-0.4921299444016768,-0.4921299444016768,1.0002361882311963,0.0002115113471737835
-0.491999993265199,-0.491999993265199,1.0000321700616244,0.0002309144433490764
-0.4917956319230143,-0.4917956319230143,1.0002144629507195,0.00023837763804609758
-0.49165110899411957,-0.49165110899411957,1.0002598623472467,0.0002202418140626233
-0.49159488808218155,-0.49159488808218155,1.000255439392018,0.00023303910022547618
-0.49143011409178144,-0.49143011409178144,1.0002461383425798,0.000209122852729256
-0.4912974122278683,-0.4912974122278683,1.000122158908479,0.00023338879309169996
-0.49115979187190534,-0.49115979187190534,0.9999623806582049,0.0002202599235507403
-0.49101638481151894,-0.49101638481151894,1.000180628138461,0.00021543402907252745
-0.49091470745770494,-0.49091470745770494,1.0000400077698528,0.0002254098679431153
-0.49083989731152544,-0.49083989731152544,0.9999516865518526,0.00020813046045321646
-0.4907193292019656,-0.4907193292019656,0.9998286679272121,0.00020635810775534958
-0.4906102913279028,-0.4906102913279028,0.9995316117341251,0.00023587410165163016
-0.4904849538288545,-0.4904849538288545,1.0002106920147245,0.00023405681380065448
-0.4903050088105374,-0.4903050088105374,0.999914518751862,0.0002306156620851514
-0.49014971386277467,-0.49014971386277467,0.9997220158339257,0.00022992882801841562
-0.49006315043152426,-0.49006315043152426,0.999734356005834,0.00023152824830405461
-0.489986800924089,-0.489986800924089,0.9998486783310309,0.00022850650576416602
-0.4898570633326017,-0.4898570633326017,1.0000202891779266,0.00023015367296827218
-0.4897185702058778,-0.4897185702058778,1.0004007555930552,0.00023050553257371008
-0.4896254014478473,-0.4896254014478473,0.9998267612075121,0.00023333374529355198
-0.4895508849840553,-0.4895508849840553,0.9999941078635116,0.00021121187864388147
-0.4895169216542854,-0.4895169216542854,0.9999769212593883,0.00023304470293777666
-0.4894142151810229,-0.4894142151810229,0.9999280600372604,0.00020967878982167286
-0.4892608697686228,-0.4892608697686228,1.0000766482547128,0.00022153707635058038
-0.4891258896161162,-0.4891258896161162,1.000166145814704,0.0002151903359319704
-0.48901920674179566,-0.48901920674179566,1.0003352948053792,0.00020791785299750163
-0.4889098430234299,-0.4889098430234299,0.9999961126944903,0.00021920452147923514
-0.48880137914675287,-0.48880137914675287,0.9999273165604723,0.00023435887831391796
-0.48874077325526744,-0.48874077325526744,1.0001793124722345,0.0002421913721884227
-0.48860242036607815,-0.48860242036607815,1.0003918617049912,0.0002289494987865064
-0.48844054250221236,-0.48844054250221236,1.000265813674036,0.00022417728572718832
-0.4882645339261217,-0.4882645339261217,0.9997177362486779,0.00022752540532761526
-0.4882010920722678,-0.4882010920722678,1.0001090816550149,0.00021233976528027706
-0.48808283870166635,-0.48808283870166635,0.9998437803906608,0.00021870180996322962
-0.48798091655698955,-0.48798091655698955,1.0004713917026673,0.0002182959350970625
-0.48788484368124047,-0.48788484368124047,0.9999156083351795,0.0002113700280907252
-0.48778235262434466,-0.48778235262434466,1.0000812296357466,0.0002035554949567737
-0.4877372072485741,-0.4877372072485741,0.9998398797979572,0.00020853209944585784
-0.48764803636440773,-0.48764803636440773,1.0001834678957195,0.000220805152713121
-0.48754101504382563,-0.48754101504382563,0.9995729615327491,0.00023998941816283617
-0.4873334721138235,-0.4873334721138235,1.0001151214498052,0.0002321928027800483
-0.4872180829675926,-0.4872180829675926,0.9999649988769548,0.00023783086503693547
-0.4870328659642837,-0.4870328659642837,0.9997276709487822,0.00020623612242703422
-0.4869108179969771,-0.4869108179969771,0.9998352889570497,0.00023708104750400416
-0.48678342584025813,-0.48678342584025813,0.999946300289435,0.00021426339690669153
-0.48667582448688335,-0.48667582448688335,1.0000146913104384,0.000217667522912028
-0.4865906530576467,-0.4865906530576467,1.0002131305541857,0.00021722583347686422
-0.4864970355149126,-0.4864970355149126,0.9996390280607539,0.00020993617551725666
-0.4863836287622689,-0.4863836287622689,1.000364562874099,0.00020732772037944375
-0.48629572905483653,-0.48629572905483653,0.99989869194817,0.00022736546844802575
-0.4861953548715974,-0.4861953548715974,1.000423741953051,0.00021352998074000156
-0.4860909976552648,-0.4860909976552648,0.9996122006899679,0.00023670798642472352
-0.4859743242363038,-0.4859743242363038,1.0001041190742186,0.0002285012755250236
-0.48578839623296516,-0.48578839623296516,0.999722317162391,0.0002332768193512776
-0.48572136870789107,-0.48572136870789107,1.0000806635431183,0.00023003641536487382
-0.4856041911247303,-0.4856041911247303,1.0001509868782266,0.00021580877273942502
-0.4855150506111386,-0.4855150506111386,0.9998499129899472,0.0002212075385922645
-0.48540404797531667,-0.48540404797531667,1.0002265046781473,0.00021997334255255575
-0.4852561526800855,-0.4852561526800855,0.9998414797840842,0.00021417627502557691
-0.48514981084590547,-0.48514981084590547,0.9998475942334126,0.00022719890200667355
-0.4850248477239802,-0.4850248477239802,0.9999836324733893,0.00022275115915106161
-0.4848708776553394,-0.4848708776553394,0.99969826665585,0.00021388783403782874
-0.48468646073233684,-0.48468646073233684,1.000049173245912,0.00021811028136093318
-0.4845811170220259,-0.4845811170220259,0.9999616400848341,0.0002337885626349918
-0.484435693033447,-0.484435693033447,1.0000775613389914,0.0002312482254713106
-0.4843529663870868,-0.4843529663870868,1.000021829079777,0.00022822938421298132
-0.4842450906151498,-0.4842450906151498,0.9996827874850565,0.00021328685014197703
-0.4841595077064994,-0.4841595077064994,0.9997298831807127,0.00022278990937770775
-0.48400728312553837,-0.48400728312553837,0.9999220728812264,0.00022368766158849173
-0.4838669272699917,-0.4838669272699917,0.9999233789868794,0.00020901482525883709
-0.4837089440363343,-0.4837089440363343,1.000156089085016,0.00022706138356464738
-0.48364666781926646,-0.48364666781926646,1.0000012429802876,0.00022310627159406946
-0.4835713312306325,-0.4835713312306325,1.0000975464760935,0.00020748516304494076
-0.4834225264472479,-0.4834225264472479,1.000191767502176,0.0002027579656918471
-0.48334884309297194,-0.48334884309297194,0.9998377120015529,0.00021555816411831017
-0.48327830127309424,-0.48327830127309424,1.000206068292061,0.00021498484979861411
-0.48324883406967273,-0.48324883406967273,1.0002347641617766,0.0002297844532843806
-0.4830589892117132,-0.4830589892117132,0.99974605329439,0.0002448968819181588
-0.48288187953003214,-0.48288187953003214,1.0000810080055598,0.0002247997992470992
-0.4827021897363011,-0.4827021897363011,0.9999598214984617,0.00021425468667439612
-0.48260012472746894,-0.48260012472746894,1.0000327843942682,0.00023513196504511958
-0.4824649514092016,-0.4824649514092016,0.9998248872897685,0.00021766414145848607
-0.48239155322298755,-0.48239155322298755,0.9998696868752139,0.00021120650524352277
-0.4823077794899291,-0.4823077794899291,1.0002716530750866,0.000217610797048638
-0.48222472046982146,-0.48222472046982146,0.9999572675684366,0.00022585000580465777
-0.48206343722267775,-0.48206343722267775,0.999990344878156,0.0002172657837571305
-0.48194608204867107,-0.48194608204867107,1.0000019790143235,0.0002109499771906004
-0.4818273522796517,-0.4818273522796517,0.9998266591026678,0.00022685013443850727
-0.48167949241833413,-0.48167949241833413,0.9999562110780105,0.0002370737078106539
-0.4815638725223835,-0.4815638725223835,0.9999382400644196,0.00020864379311508768
-0.48137022335577057,-0.48137022335577057,1.0002491103605469,0.00022447023010027794
-0.4812342165663722,-0.4812342165663722,0.9998047794313789,0.00021652409807812432
-0.48112008698808495,-0.48112008698808495,0.9998418765518491,0.00021604733070598698
-0.48092453256613227,-0.48092453256613227,1.0002534699917125,0.0002157856073013155
-0.480858795583481,-0.480858795583481,1.0002252808120928,0.0002317850163376245
-0.4806979719651281,-0.4806979719651281,1.000040051434531,0.0002216302557976944
-0.48053294147539416,-0.48053294147539416,0.9999957200155105,0.00021684486073877013
-0.4803899286525848,-0.4803899286525848,1.000028580846156,0.00022485945400496703
-0.48030547776434107,-0.48030547776434107,1.000209280388693,0.00022561124715891556
-0.4801215978608525,-0.4801215978608525,1.0001569736454918,0.0002466743319462054
-0.48000592328317,-0.48000592328317,0.9999351912532652,0.00022558442892334912
-0.47991281914364664,-0.47991281914364664,0.9997790265259205,0.0002206739189312327
-0.479821045351855,-0.479821045351855,0.9996211480838711,0.0002165166571326498
-0.47968149509688374,-0.47968149509688374,0.9997987166921911,0.00023810657050045715
-0.4795361857453827,-0.4795361857453827,0.9999752877516854,0.00021178272308713752
-0.479406643047696,-0.479406643047696,0.9998104186332994,0.00021670227612803037
-0.4793153882063052,-0.4793153882063052,0.9998792926305399,0.00023839097579353004
-0.47926664283077114,-0.47926664283077114,0.9999658587238031,0.00020942797752706736
-0.47909969107276995,-0.47909969107276995,1.0001561040450446,0.00022232744618606078
-0.47899178250008845,-0.47899178250008845,1.000224788354744,0.00023178443276293724
-0.47896544040122535,-0.47896544040122535,0.9999954512776192,0.00020846229774487717
-0.4789097421024053,-0.4789097421024053,0.9999735688313359,0.00023741997217750186
-0.47883447742060525,-0.47883447742060525,0.9999961971045328,0.00021958120455320605
-0.47864817825029604,-0.47864817825029604,1.0002691383459312,0.000231612704276493
-0.47852450238424354,-0.47852450238424354,1.0003303231531322,0.00021411602324121799
-0.47841869741751,-0.47841869741751,1.0000381410748767,0.0002391720739658983
-0.47826866207979035,-0.47826866207979035,0.9998417386092175,0.0002306451387205084
-0.4782245625901851,-0.4782245625901851,0.9996779706370751,0.00021121066034628333
-0.4781112043237954,-0.4781112043237954,0.9998966735407084,0.0002272816844160718
-0.47800559744791826,-0.47800559744791826,1.0002078425159293,0.00021593917835779423
-0.4779278627240274,-0.4779278627240274,1.000141615362131,0.0002213744693291998
-0.47780997489899163,-0.47780997489899163,0.9998534079601701,0.00022638309040539685
-0.4776329993735999,-0.4776329993735999,1.0001183053390883,0.00022425820195379662
-0.4775184900834574,-0.4775184900834574,1.000097092174043,0.00022127249613223865
-0.4774143940259819,-0.4774143940259819,0.9999732165323459,0.00023687947105348466
-0.47729589038572157,-0.47729589038572157,0.9999249195392672,0.00022137359245828704
-0.47715510385824017,-0.47715510385824017,1.0001553977938435,0.00021766226827274948
-0.4770061884119059,-0.4770061884119059,1.0000048257625576,0.00023781274924890416
-0.47683941011346176,-0.47683941011346176,0.9999229729667729,0.0002081804478179676
-0.4766933718805376,-0.4766933718805376,1.0000645041955911,0.00021804618574469063
-0.47655489608150675,-0.47655489608150675,1.0001636965687912,0.0002335546113742323
-0.47650009939534355,-0.47650009939534355,0.9999629345435299,0.00021895654465127102
-0.47637025440126307,-0.47637025440126307,1.000238782768664,0.00020915845218253927
-0.4762468900888052,-0.4762468900888052,0.9999739431832065,0.00023493418801736826
-0.4760981590989104,-0.4760981590989104,0.9995729574327321,0.00022375951625264715
-0.47598943181728826,-0.47598943181728826,1.0002833851222561,0.00022775655211707202
-0.47584863257070537,-0.47584863257070537,1.000081383838409,0.0002204914121901538
-0.47576165376085555,-0.47576165376085555,0.9999579519466391,0.00021856716849794321
-0.475635258834518,-0.475635258834518,1.0002657719169772,0.00022102712929352673
-0.47555362084094666,-0.47555362084094666,1.000241917823351,0.0002321364758695607
-0.4754623890163202,-0.4754623890163202,0.9999270489616189,0.00020554593425668846
-0.47535454597964416,-0.47535454597964416,1.0000710683309717,0.00021318256643322454
-0.475166569265275,-0.475166569265275,0.9996033417834514,0.00021424774029974103
-0.47498514796607194,-0.47498514796607194,0.9997928938386661,0.00021730404278207902
-0.47492189495023923,-0.47492189495023923,1.000405869501217,0.0002116964074433875
-0.4747977432205516,-0.4747977432205516,1.000207975954265,0.00023378810334031365
-0.47469031933142103,-0.47469031933142103,1.0000043347840577,0.00024141979843361823
-0.4746315082178626,-0.4746315082178626,0.9999577719224556,0.0002249073307403346
-0.4745874774023832,-0.4745874774023832,0.9999835912003883,0.00021471069558519034
-0.47453343331508224,-0.47453343331508224,0.9997102299827155,0.00021233779080174334
-0.474441919932724,-0.474441919932724,1.0000210339562348,0.00023180896182896398
-0.47432312747114336,-0.47432312747114336,0.9998578617665055,0.00024300051715579594
-0.47415753342938843,-0.47415753342938843,0.9999757806693326,0.0002334937197118954
-0.47399679354348334,-0.47399679354348334,1.0000578052410483,0.00024082226933188938
-0.47387494171707656,-0.47387494171707656,1.0000906712357964,0.00020964929636225647
-0.4737908671733749,-0.4737908671733749,0.9997922933184092,0.00022568394329752268
-0.473678805896634,-0.473678805896634,0.9999819532235197,0.00021385596016601553
-0.47362320866814117,-0.47362320866814117,1.000426028815649,0.00021837117303089674
-0.47354540384039867,-0.47354540384039867,0.9998872379311667,0.00023008558246522602
-0.4733411213994259,-0.4733411213994259,0.9995511112467254,0.00022660658706113337
-0.4732115179722314,-0.4732115179722314,1.0001237875623559,0.00021541754955021951
-0.4731182953735697,-0.4731182953735697,1.0000874745420547,0.00020634685881527271
-0.4730127335868019,-0.4730127335868019,0.9998476883899293,0.00024633272429389893
-0.47284713659028055,-0.47284713659028055,0.9997973479940182,0.0002131851523893358
-0.4726731819733686,-0.4726731819733686,0.9999914030431564,0.00023232920102959437
-0.4725146295859304,-0.4725146295859304,1.0002638898677805,0.00022910207130256988
-0.4724056814979122,-0.4724056814979122,1.0001870987128794,0.00020344502217588644
-0.47225240923580714,-0.47225240923580714,0.999895942012256,0.00022939981840277177
-0.4721777948027011,-0.4721777948027011,1.0000982149879074,0.0002287768255622268
-0.47208109104249163,-0.47208109104249163,1.0001861836211465,0.0002370837783826843
-0.4719386812255834,-0.4719386812255834,1.0002345044758971,0.00019906007318707628
-0.4718127851592726,-0.4718127851592726,1.0001868012627495,0.00021374414316321764
