time,time,flux,flux_err
-0.20284970267345356,-0.20284970267345356,1.000125075314558,3.8818022070638184e-05
-0.20197300445799074,-0.20197300445799074,1.000017742755812,3.7146334430853636e-05
-0.2011273146828009,-0.2011273146828009,0.9999987942437109,3.62767602720455e-05
-0.2002816247630085,-0.2002816247630085,0.9999555585503813,3.5744857428037955e-05
-0.19950640890033355,-0.19950640890033355,1.000007486105796,3.233424283861665e-05
-0.19880166713478573,-0.19880166713478573,0.999969541792367,3.213684839845325e-05
-0.19809692531253234,-0.19809692531253234,1.0000093099381766,3.199321662745526e-05
-0.19739218344680154,-0.19739218344680154,1.0000119803022005,3.1883697996344296e-05
-0.19668744154364645,-0.19668744154364645,0.9999826379359604,3.1791028139158756e-05
-0.1959826996144038,-0.1959826996144038,1.0000059036621802,3.1705149195456474e-05
-0.19527795766588057,-0.19527795766588057,1.000027033965118,3.163113418519593e-05
-0.19457321570412917,-0.19457321570412917,0.9999632690202773,3.15652665229662e-05
-0.19386847373594876,-0.19386847373594876,0.9999637352998765,3.150629380558984e-05
-0.1931637317673925,-0.1931637317673925,1.0000362468722315,3.1459573137990475e-05
-0.19245898980299359,-0.19245898980299359,1.0000000320895353,3.142530776990032e-05
-0.19174973749843857,-0.19174973749843857,0.9999535914220854,3.1400085136686605e-05
-0.19102131622506135,-0.19102131622506135,1.0000316858632337,3.138105601884176e-05
-0.19031657429770873,-0.19031657429770873,0.9999424202061167,3.136301568153011e-05
-0.18961183238926224,-0.18961183238926224,1.0000769272263086,3.135036691010483e-05
-0.1889070905046303,-0.1889070905046303,0.9999523183122875,3.133364407817805e-05
-0.18820234864419802,-0.18820234864419802,1.0000024427004626,3.131902572048513e-05
-0.18749760681211072,-0.18749760681211072,1.0000022567324014,3.130177218055982e-05
-0.18679286500914075,-0.18679286500914075,0.9999796161326872,3.128689413436421e-05
-0.18608812323754692,-0.18608812323754692,1.0000161006613295,3.1277052153577205e-05
-0.18538338150035188,-0.18538338150035188,1.0000301901637307,3.12729204265924e-05
-0.18465496047686686,-0.18465496047686686,0.9998834535701292,3.126500326000818e-05
-0.18392879466522985,-0.18392879466522985,1.0000139463179578,3.126005153445496e-05
-0.1832127771757513,-0.1832127771757513,1.0000412694327712,3.1253309919054294e-05
-0.1825080355909087,-0.1825080355909087,1.0000319020151127,3.1249082955628564e-05
-0.18178299749067434,-0.18178299749067434,0.9998304014554746,3.1240341424502906e-05
-0.18105908702056298,-0.18105908702056298,1.0001056710460574,3.1232718265221546e-05
-0.18033743176834988,-0.18033743176834988,0.9999270366732121,3.12285302881207e-05
-0.17963269035590343,-0.17963269035590343,1.0000162988946282,3.1225126439187916e-05
-0.17892794898805633,-0.17892794898805633,1.0000615964055253,3.122516963199804e-05
-0.17822320766482705,-0.17822320766482705,0.999857557987861,3.122445506511473e-05
-0.1775184663877191,-0.1775184663877191,1.0000844247411145,3.122800558442682e-05
-0.17681372515710692,-0.17681372515710692,0.9999342028957117,3.122166337141469e-05
-0.17610898397375224,-0.17610898397375224,1.0000109563054875,3.122361330306991e-05
-0.1754042428387855,-0.1754042428387855,1.000031582676675,3.122317664061349e-05
-0.17469950175069543,-0.17469950175069543,0.9999057098654921,3.122239969158729e-05
-0.17399476071327413,-0.17399476071327413,1.000003737901573,3.1224529659722424e-05
-0.17329001972309682,-0.17329001972309682,0.9999550172670053,3.1222837384636906e-05
-0.17258527878396138,-0.17258527878396138,1.000018614147351,3.122436236670951e-05
-0.171880537893594,-0.171880537893594,0.9998991401553804,3.122113039867069e-05
-0.1711757970550174,-0.1711757970550174,1.0000754974952923,3.122523391838377e-05
-0.17047105626520603,-0.17047105626520603,0.9999493333278435,3.122438241756927e-05
-0.16976631552945848,-0.16976631552945848,1.0000102349730515,3.1223901041520444e-05
-0.16906157484021306,-0.16906157484021306,0.999987237667573,3.122301573311382e-05
-0.1683568342050279,-0.1683568342050279,1.0000172738394895,3.122417633371485e-05
-0.16765209362125474,-0.16765209362125474,1.0000264453831,3.122368569323934e-05
-0.16694735308927022,-0.16694735308927022,0.9999822329727609,3.122369944981124e-05
-0.1662426126087027,-0.1662426126087027,0.9999716510308776,3.1223927372231676e-05
-0.16553787218219682,-0.16553787218219682,1.0000421955341225,3.122626772963728e-05
-0.16483313180710651,-0.16483313180710651,0.9999623064862252,3.122501364283315e-05
-0.16412839148494102,-0.16412839148494102,1.0000173688300689,3.122370527084466e-05
-0.16342365121494568,-0.16342365121494568,1.000073170228146,3.122508342467766e-05
-0.16271891099977012,-0.16271891099977012,0.9999141742006387,3.122554446753356e-05
-0.16201417083524916,-0.16201417083524916,1.000051557753066,3.1228211331808444e-05
-0.16130943072554657,-0.16130943072554657,0.9999480796063255,3.1226536264381976e-05
-0.16060469066839148,-0.16060469066839148,0.999955472295474,3.122814706129642e-05
-0.1598999506652973,-0.1598999506652973,1.0000808989054921,3.122852275030543e-05
-0.1591952107158839,-0.1591952107158839,0.9999420900622786,3.122828074238743e-05
-0.15849047081939957,-0.15849047081939957,1.0000336798236673,3.123304700851198e-05
-0.15778573097811233,-0.15778573097811233,1.0000328584279146,3.123524849594371e-05
-0.1570809911882371,-0.1570809911882371,0.9998893132677862,3.123269482494121e-05
-0.15637625145431072,-0.15637625145431072,1.0000332502707105,3.1234390802889825e-05
-0.15567151177407085,-0.15567151177407085,1.0000071586528072,3.123593090518143e-05
-0.1549667721478869,-0.1549667721478869,0.9999735925190715,3.1236992867355535e-05
-0.15426203257463272,-0.15426203257463272,1.0000142759353046,3.123824024041397e-05
-0.1535572930573295,-0.1535572930573295,0.9999859298507955,3.124067602824203e-05
-0.15285255359332836,-0.15285255359332836,1.0000415849485595,3.1241888494530696e-05
-0.15214781418376616,-0.15214781418376616,0.9999729500082353,3.124339981179257e-05
-0.15143743691469566,-0.15143743691469566,1.0000212833593547,3.124474826319463e-05
-0.1507101459563252,-0.1507101459563252,0.999979129453654,3.12461932374062e-05
-0.15000540671310603,-0.15000540671310603,0.999968442064521,3.1247250413166705e-05
-0.14930066752356694,-0.14930066752356694,1.0000521611058115,3.125006416730198e-05
-0.14859592838846894,-0.14859592838846894,0.9999639109646064,3.125095528427527e-05
-0.1478911893074283,-0.1478911893074283,0.9999665152554306,3.125122112882879e-05
-0.14718645028234006,-0.14718645028234006,1.0000833906561923,3.1252983893110734e-05
-0.1464817113116915,-0.1464817113116915,0.9999250642192102,3.125456377515714e-05
-0.1457769723947223,-0.1457769723947223,1.0000582084002314,3.125737267526366e-05
-0.145072233532953,-0.145072233532953,0.9999689235792838,3.1258141877913014e-05
-0.14436749472599572,-0.14436749472599572,1.0000052770183379,3.126096609740897e-05
-0.1436627559738568,-0.1436627559738568,1.0000072640420976,3.1261040093955585e-05
-0.14295801727615753,-0.14295801727615753,0.9999772739397882,3.1260622611717725e-05
-0.14225327863441137,-0.14225327863441137,1.000026677585037,3.126199177695323e-05
-0.14154854004710132,-0.14154854004710132,1.000008824927072,3.126512321122996e-05
-0.14084380151347348,-0.14084380151347348,0.9999955408598,3.126670928850347e-05
-0.14013906303541718,-0.14013906303541718,0.9999965491532204,3.1267469716644606e-05
-0.1393159285648032,-0.1393159285648032,1.0000539324403779,3.127343080547811e-05
-0.13853225951148787,-0.13853225951148787,0.9998512772647427,3.127366048527803e-05
-0.1378275212126269,-0.1378275212126269,1.0000287217115191,3.1277135216712805e-05
-0.13712278296971903,-0.13712278296971903,0.9999897329413798,3.127553119788787e-05
-0.13641804478162456,-0.13641804478162456,1.00005588754382,3.128106774509775e-05
-0.13571330664834563,-0.13571330664834563,0.9999780238735102,3.128204889825161e-05
-0.13500856857102192,-0.13500856857102192,0.999911989238262,3.1281234672130294e-05
-0.1343038305481315,-0.1343038305481315,1.0000673215321678,3.128278394414485e-05
-0.13359909258006225,-0.13359909258006225,0.999953466031976,3.1283066696833276e-05
-0.13289435466832203,-0.13289435466832203,0.9999996949467436,3.128428241488404e-05
-0.13218961681026115,-0.13218961681026115,0.9999809057452792,3.128668824662937e-05
-0.13148487900739808,-0.13148487900739808,1.0000214116151978,3.1287539258968704e-05
-0.13078014125972928,-0.13078014125972928,1.0000186959490212,3.12875280913033e-05
-0.1300754035680086,-0.1300754035680086,0.999978134741632,3.1287997625188406e-05
-0.12937066593072827,-0.12937066593072827,0.9999935413733076,3.128860827137079e-05
-0.12866592834864649,-0.12866592834864649,1.0000068930770305,3.1291456653341425e-05
-0.12796119082213409,-0.12796119082213409,0.9999993013051807,3.1290476994605185e-05
-0.12725645335081595,-0.12725645335081595,1.0000175417360642,3.129065908925313e-05
-0.12655171593204742,-0.12655171593204742,0.9999996245144116,3.129193346602469e-05
-0.1258469785722518,-0.1258469785722518,0.9999623622735291,3.129231657164266e-05
-0.12514224126689938,-0.12514224126689938,1.0000788572895045,3.1294914894955506e-05
-0.12443750401484763,-0.12443750401484763,0.9999171358446581,3.1293541576369546e-05
-0.12373276681874756,-0.12373276681874756,1.0000959697262795,3.129537448024432e-05
-0.12302802967973321,-0.12302802967973321,0.9999311978237513,3.129365918028908e-05
-0.12232329259402448,-0.12232329259402448,0.9999679231587979,3.1295307961147764e-05
-0.12161855556463977,-0.12161855556463977,1.00004936837617,3.1295321497793575e-05
-0.12091381858969967,-0.12091381858969967,0.9999793362115295,3.129446740921927e-05
-0.12020908167070914,-0.12020908167070914,1.0000104026183791,3.1297489898617e-05
-0.11950434480691144,-0.11950434480691144,1.0000112895746356,3.1297230613745895e-05
-0.11879960799830869,-0.11879960799830869,1.0000110547311585,3.129731477368343e-05
-0.11809487124452218,-0.11809487124452218,0.999959176217262,3.1296782513176984e-05
-0.1173901345466902,-0.1173901345466902,1.000043574361032,3.129793432183188e-05
-0.11668539790480495,-0.11668539790480495,1.0000386021062286,3.130012703367865e-05
-0.11598066131811606,-0.11598066131811606,0.9999103561791035,3.129902644457743e-05
-0.11527592478586471,-0.11527592478586471,1.000032763962639,3.129769184139843e-05
-0.11457118831221251,-0.11457118831221251,0.9999947718302463,3.129539139674302e-05
-0.11386645188921776,-0.11386645188921776,0.9999903716983539,3.12950704155369e-05
-0.11316171552406402,-0.11316171552406402,0.9999790034312914,3.1296269179144875e-05
-0.11245697921448254,-0.11245697921448254,1.0000538558399463,3.129655396107503e-05
-0.11175224296236479,-0.11175224296236479,0.999966309058129,3.129606253020895e-05
-0.1110475067616612,-0.1110475067616612,1.000019010506514,3.1295760645764465e-05
-0.11034277061918019,-0.11034277061918019,1.0000089067636135,3.12940374653868e-05
-0.109638034530753,-0.109638034530753,0.9999849425863087,3.1295015461485944e-05
-0.10893329849828107,-0.10893329849828107,0.9999830672224697,3.1296144180058687e-05
-0.10822856252213668,-0.10822856252213668,1.0000148451550654,3.12958070027193e-05
-0.10752382660156527,-0.10752382660156527,1.000033593755371,3.129436247948658e-05
-0.10681909073732498,-0.10681909073732498,1.0000034354256173,3.129419926804521e-05
-0.1061143549282754,-0.1061143549282754,0.9999397390275281,3.129175826386931e-05
-0.1054096191744236,-0.1054096191744236,1.0000430126406712,3.1291994714886905e-05
-0.10470488347576393,-0.10470488347576393,0.9999429141488101,3.129059252042532e-05
-0.10400014783305807,-0.10400014783305807,1.00004367631816,3.1291083080431995e-05
-0.10329541224629964,-0.10329541224629964,0.9999918637324606,3.129006156827185e-05
-0.10259067671625104,-0.10259067671625104,1.000029431832004,3.1288808140509254e-05
-0.1018859412406421,-0.1018859412406421,0.9999845507250033,3.128460147638863e-05
-0.1011812058213593,-0.1011812058213593,0.9999978282979601,3.12853247383893e-05
-0.1004764704587835,-0.1004764704587835,1.0000226466408573,3.1286171871921383e-05
-0.09977173515064805,-0.09977173515064805,0.9999182715101075,3.1283687330657266e-05
-0.09906699989959762,-0.09906699989959762,1.0000675009679534,3.128230049693693e-05
-0.09836226470449602,-0.09836226470449602,0.9999678345323939,3.1280684817843124e-05
-0.09765752956458869,-0.09765752956458869,0.9999796358415329,3.12792597284612e-05
-0.09695279448063729,-0.09695279448063729,1.0000663228158444,3.127936058718474e-05
-0.09624805945338792,-0.09624805945338792,0.9999301526115065,3.127494984172994e-05
-0.09554332448246897,-0.09554332448246897,1.0000412772098233,3.127591250284716e-05
-0.0948385895671258,-0.0948385895671258,0.9999725139841404,3.127288827627047e-05
-0.09413385470848468,-0.09413385470848468,0.9999910952918885,3.1272491925599805e-05
-0.0934088235442708,-0.0934088235442708,1.000002859829376,3.1271546904315176e-05
-0.09269619576888814,-0.09269619576888814,1.0000178989422996,3.1271590170327965e-05
-0.09199146108037226,-0.09199146108037226,1.0000197164416704,3.127095017348648e-05
-0.09128672644780451,-0.09128672644780451,1.0000086097509446,3.1267519684254435e-05
-0.09058199187269977,-0.09058199187269977,0.9999917971087058,3.126430173557801e-05
-0.08987725735278929,-0.08987725735278929,1.0000121898221312,3.12628958181374e-05
-0.0891725228899638,-0.0891725228899638,0.9999529766129731,3.12610304329469e-05
-0.08846778848271342,-0.08846778848271342,1.00000179441284,3.1262608852477285e-05
-0.08776305413103529,-0.08776305413103529,1.0000321990020276,3.126028963986826e-05
-0.0870583198383315,-0.0870583198383315,0.9999953709088709,3.125690004331766e-05
-0.08635358560082196,-0.08635358560082196,0.9999806798446322,3.125522856172411e-05
-0.08564885141964354,-0.08564885141964354,1.0000199017686842,3.1253566237377204e-05
-0.08494411729516713,-0.08494411729516713,1.0000577196779366,3.125116987874232e-05
-0.08423938322853815,-0.08423938322853815,0.9999773767399522,3.124871171980466e-05
-0.08353464921710127,-0.08353464921710127,1.0000150753011319,3.124825032723331e-05
-0.0828299152631267,-0.0828299152631267,0.9999827775707043,3.124576762227534e-05
-0.08212518136737187,-0.08212518136737187,1.0000210035022457,3.124666500163315e-05
-0.08142044752491984,-0.08142044752491984,0.9999555293790421,3.124425938467908e-05
-0.08071571374144285,-0.08071571374144285,1.0000091463103267,3.1242385780424014e-05
-0.08001098001354379,-0.08001098001354379,0.9999703923527461,3.1236970335097046e-05
-0.07930624634386021,-0.07930624634386021,1.0000411827769675,3.123667995226507e-05
-0.07860151273050633,-0.07860151273050633,0.9999609284537708,3.1234181677006073e-05
-0.0778967791746176,-0.0778967791746176,1.0000308658110417,3.123397503971915e-05
-0.07719204567580959,-0.07719204567580959,0.9999740692401069,3.1230771420882086e-05
-0.07648731223446817,-0.07648731223446817,1.0000407845849597,3.122911366482814e-05
-0.07560103953959611,-0.07560103953959611,0.9999614588393048,3.123148268603886e-05
-0.07488052020201294,-0.07488052020201294,0.9999902808753498,3.122919731853372e-05
-0.07417578694704759,-0.07417578694704759,1.0000492380251509,3.123052577106028e-05
-0.07347105375218987,-0.07347105375218987,0.9998838432990285,3.12269106342561e-05
-0.07276632061215124,-0.07276632061215124,1.0001798278463938,3.1231638720511485e-05
-0.0720615875299501,-0.0720615875299501,0.9998207066270505,3.122543727269096e-05
-0.07135685450634881,-0.07135685450634881,1.0000756077642552,3.122890272964665e-05
-0.07065212153907581,-0.07065212153907581,0.9999781489869056,3.1225605840770814e-05
-0.06994738863040126,-0.06994738863040126,1.0000479431055984,3.1224961313359026e-05
-0.06924265577956419,-0.06924265577956419,0.9999251276695965,3.121960983172893e-05
-0.06853792298581496,-0.06853792298581496,1.0000788736395685,3.121854853281051e-05
-0.06783319025066206,-0.06783319025066206,0.9999657696972848,3.121481572254043e-05
-0.0671284575729743,-0.0671284575729743,0.9999808723867505,3.121452322956828e-05
-0.0664237249535006,-0.0664237249535006,1.0000182110238325,3.1213093537401905e-05
-0.06571899239149417,-0.06571899239149417,0.9999741251802015,3.121206790402412e-05
-0.06501425988884293,-0.06501425988884293,0.9999424528862431,3.1209951769663196e-05
-0.0643095274425157,-0.0643095274425157,1.0000801450354388,3.1209649888424894e-05
-0.06360479505630182,-0.06360479505630182,0.9999563508677347,3.120688334960063e-05
-0.06290006272830624,-0.06290006272830624,0.9999927837422652,3.120635960598709e-05
-0.06219533045777155,-0.06219533045777155,0.9999926103290632,3.120706962198411e-05
-0.061490598245458016,-0.061490598245458016,1.0000132174685117,3.1206640733182385e-05
-0.06078586609212024,-0.06078586609212024,1.00001011080746,3.120485802517867e-05
-0.06008113399775539,-0.06008113399775539,0.9999851315188429,3.1203781102333786e-05
-0.059376401962367,-0.059376401962367,1.0000098081730524,3.1202831672671984e-05
-0.05867166998633237,-0.05867166998633237,0.9999864613992546,3.120184930629733e-05
-0.057966938067002614,-0.057966938067002614,1.000001527286249,3.12018652033018e-05
-0.05726220620853937,-0.05726220620853937,1.000023559288538,3.120082133475792e-05
-0.05655747440791927,-0.05655747440791927,0.9999551021620906,3.1199271522512425e-05
-0.055852742666272805,-0.055852742666272805,1.0000091726706988,3.119993926361605e-05
-0.055148010985488584,-0.055148010985488584,0.9999143750129106,3.119809351575123e-05
-0.05444327936179505,-0.05444327936179505,1.0000991896254199,3.1201177986473435e-05
-0.05373854780009779,-0.05373854780009779,0.999959918335432,3.119899101856057e-05
-0.05303381629548696,-0.05303381629548696,0.9999937101501919,3.120039026042449e-05
-0.052329084850983774,-0.052329084850983774,0.9999809572491681,3.119827585546194e-05
-0.0516243534669691,-0.0516243534669691,1.0000133609060868,3.120130509301152e-05
-0.050919622143062074,-0.050919622143062074,1.0000533606638864,3.120242783754657e-05
-0.05021489087775279,-0.05021489087775279,0.9999170882365463,3.1199163589395635e-05
-0.049510159673315,-0.049510159673315,1.0000962365553634,3.119965796624016e-05
-0.04880542852860188,-0.04880542852860188,0.999946984294667,3.1198429068062515e-05
-0.04810069744513257,-0.04810069744513257,0.9999404750672601,3.1197466746209126e-05
-0.04739596642177872,-0.04739596642177872,1.0000612615364899,3.1199913296499975e-05
-0.04669123545739282,-0.04669123545739282,0.9999031160610329,3.1199180338567075e-05
-0.045986504553876276,-0.045986504553876276,1.000081923299016,3.120057478219272e-05
-0.04528177371122268,-0.04528177371122268,0.9999019375222803,3.1197345220294476e-05
-0.04457704292981575,-0.04457704292981575,1.0000698335504608,3.119999838434243e-05
-0.04387231220889234,-0.04387231220889234,0.9999066468691737,3.1199354842909265e-05
-0.043167581549214164,-0.043167581549214164,1.0000408273755064,3.120229939561929e-05
-0.042462850950024486,-0.042462850950024486,1.0000030800508384,3.1200548378297754e-05
-0.041758120413967245,-0.041758120413967245,0.999976773279435,3.120188981389556e-05
-0.04105338993650918,-0.04105338993650918,1.0000012754186156,3.120203216731546e-05
-0.04034865952217999,-0.04034865952217999,1.0000265464811122,3.120360409182449e-05
-0.039643929169479716,-0.039643929169479716,0.9999468122492059,3.120529151134139e-05
-0.03893919887877147,-0.03893919887877147,1.0000351247912684,3.120738118595906e-05
-0.038234468649692134,-0.038234468649692134,1.0000044786286995,3.1206892858245575e-05
-0.037529738482983535,-0.037529738482983535,1.0000271502756197,3.120844061504045e-05
-0.03682500837752371,-0.03682500837752371,0.999936057194543,3.1208526904508655e-05
-0.036120278335196335,-0.036120278335196335,1.00001975682292,3.1209336632491555e-05
-0.035415548354867356,-0.035415548354867356,1.0000391269882387,3.121264097563022e-05
-0.034710818437292804,-0.034710818437292804,0.9999564804093908,3.121056248349912e-05
-0.034006088582854234,-0.034006088582854234,0.9999561274822122,3.121235027314771e-05
-0.03330135879079279,-0.03330135879079279,1.0000280127526087,3.1214558799596076e-05
-0.032596629063377236,-0.032596629063377236,1.0000019048885733,3.121460116820237e-05
