time,time,flux,flux_err
-0.4999034038943743,-0.4999034038943743,1.0002060067265115,0.0001408666950092655
-0.4997744175110711,-0.4997744175110711,1.000009949472964,0.0001272642137402149
-0.49968368974805344,-0.49968368974805344,0.9998959448762674,0.0001385963572539803
-0.49955012611171695,-0.49955012611171695,1.0001743943533952,0.0001204788923293536
-0.4993987710069632,-0.4993987710069632,0.9999515799052716,0.00013687329228404048
-0.4993042583169881,-0.4993042583169881,0.9998842691536053,0.0001390939547011261
-0.49909967826679347,-0.49909967826679347,1.000005687938122,0.0001435510041074203
-0.49898416866490153,-0.49898416866490153,0.9999013629327498,0.00012831110307966024
-0.4988960671820678,-0.4988960671820678,0.9998883763081563,0.00013184702109253577
-0.4987788423226448,-0.4987788423226448,1.0000435954561806,0.00012663164101122708
-0.4985648171423236,-0.4985648171423236,1.0001259532196491,0.0001344689782062126
-0.498463439225452,-0.498463439225452,0.9999224151044057,0.00012246022033104742
-0.498392279719701,-0.498392279719701,1.000116607517918,0.00013124058583821168
-0.49825216936296784,-0.49825216936296784,0.9998249767851778,0.00012510082166764772
-0.49811500613286624,-0.49811500613286624,1.000063146556919,0.0001266112277622045
-0.49804176849429493,-0.49804176849429493,1.0000760461586968,0.0001450823586517871
-0.4979210110352142,-0.4979210110352142,0.9997261270746647,0.00012823372421831686
-0.4977236334205372,-0.4977236334205372,1.0002303978371168,0.00014492058267785477
-0.49749811629299073,-0.49749811629299073,1.0000178815304943,0.000126930920982615
-0.4973797195154475,-0.4973797195154475,0.9999126847156145,0.00013626817432562521
-0.49726962532731706,-0.49726962532731706,0.9999523597228925,0.000126797314325322
-0.4970931151736295,-0.4970931151736295,1.0002628604107606,0.000132703397287265
-0.49688625340932047,-0.49688625340932047,1.0001677732899494,0.00014211912950852588
-0.4967568640829995,-0.4967568640829995,0.9999524996187897,0.00013051680982930627
-0.49663216119806747,-0.49663216119806747,0.9999148217063022,0.00012562495374031862
-0.49655795643629974,-0.49655795643629974,1.0000948036887303,0.00012429665690954423
-0.49643923034891485,-0.49643923034891485,0.9999626806352566,0.00013934249053479083
-0.49633875990402887,-0.49633875990402887,0.9998267268796713,0.00012131593972500605
-0.49617233992612453,-0.49617233992612453,1.0000823631361269,0.0001371086618348587
-0.4960609852540074,-0.4960609852540074,0.999996255064978,0.00012561361175190858
-0.4959383481094847,-0.4959383481094847,0.9999727852360563,0.00013363789712922942
-0.495805653865682,-0.495805653865682,0.9997767551063553,0.00013775323287830863
-0.4957149108900921,-0.4957149108900921,0.999935801354202,0.00013601257996654007
-0.4956157364387764,-0.4956157364387764,0.999878733184197,0.0001369058381076866
-0.49552388937736397,-0.49552388937736397,1.0002170081209925,0.0001254092035462723
-0.49540966211643533,-0.49540966211643533,0.9999394763726437,0.00012353538887983112
-0.4952070864121197,-0.4952070864121197,1.0000432360414262,0.00013569682152168833
-0.4951064914959716,-0.4951064914959716,0.9999523263036391,0.00012338807665079603
-0.494981728377752,-0.494981728377752,1.000011424912272,0.000136983311081811
-0.494887727976311,-0.494887727976311,1.0001395208979624,0.00013382133953577033
-0.4947872749209637,-0.4947872749209637,0.9999264514355228,0.00012591511178834338
-0.49465053144085686,-0.49465053144085686,0.9999121005157411,0.00013140362416558658
-0.4945165083336178,-0.4945165083336178,1.000264821812187,0.00012690336226599044
-0.49433660425711423,-0.49433660425711423,0.9999129706201568,0.00012499389360671095
-0.49413069942675064,-0.49413069942675064,1.0000544418460282,0.00012693373120238534
-0.49400472377601545,-0.49400472377601545,0.9998877643770472,0.00013818412727246374
-0.49393934254185295,-0.49393934254185295,0.9998522593081625,0.0001286241662248648
-0.49379817007575183,-0.49379817007575183,1.0003072953561722,0.0001254891996960545
-0.4937234600074589,-0.4937234600074589,1.0001559393869508,0.00012528977200309958
-0.4936740438948618,-0.4936740438948618,0.9998531864341269,0.00013928906687875003
-0.49360476367583034,-0.49360476367583034,0.9999231447471285,0.00012210829096521175
-0.4934922507061856,-0.4934922507061856,0.9997826862182752,0.0001360972097821461
-0.49319616704888175,-0.49319616704888175,0.9998532977594448,0.000125500726241993
-0.4930204793403391,-0.4930204793403391,0.9998274111716483,0.00012397502701502159
-0.49286579389299734,-0.49286579389299734,0.9998943071746609,0.00012452206617663512
-0.49277312381309457,-0.49277312381309457,1.0004185297302273,0.00012964495400345202
-0.49271595318277833,-0.49271595318277833,1.000099881427763,0.00013617960548789195
-0.492588214983698,-0.492588214983698,0.9999603256414641,0.00012825263177558942
-0.49251478784426583,-0.49251478784426583,1.0000249497120968,0.00012623548948363883
-0.4924041889840737,-0.4924041889840737,1.0000276139216435,0.0001346282257320167
-0.49226342293841296,-0.49226342293841296,0.9998932882823011,0.00012556977864611773
-0.4922106626589084,-0.4922106626589084,0.9999112191800842,0.0001281968257774434
-0.49209025230957193,-0.49209025230957193,1.0000464610634165,0.00012528344036754827
-0.4919987249042606,-0.4919987249042606,1.0000865269366035,0.00012509070304385543
-0.4917532982479315,-0.4917532982479315,0.9998975801296947,0.00012327933453125923
-0.4915771667845547,-0.4915771667845547,0.9999316104241407,0.00013208019755252596
-0.49149225058790763,-0.49149225058790763,0.9997301109237633,0.0001331383055224206
-0.4914340354182059,-0.4914340354182059,0.9998200276227998,0.00012214049024050387
-0.4913742368575186,-0.4913742368575186,1.0001312510528952,0.00012771853073227383
-0.4912677260639612,-0.4912677260639612,1.000134596195969,0.0001349379156933912
-0.4911407469480764,-0.4911407469480764,1.0001165474307716,0.00012842758986637116
-0.4909698467963608,-0.4909698467963608,1.0000241949198987,0.00012646064004377238
-0.49087332099443304,-0.49087332099443304,1.0002242938508334,0.00012609416216780622
-0.4907841906824615,-0.4907841906824615,1.0001634566388482,0.0001260103089521897
-0.4906472845119424,-0.4906472845119424,0.9998644599120825,0.00012537959475829305
-0.49057192253530957,-0.49057192253530957,1.0000915684957863,0.0001321725167486391
-0.49042429302935486,-0.49042429302935486,1.000261589956281,0.00012660781599145744
-0.49033533298934345,-0.49033533298934345,1.0001995356380426,0.00012489422597491048
-0.4902304018731229,-0.4902304018731229,1.0002046603471788,0.00013542127892642977
-0.49018056427012197,-0.49018056427012197,1.0002099576777796,0.00013858065845717747
-0.4900322926667286,-0.4900322926667286,1.0000216772997281,0.00013162354976799793
-0.4898640026251087,-0.4898640026251087,1.000043231899911,0.00012252344349803556
-0.48975747263757513,-0.48975747263757513,1.0000628388288686,0.000134990085396549
-0.4896562778769294,-0.4896562778769294,0.999957689729408,0.00013874022114427137
-0.4895863271609414,-0.4895863271609414,0.9998173459753614,0.0001244042698210251
-0.48949025914480443,-0.48949025914480443,1.0000782961194763,0.00012510073409437392
-0.4893689264165005,-0.4893689264165005,0.999917594559588,0.00013206318331636708
-0.4892395431379555,-0.4892395431379555,0.999852426324032,0.00012617031526230839
-0.4891538269963348,-0.4891538269963348,0.9999202959694499,0.00013646524433665285
-0.48909066487103703,-0.48909066487103703,1.0002691850558034,0.00012975778009743076
-0.48895372240222057,-0.48895372240222057,0.999853758370697,0.00012735925856531565
-0.4887785866099875,-0.4887785866099875,0.9999926954921637,0.00012910402792141394
-0.48865134697116447,-0.48865134697116447,0.9999421860817211,0.00012172822787283942
-0.48850478828244376,-0.48850478828244376,0.9999942653008684,0.00012983935353287238
-0.4883657580881845,-0.4883657580881845,0.9998131349347016,0.0001341319799449456
-0.4882189934287453,-0.4882189934287453,1.0002397176992193,0.00012473339872224408
-0.48808104471245317,-0.48808104471245317,0.9999281737717988,0.00012359876072653202
-0.487914376767003,-0.487914376767003,0.9999492988163574,0.00012575389355130433
-0.4878786949586356,-0.4878786949586356,1.0000736863279318,0.000127166599149691
-0.48781658069347034,-0.48781658069347034,0.9999405719046752,0.00013544386649785793
-0.48772729975753465,-0.48772729975753465,0.9999064970822322,0.00012703832493456664
-0.48764581376453864,-0.48764581376453864,0.999930308932585,0.00013517809990233132
-0.4873766894714208,-0.4873766894714208,1.0001436217233084,0.000127061523587453
-0.48728522266901564,-0.48728522266901564,0.9998173734567686,0.00014505521274651938
-0.4871617770491866,-0.4871617770491866,0.999920575898317,0.0001234540327216815
-0.4870223772304598,-0.4870223772304598,0.9998769337382936,0.00013325175159737386
-0.48687702311726755,-0.48687702311726755,1.0000418813310108,0.00012453858274901082
-0.4867078492738074,-0.4867078492738074,0.9999983523046694,0.00012753813594497323
-0.48651491742930375,-0.48651491742930375,1.0000251572297523,0.00013028131544216408
-0.4863729284639703,-0.4863729284639703,1.0000135790005185,0.00013658462015876002
-0.4862184357421938,-0.4862184357421938,0.9998267576169632,0.00012477793114240527
-0.4860908221977297,-0.4860908221977297,1.000074178953251,0.00013851103275572062
-0.48593325561087114,-0.48593325561087114,1.0000168235945797,0.00012833593593421843
-0.4856682252866449,-0.4856682252866449,1.0001374852110587,0.00012687542974515166
-0.4855792516900692,-0.4855792516900692,0.9999981200387325,0.00012790121016210742
-0.48549176019441803,-0.48549176019441803,1.0000440036826947,0.00014497350750885006
-0.48543100811657497,-0.48543100811657497,1.0000580663388206,0.0001308580255576187
-0.4853024490381358,-0.4853024490381358,0.9998248914863478,0.000126725602620636
-0.48513119155250023,-0.48513119155250023,0.9999760433716489,0.0001333206802856466
-0.48492212857527195,-0.48492212857527195,1.0000644832588619,0.00013408354317940517
-0.4847139238787349,-0.4847139238787349,0.9999834131117297,0.00012947038882172457
-0.48455178485019135,-0.48455178485019135,0.9999237259330889,0.000136214158451396
-0.48447114518494344,-0.48447114518494344,0.9999081641336188,0.00012899545286611442
-0.48440127015928736,-0.48440127015928736,1.0002106286810482,0.00013553409966841968
-0.48431537349824794,-0.48431537349824794,1.0002319228905876,0.0001516853202825046
-0.4842212941905018,-0.4842212941905018,1.0001360528222443,0.00013867702658969686
-0.48402817255118863,-0.48402817255118863,1.0002893448278676,0.0001264868035783896
-0.48391048902121836,-0.48391048902121836,0.9999968556498505,0.0001230702831770861
-0.4837981149263214,-0.4837981149263214,1.0001244502268158,0.00012731311366307615
-0.4836943528614938,-0.4836943528614938,0.9999966169261156,0.00012501667732367304
-0.4836024998716312,-0.4836024998716312,0.9999676316090469,0.00013305852881958464
-0.4834206327708671,-0.4834206327708671,0.9999864170253632,0.00014670567311876546
-0.48328338633000384,-0.48328338633000384,0.9999984899601466,0.00013702016845791741
-0.48320714947767557,-0.48320714947767557,1.0001583646225343,0.00013705635727912687
-0.48314448169548996,-0.48314448169548996,1.0000896689806338,0.00013491337899781757
-0.48303693237248807,-0.48303693237248807,0.9999516025472547,0.0001316080293684624
-0.4829003787453985,-0.4829003787453985,1.0000469078790193,0.00012770314041533591
-0.482749403687194,-0.482749403687194,0.9998109092529865,0.00012421474413556836
-0.4825405645882711,-0.4825405645882711,1.0001108966074082,0.0001274484920055032
-0.48237061162944883,-0.48237061162944883,1.000003618296358,0.0001467784580738015
-0.48216175681736784,-0.48216175681736784,1.0000707615913773,0.00012092059688847195
-0.48208278411766514,-0.48208278411766514,1.0001994495640107,0.00014027097821729412
-0.48201334706973287,-0.48201334706973287,1.0003582068211636,0.00012565684153306402
-0.48192505569895727,-0.48192505569895727,1.0000334632055463,0.000148828720682717
-0.4817890485894168,-0.4817890485894168,0.9999453564236708,0.00012838190142510058
-0.48167142661404794,-0.48167142661404794,0.9998810671331249,0.00012921634759414087
-0.4814798062550835,-0.4814798062550835,1.0000910318656238,0.00012936967823458406
-0.4813299992645625,-0.4813299992645625,1.0000626829256618,0.00013267140603619165
-0.4812034600967309,-0.4812034600967309,1.0000842597523794,0.00012727115634143354
-0.4810469682997791,-0.4810469682997791,0.9999869718085111,0.00012436667036638824
-0.4808437776693609,-0.4808437776693609,0.9999272485272872,0.0001413365759150043
-0.48060283218510447,-0.48060283218510447,0.9999516610113132,0.0001346957956638605
-0.48042245452525095,-0.48042245452525095,1.0000598565976142,0.00012864391630619664
-0.480350654211361,-0.480350654211361,1.0001006916238304,0.00012708014550598737
-0.48025639631378,-0.48025639631378,1.0001829642539994,0.0001387520141208591
-0.48013438056223096,-0.48013438056223096,0.9999802259702989,0.00012765086106051557
-0.480033707030816,-0.480033707030816,0.9999205819900633,0.00013210344253627168
-0.47988759820582344,-0.47988759820582344,1.0000083072541925,0.0001453463512727758
-0.47972389492206274,-0.47972389492206274,0.9999566060289071,0.00013503888652590415
-0.4796170678193448,-0.4796170678193448,1.000264696772082,0.00013318856236078797
-0.47950629753468094,-0.47950629753468094,0.9999604332313478,0.0001539188189516009
-0.47936844237265175,-0.47936844237265175,0.9999099072296532,0.000124166318499605
-0.47915696559648496,-0.47915696559648496,1.0000288169728477,0.00013687709263159547
-0.4789915856759762,-0.4789915856759762,1.00025806584684,0.0001336000307486091
-0.4789284750033403,-0.4789284750033403,1.0001785730816113,0.00013763209914475187
-0.4788300554850139,-0.4788300554850139,1.0001361222294807,0.00012964692002479368
-0.4787780553480843,-0.4787780553480843,0.9999696688357081,0.0001247772495577806
-0.4787061475915834,-0.4787061475915834,1.0001018105906838,0.00014423762672269554
-0.47857549886684864,-0.47857549886684864,0.9999753352416046,0.00012913057463519837
-0.4784273963654414,-0.4784273963654414,0.9999736131362216,0.00013312845536327637
-0.47831782200082673,-0.47831782200082673,0.9999277217298793,0.00015003821299354908
-0.47815275997854767,-0.47815275997854767,0.9998258396123548,0.00013577851755348854
-0.4780172833154211,-0.4780172833154211,0.9997517154963248,0.00012457928845148358
-0.47794183799414897,-0.47794183799414897,0.9999427036972289,0.00012573560620197471
-0.47779185520194006,-0.47779185520194006,1.0000069007555856,0.00012397804102712707
-0.47771906362904704,-0.47771906362904704,0.9999478189042156,0.00013765980055290214
-0.47761448080127594,-0.47761448080127594,0.999825695345334,0.00012393684908946934
-0.477511159851565,-0.477511159851565,0.9999207243950812,0.00013392330956151112
-0.47741908782336395,-0.47741908782336395,0.9998988901856312,0.00013868954405552394
-0.4772263727005338,-0.4772263727005338,1.00021442472063,0.00012371522171370302
-0.47714241025969384,-0.47714241025969384,1.000023969903629,0.000144081785649242
-0.47706649981264493,-0.47706649981264493,0.9999283023398856,0.0001323845024947709
-0.47693046210333706,-0.47693046210333706,0.9999822558579978,0.00014356981799080846
-0.4766390729491832,-0.4766390729491832,0.999916365735591,0.00012968677443114725
-0.47639329564990474,-0.47639329564990474,0.9998093147790137,0.0001241018950227011
-0.4763257702521514,-0.4763257702521514,1.00007075175755,0.00013170107968249418
-0.47625664616643915,-0.47625664616643915,1.0001161518078376,0.00013831033575463823
-0.47612122605205515,-0.47612122605205515,1.0002211978321356,0.00012047813037344793
-0.4759675515029812,-0.4759675515029812,1.0000402062011766,0.00013702106515093226
-0.4759095530869672,-0.4759095530869672,0.9998726254601976,0.00013644281210122757
-0.4757596151670441,-0.4757596151670441,1.0001610862036878,0.00013517921430480014
-0.4755902825301746,-0.4755902825301746,0.9999054470317512,0.00013825955393394006
-0.47547924240934664,-0.47547924240934664,0.9999758855835689,0.0001255934815838485
-0.4754022110137157,-0.4754022110137157,0.9997961509223497,0.0001311514010471799
-0.47520739483006763,-0.47520739483006763,0.9999465941508905,0.00013255551021131484
-0.47508155095856636,-0.47508155095856636,1.0000475153860684,0.00012447271818873126
-0.47501185145811176,-0.47501185145811176,0.9999880793312685,0.00013308522614160231
-0.47489441428333523,-0.47489441428333523,1.0001084580484114,0.00012024118726117159
-0.4747473306633765,-0.4747473306633765,0.9999605936805015,0.00012650412009904873
-0.47466561126930173,-0.47466561126930173,0.9999754461548637,0.00014418386914151574
-0.4745741150341928,-0.4745741150341928,1.0001153148313662,0.00012904271772681976
-0.4744309837085893,-0.4744309837085893,1.000112263344135,0.00013745035141607957
-0.47423709561116995,-0.47423709561116995,1.0000797507547228,0.00013281392842813438
-0.4740400598180713,-0.4740400598180713,0.9998236643211795,0.000128375858393347
-0.4739639219595119,-0.4739639219595119,0.9998467561512125,0.00013632484531083563
-0.47384991332073695,-0.47384991332073695,1.0001700699352105,0.00013700692190682975
-0.47369518348714335,-0.47369518348714335,1.0000914559502452,0.00012500901531933492
-0.47348527021531484,-0.47348527021531484,0.9998830698190174,0.00014219380767988178
-0.4733235295425402,-0.4733235295425402,1.000121098583498,0.00012917514714701298
-0.47318636284035165,-0.47318636284035165,1.0002521171440413,0.00012434982326526482
-0.47311234577500727,-0.47311234577500727,0.9998892644377457,0.00013424833533228693
-0.47299849862465637,-0.47299849862465637,1.0001213088226708,0.00012970305076368346
-0.4728527141007362,-0.4728527141007362,0.9999746327734116,0.00012480043186347464
-0.4727483597409446,-0.4727483597409446,1.0000809209629344,0.00013512651449589842
-0.47264027793135027,-0.47264027793135027,1.0000667635225076,0.00013347276979736866
-0.4724494527763454,-0.4724494527763454,0.9999439501729681,0.0001355738466534882
-0.4723260760481935,-0.4723260760481935,0.9998745665287678,0.00013625689507380036
-0.47223002758983057,-0.47223002758983057,1.000284215769655,0.00013769853238788221
-0.4721098311681999,-0.4721098311681999,1.0001692695135727,0.00013092615539491117
-0.47203563748335,-0.47203563748335,0.9999362156660185,0.00012330242723518348
-0.471856616155128,-0.471856616155128,0.9999265963265952,0.0001329745922053857
-0.47172737001383214,-0.47172737001383214,0.9999114247118328,0.00012426374974482102
-0.4716124513099203,-0.4716124513099203,1.0000932057295417,0.00012753963783488221
-0.4714920597558375,-0.4714920597558375,0.9999417844181963,0.00013618942671206758
-0.4713741257262882,-0.4713741257262882,0.9999544764103362,0.0001235739711559083
-0.47124651217309294,-0.47124651217309294,1.0000541358570398,0.00013343366548427985
-0.4711174152558669,-0.4711174152558669,1.0000308860035743,0.0001284102647660426
-0.4709493268164806,-0.4709493268164806,0.9998944880636914,0.0001258665788442313
-0.4707163347455207,-0.4707163347455207,0.9999412430279447,0.0001359949909161001
-0.47059788479818965,-0.47059788479818965,0.9999440157411756,0.0001382895811095137
-0.4704958983114921,-0.4704958983114921,0.9999761411452542,0.00013103554904179686
-0.47035579700313973,-0.47035579700313973,0.9999112835652515,0.0001253807449710174
-0.47028370129701214,-0.47028370129701214,1.000021880141498,0.00013291647918968886
-0.4702340611402178,-0.4702340611402178,1.0001845647979641,0.0001272721897939627
-0.47015409676823766,-0.47015409676823766,0.9999549285365708,0.00012309882572257683
-0.47003671077254694,-0.47003671077254694,1.0000922169889919,0.00013467413935351445
-0.4698085798765533,-0.4698085798765533,1.000072547407587,0.00013866382520720264
-0.4696813313930761,-0.4696813313930761,1.0001872607478366,0.0001233574364271683
-0.4694952972466126,-0.4694952972466126,0.9998807653024395,0.0001255327420881642
-0.46939570763206573,-0.46939570763206573,1.00000028288869,0.00012470591736761275
-0.4693264525383711,-0.4693264525383711,0.9999984848703594,0.00013734551724526163
-0.4692212632478913,-0.4692212632478913,0.99999145719478,0.00012446272192053972
