time,time,flux,flux_err
-0.49987302193039795,-0.49987302193039795,0.9997975162724622,0.0003656175723085472
-0.4997932609607233,-0.4997932609607233,0.9995475404065368,0.00032187815733047503
-0.49972178821917623,-0.49972178821917623,0.9997102329870579,0.00030396644538230864
-0.49961510371940676,-0.49961510371940676,1.0000548024764626,0.0003222972893410491
-0.4994947211962426,-0.4994947211962426,0.999816835625164,0.0003270618223043246
-0.49933315911039244,-0.49933315911039244,1.0005403236409465,0.0003103546811842201
-0.4992360776261194,-0.4992360776261194,1.0002830030051935,0.0003033905683441624
-0.4991714604489971,-0.4991714604489971,0.9999036130368217,0.00029833666317003886
-0.499065287472331,-0.499065287472331,0.999972984907138,0.00030247395644615474
-0.4989735159295378,-0.4989735159295378,1.0005216329600448,0.00030670519401179616
-0.4988684805110097,-0.4988684805110097,0.9998007372420521,0.00032717641189609
-0.4987715969531564,-0.4987715969531564,0.9998859543977137,0.00030999147376206356
-0.49869186071737204,-0.49869186071737204,0.999814349459989,0.0003078035806150692
-0.49857492169830947,-0.49857492169830947,1.0001638153999366,0.0003616668822514742
-0.49848331822140607,-0.49848331822140607,1.0002568984189808,0.00029829718083936485
-0.4984034988010535,-0.4984034988010535,0.9997976667659063,0.0003320581336069219
-0.498294418133446,-0.498294418133446,0.9999523892164189,0.00033807334620566704
-0.49814701634168157,-0.49814701634168157,1.000570186625503,0.0003237703399967804
-0.497963720196276,-0.497963720196276,1.0000967632668987,0.00032089980311409864
-0.49784705388883593,-0.49784705388883593,1.0006808934010039,0.00030904300705762104
-0.4977707378420746,-0.4977707378420746,0.9998479786903344,0.0002970439073152472
-0.49766348698176444,-0.49766348698176444,0.9996126187260203,0.00028325279799055103
-0.49758523070195226,-0.49758523070195226,0.9996211384984266,0.00030614210465286366
-0.49747026038821784,-0.49747026038821784,0.999771220302982,0.0003356783718860709
-0.4973957475274801,-0.4973957475274801,0.9999525771071858,0.00032069329423877873
-0.4973068801278714,-0.4973068801278714,0.9995966949707897,0.00031112172957667645
-0.4971934957808116,-0.4971934957808116,1.000112138975338,0.0003419160931481135
-0.4971305273065809,-0.4971305273065809,1.0003702938569492,0.00030835469945015247
-0.49701057728088927,-0.49701057728088927,1.0004350558855284,0.00031647606411772783
-0.4968677089986159,-0.4968677089986159,0.9997643181655554,0.00033932929784383735
-0.4966926592576783,-0.4966926592576783,1.000192180052602,0.00032802518291312737
-0.4965712541219546,-0.4965712541219546,1.0001300710777852,0.0003173361490779136
-0.49647574763803276,-0.49647574763803276,1.0002923988462893,0.00032444594109696156
-0.49635096595739014,-0.49635096595739014,1.0000594881768814,0.0002744745261788674
-0.49621205938456114,-0.49621205938456114,0.9996895256986644,0.00027844147539227333
-0.49612924660614227,-0.49612924660614227,0.9997485629832555,0.0003399157879096376
-0.496041812931071,-0.496041812931071,0.9999352366859713,0.0003263156598179197
-0.49597881800727917,-0.49597881800727917,1.000103131991715,0.00030431898447275335
-0.49587436514266303,-0.49587436514266303,0.9998047657668744,0.00030518238824457113
-0.4957797094626585,-0.4957797094626585,0.9999726586291988,0.0003059597517962328
-0.4957089753908804,-0.4957089753908804,1.0001063724879145,0.00030537744973743535
-0.4955664168664953,-0.4955664168664953,0.9993868532601379,0.00032152451463981954
-0.49545413980958986,-0.49545413980958986,0.999972561287248,0.0003590204941625605
-0.49534282087697645,-0.49534282087697645,1.0000574607906894,0.00030008882954206466
-0.49519930907699744,-0.49519930907699744,1.0001089001794865,0.0003087618881449532
-0.4951271457714029,-0.4951271457714029,0.9995380629039026,0.00031759103514826466
-0.4949671073060017,-0.4949671073060017,0.9999014347313351,0.00027448967649272224
-0.49481908459274565,-0.49481908459274565,0.9997339852827857,0.00027722307951765537
-0.4947248666110681,-0.4947248666110681,1.0000063112059967,0.00034184264333751284
-0.49463408622541466,-0.49463408622541466,0.9999291365835636,0.00031628526324757616
-0.4945770959951915,-0.4945770959951915,0.9996882758450247,0.0003247258516196709
-0.4945158033748157,-0.4945158033748157,1.0002486707266744,0.00030524854215605317
-0.49443590931768994,-0.49443590931768994,1.0003096599888772,0.0003569106660325792
-0.4943237708619563,-0.4943237708619563,0.9999736346583322,0.0003030269291494747
-0.4941806095041102,-0.4941806095041102,1.0000432984232273,0.00030825609730747254
-0.49404523003904616,-0.49404523003904616,1.0010104253160377,0.0003287946174302979
-0.49393613401043696,-0.49393613401043696,1.0005232439905867,0.000314447896316717
-0.49381132269627415,-0.49381132269627415,1.0000009725535128,0.0003135940228219951
-0.49369434658437966,-0.49369434658437966,0.9997991342083914,0.00030464786414774605
-0.4935255581716774,-0.4935255581716774,1.0000683829139878,0.0002731558704456835
-0.49337609031645113,-0.49337609031645113,1.0002658872885315,0.0003255346645764696
-0.4932726602972252,-0.4932726602972252,0.9998941544661776,0.0003263995406088126
-0.4931929315382149,-0.4931929315382149,1.0001210754770233,0.0003156891095737036
-0.49309490583837035,-0.49309490583837035,0.9997974369028781,0.0003046179626488621
-0.4930426646518754,-0.4930426646518754,0.9994910496070917,0.0003316354212572503
-0.4929132363118697,-0.4929132363118697,1.0002688357807314,0.00032509171739182076
-0.49275742607715073,-0.49275742607715073,0.9998191584456985,0.0002939747701323134
-0.4926284734363435,-0.4926284734363435,1.0000824144156226,0.00032548677058121266
-0.4925838401599322,-0.4925838401599322,1.0001184451782001,0.0003042305104486322
-0.4924688981089275,-0.4924688981089275,1.000160028443613,0.0003579356600121454
-0.49239876689971424,-0.49239876689971424,1.000106224128753,0.0003016253287777118
-0.4922262319829315,-0.4922262319829315,0.9999024845499038,0.00031218635040847393
-0.49206330852757674,-0.49206330852757674,1.0001997331896149,0.0003184378604466431
-0.4919496337795863,-0.4919496337795863,1.0002029388421396,0.00033050200358129795
-0.49186076521873473,-0.49186076521873473,1.000108655960005,0.0003033896893816412
-0.49178314164164477,-0.49178314164164477,1.0000497596270264,0.00032429351006444686
-0.49171155808435285,-0.49171155808435285,1.0003377080108602,0.00032634713227852174
-0.49163097407727036,-0.49163097407727036,0.9997580907253327,0.0002894291299147627
-0.49150333538709673,-0.49150333538709673,1.0001546898532232,0.00029546690800039284
-0.49137097052298484,-0.49137097052298484,0.9998368238563209,0.00031871284233374114
-0.49125325287750454,-0.49125325287750454,1.0001442964331364,0.0003408807468572439
-0.49116256872948727,-0.49116256872948727,0.9997318347547994,0.00030533147083618465
-0.49108394789509474,-0.49108394789509474,1.0003836173090108,0.0003523307772149252
-0.49093091588292737,-0.49093091588292737,1.0000566779384203,0.0003054848357757026
-0.4907894949341426,-0.4907894949341426,1.000118298274862,0.00030434751583844515
-0.4906324223120464,-0.4906324223120464,1.0003358427796631,0.0003462405528525005
-0.4905600455764215,-0.4905600455764215,0.999923726792014,0.00032243215699843025
-0.49043422145769,-0.49043422145769,1.0003499819534665,0.0003290659554851892
-0.49037349195568825,-0.49037349195568825,1.0002089587972962,0.00028506357968299253
-0.4903037489275448,-0.4903037489275448,1.0001217973991374,0.0003200955141117744
-0.4902105297718663,-0.4902105297718663,0.9999728892429738,0.0002967848750458235
-0.49011687947786414,-0.49011687947786414,0.999809497757763,0.0002935623996566677
-0.4899891072884202,-0.4899891072884202,1.00001856345397,0.00030904082918243166
-0.48990544869739094,-0.48990544869739094,1.0002255717586643,0.0003092601039016346
-0.4898276331310626,-0.4898276331310626,1.0000315956644124,0.00034047399764965515
-0.48976474498340394,-0.48976474498340394,1.0000633628790943,0.0003163666709281501
-0.48962647141015625,-0.48962647141015625,1.0001900566487616,0.00033699116816879787
-0.4894270866148872,-0.4894270866148872,1.0000785596947286,0.00027342544252072226
-0.4892650046618655,-0.4892650046618655,0.9999240717098662,0.00036115855682660873
-0.48921958031423857,-0.48921958031423857,0.9998401431381947,0.000312141028321148
-0.48914000421937087,-0.48914000421937087,1.0002359555197944,0.00036539482644662176
-0.4890280423569493,-0.4890280423569493,0.9999632782846708,0.00033466074278693696
-0.48893910385959316,-0.48893910385959316,1.0000633643847676,0.0002848772333099047
-0.4888232378783869,-0.4888232378783869,1.0000486610913264,0.00028770991545812064
-0.48869126054632944,-0.48869126054632944,0.9998969011202409,0.00031370844625431117
-0.48859771974093746,-0.48859771974093746,0.999923752090967,0.00031869163219710826
-0.4884992735082051,-0.4884992735082051,1.000320801769887,0.0003018297210400867
-0.4884330765722552,-0.4884330765722552,0.9999980378593927,0.00033740006264194183
-0.4883236482652137,-0.4883236482652137,1.000490091798208,0.00034174272003455636
-0.4881630142452195,-0.4881630142452195,1.0001718546209646,0.00028351941628062887
-0.4880342431162717,-0.4880342431162717,0.9997066187810294,0.0002730324893456516
-0.48789644010248595,-0.48789644010248595,0.9997774425888719,0.00039371564841149083
-0.487841537190252,-0.487841537190252,0.9997676367791254,0.00029859931600721175
-0.4877338691847399,-0.4877338691847399,1.0000788491335015,0.0003335330652068817
-0.4876110390148824,-0.4876110390148824,0.9997650831097401,0.0003168745056144206
-0.48751568301813675,-0.48751568301813675,1.0000925869886457,0.0002837388986051731
-0.4874154658871703,-0.4874154658871703,1.0000747214620902,0.00029016600011781213
-0.48727066919382195,-0.48727066919382195,1.000358595512443,0.00030239098488425725
-0.48718376095639543,-0.48718376095639543,1.0000394940643993,0.0003119712824762188
-0.4871011553652352,-0.4871011553652352,1.0000889271066247,0.00031405006753171223
-0.48700420774694064,-0.48700420774694064,1.0000017159988457,0.00032992887715384923
-0.4868685329623986,-0.4868685329623986,1.0002264614946443,0.00032408188408287775
-0.4867028228356503,-0.4867028228356503,1.000332440190594,0.0002853951509358693
-0.48657150133512916,-0.48657150133512916,1.000171638952907,0.0003076822706460868
-0.4865017290459946,-0.4865017290459946,1.0004392188164637,0.00035222516558755274
-0.4863868191430811,-0.4863868191430811,1.0000110391260322,0.0003331330349152664
-0.4862449709267821,-0.4862449709267821,1.0000235787064327,0.0003058946566776978
-0.4861416510801064,-0.4861416510801064,1.000427921726963,0.000304077530076095
-0.4860795258340659,-0.4860795258340659,0.9998713562178837,0.00028940864200137297
-0.4859271570399869,-0.4859271570399869,1.0000978624101158,0.0002974545528326472
-0.48587189975951334,-0.48587189975951334,1.000303854575095,0.0003078346274091427
-0.48576392664108425,-0.48576392664108425,0.9997803068156962,0.0003174171450992515
-0.4856215175270336,-0.4856215175270336,0.9999402231978178,0.00033689909963350906
-0.48544282544753514,-0.48544282544753514,1.0002481330724209,0.00033567264641726793
-0.48532465523167045,-0.48532465523167045,0.9998589363474126,0.00029691540190454906
-0.4852063693542732,-0.4852063693542732,0.9996595987514809,0.0003064061297122526
-0.48512739857833365,-0.48512739857833365,1.0000284797226702,0.0003423883124587626
-0.48504368547583,-0.48504368547583,1.0002992078320727,0.0003358820524907202
-0.48489014510414563,-0.48489014510414563,0.9999416716965893,0.00032849596678458164
-0.4847702197759645,-0.4847702197759645,0.9998475646062417,0.00034386927419092394
-0.4846661500429036,-0.4846661500429036,1.000047696899759,0.00028475925413978483
-0.48455307133554015,-0.48455307133554015,0.9999568101801557,0.0003070879089794715
-0.4844615568523295,-0.4844615568523295,1.0002147364058458,0.00032395051156911914
-0.48434365616412833,-0.48434365616412833,0.9996444537571388,0.000303742911336427
-0.48413923645275647,-0.48413923645275647,1.0000936267459015,0.00036040850061966453
-0.4840098837041296,-0.4840098837041296,1.0000587932263598,0.0003071914662059653
-0.4839019534440013,-0.4839019534440013,0.9997115296888579,0.0002869115467796446
-0.4838098294858355,-0.4838098294858355,1.0002800611953826,0.00030960268130892277
-0.4837286478606984,-0.4837286478606984,0.99990775390139,0.0003309773279067073
-0.48363760669599287,-0.48363760669599287,0.9999046211766075,0.0003208524208209003
-0.483481106130057,-0.483481106130057,1.0000885563629487,0.00030077069524933267
-0.4833493035432184,-0.4833493035432184,1.0001100732843466,0.0003037675780878612
-0.48325619198440106,-0.48325619198440106,0.9997009127906914,0.00030677857105509775
-0.4831667681079125,-0.4831667681079125,0.999719238825897,0.00028929305046692527
-0.48308696162712295,-0.48308696162712295,1.0002291143036897,0.00032279513247863187
-0.4829311722831335,-0.4829311722831335,1.0000606120756381,0.00038003165431343733
-0.4827089185680961,-0.4827089185680961,1.000026160824995,0.0003542958016899286
-0.48260476216091774,-0.48260476216091774,1.0000599069722695,0.00030724281583606987
-0.4824881117849145,-0.4824881117849145,0.9998087421916433,0.00030343206216976843
-0.4824215575848939,-0.4824215575848939,1.0001643343643063,0.00029907879740772013
-0.4823580765107181,-0.4823580765107181,0.9999407631017017,0.00035032805609679064
-0.4822195449611172,-0.4822195449611172,1.000114540084104,0.0003000719053328607
-0.4820544281421462,-0.4820544281421462,1.0002743147677937,0.00031895595742381774
-0.4819042236340465,-0.4819042236340465,0.9997906793858828,0.00030342604351926857
-0.4818466164462734,-0.4818466164462734,0.9997310786159087,0.00028707307403748615
-0.4817615852341987,-0.4817615852341987,1.0000105023150623,0.0003027810744213565
-0.481664956259192,-0.481664956259192,0.9999200108412927,0.00030392801829693593
-0.4814281325147022,-0.4814281325147022,1.0006030162746289,0.00039056453549268864
-0.48125903636973816,-0.48125903636973816,0.9996277552960915,0.00035627600106869053
-0.4811636204685783,-0.4811636204685783,1.0001574680149328,0.00029313406795451963
-0.48107435487327166,-0.48107435487327166,1.0001999159313624,0.00031299231860414556
-0.48102426175901203,-0.48102426175901203,1.0000087214321032,0.00030734832502298545
-0.48097712933667935,-0.48097712933667935,1.000302056416539,0.00029934701352543847
-0.48088531848043203,-0.48088531848043203,1.0001782728734103,0.00030885740767586046
-0.48070054321724454,-0.48070054321724454,0.9998774818105215,0.0003089960818046486
-0.48056919208320326,-0.48056919208320326,1.0007765181190353,0.00033815552416192494
-0.48046750320354475,-0.48046750320354475,1.0001388293563085,0.0003088242637848067
-0.4803800334862899,-0.4803800334862899,0.9999316921143357,0.00029061450064765763
-0.48029285912634806,-0.48029285912634806,1.000497612538279,0.000357547681285986
-0.48004227541096045,-0.48004227541096045,1.0002513554725763,0.00033788947616648587
-0.4799049863911932,-0.4799049863911932,1.000354432257501,0.0003423223163674313
-0.4797982844727812,-0.4797982844727812,0.9997853004818257,0.0003135273659289399
-0.47972194925823713,-0.47972194925823713,1.0003461039774195,0.0002924412317781233
-0.4796551841456676,-0.4796551841456676,1.0001967766433386,0.00031342970357762313
-0.47958199653076006,-0.47958199653076006,1.0000716604136908,0.00032253362364076903
-0.4794780537398765,-0.4794780537398765,1.000600338626009,0.0002918467088569221
-0.47932016682752876,-0.47932016682752876,1.0000052196583966,0.00033248107567766143
-0.4792021939792903,-0.4792021939792903,1.0000499236196898,0.0003379384589369618
-0.4791112773731584,-0.4791112773731584,1.0006294743815016,0.0003080290888506656
-0.4790444754413329,-0.4790444754413329,1.0000803008536547,0.00028557386327336367
-0.47897866431158037,-0.47897866431158037,0.9999169124013368,0.0002855458109695972
-0.4788682195270667,-0.4788682195270667,0.9998637913862796,0.00035644487286616507
-0.47865467661758887,-0.47865467661758887,1.0002542180098792,0.00033439366413871055
-0.4785290865052957,-0.4785290865052957,0.9999450276910944,0.0003334919525701241
-0.47841608987364453,-0.47841608987364453,1.0001410118731227,0.0003203923629154291
-0.47834017960703934,-0.47834017960703934,0.9998282516939717,0.0003027277541757871
-0.4782603196828859,-0.4782603196828859,1.0001606140976662,0.00031294404402594126
-0.4781831950414926,-0.4781831950414926,1.0000483772629027,0.00032705943919089664
-0.4780933321279008,-0.4780933321279008,0.9997365868281856,0.00029418952903464176
-0.477954575693002,-0.477954575693002,0.999794019681104,0.00035128724805491123
-0.47787779349891935,-0.47787779349891935,1.000274439894828,0.0003148969466667703
-0.47774745511705985,-0.47774745511705985,0.9998769117243068,0.00033623636456716927
-0.4776422361988807,-0.4776422361988807,1.0000682173831261,0.0002856027145912791
-0.4775635106721893,-0.4775635106721893,1.000241565256886,0.0002859018245588943
-0.47736304509744515,-0.47736304509744515,0.9999010767858089,0.0003583659798657147
-0.4771957908960758,-0.4771957908960758,0.999691153652319,0.000327056626026842
-0.4770866543665761,-0.4770866543665761,1.0000498751159443,0.00032908339579794925
-0.4769960915204138,-0.4769960915204138,1.0000924964072408,0.0003332730018877176
-0.476924326189328,-0.476924326189328,0.9999118988526934,0.0003058614319890858
-0.47682979072560555,-0.47682979072560555,1.0005466962301577,0.0003345662588821467
-0.4767568874405697,-0.4767568874405697,1.000398589264542,0.00028074080980796496
-0.4766480465390487,-0.4766480465390487,0.9996518857666935,0.0002916206000674342
-0.4765424103708938,-0.4765424103708938,1.0002857409699584,0.00032056592191140234
-0.4764281859563198,-0.4764281859563198,0.9994898067926664,0.000342267429453062
-0.47630041611555496,-0.47630041611555496,1.0003361249515286,0.0002857593043912168
-0.4762089692929294,-0.4762089692929294,1.000013421958493,0.0002800289803551991
-0.4760573521081824,-0.4760573521081824,0.999736714162788,0.0003392027186291922
-0.4758888874406694,-0.4758888874406694,1.0002925415892785,0.00030911667455706186
-0.47577497019665316,-0.47577497019665316,1.000173825445001,0.00031500820458501893
-0.4757298564130906,-0.4757298564130906,0.9997040471539232,0.0003881809582833537
-0.4756788434344344,-0.4756788434344344,1.0001857034463226,0.00030806995139441893
-0.4755845756852068,-0.4755845756852068,1.0002009795655353,0.00032738954405261614
-0.47550797743315343,-0.47550797743315343,1.0000189137258286,0.0003087161500823662
-0.4753977510117693,-0.4753977510117693,1.0000589920023923,0.0003366134310374434
-0.47530048759654164,-0.47530048759654164,1.000260891172237,0.00029138479983251137
-0.47521513094252443,-0.47521513094252443,1.0001904862338602,0.00030831540815488227
-0.4751215785217937,-0.4751215785217937,0.9998078286246057,0.00031790770767112616
-0.47498283174354583,-0.47498283174354583,1.0001857277665764,0.0003293971956003851
-0.47482373294478747,-0.47482373294478747,1.0003652664905585,0.00027865601814781795
-0.47471179654530715,-0.47471179654530715,0.9997688720330515,0.0003522088950435664
-0.47454029285581784,-0.47454029285581784,0.999999856804196,0.0003692769190690135
-0.4744095059955725,-0.4744095059955725,0.9998240967880735,0.0003242310983858679
-0.4743638418032788,-0.4743638418032788,0.9998154273581863,0.00034880955354397894
-0.47430421805765943,-0.47430421805765943,0.9998312281024047,0.0003460976103837279
-0.4741910873679444,-0.4741910873679444,0.9999187979519174,0.0003340422786028783
-0.4741105315362802,-0.4741105315362802,1.000329128876896,0.0002899754896611777
-0.47400292178499515,-0.47400292178499515,0.9997667034959988,0.0003141545208843455
-0.47392397981602696,-0.47392397981602696,0.999862203733182,0.00030159828925062056
-0.4738449259195477,-0.4738449259195477,1.000289719590937,0.0002915964343939878
-0.47376373295264784,-0.47376373295264784,0.9999940548322404,0.00031527911238161493
-0.4736131029960234,-0.4736131029960234,0.9996750274537944,0.00035609118429958975
-0.47343476163805465,-0.47343476163805465,1.000200005299504,0.0002780299105782858
-0.4732897821231745,-0.4732897821231745,0.9998700763000855,0.0003591166314701309
