time,time,flux,flux_err
-0.4995233873480653,-0.4995233873480653,1.000007262577307,7.589077147957232e-05
-0.4986355467369137,-0.4986355467369137,1.0000468007828542,7.590604409623113e-05
-0.4977361759539842,-0.4977361759539842,1.0000204514141273,7.591213568451771e-05
-0.49692511364708025,-0.49692511364708025,0.9999807318136356,6.943874157791337e-05
-0.4961664206825077,-0.4961664206825077,0.9999265143105465,6.942464770958633e-05
-0.4954489123882297,-0.4954489123882297,0.999967961306299,6.905941161663592e-05
-0.49473548267083345,-0.49473548267083345,1.0000431953308584,6.944680442101496e-05
-0.4939871749361771,-0.4939871749361771,1.0000412852666223,6.942385653340963e-05
-0.49325843021691185,-0.49325843021691185,1.0000154727749124,6.943738470310201e-05
-0.49253288292691194,-0.49253288292691194,0.9999528161283127,6.904525709876563e-05
-0.49176062670513543,-0.49176062670513543,1.0000800407011252,6.943073462855707e-05
-0.49106421609515394,-0.49106421609515394,0.9999574181763299,6.94058249580409e-05
-0.49036402257429756,-0.49036402257429756,0.999948791026729,6.905085985159476e-05
-0.4895986683597954,-0.4895986683597954,1.0000300892125362,6.942289834891578e-05
-0.4889022658090312,-0.4889022658090312,0.9999832827579483,6.940343604483156e-05
-0.48820208040972657,-0.48820208040972657,1.0000159486076516,6.904449505699828e-05
-0.48741941448697335,-0.48741941448697335,1.00016806441303,6.9418996915729e-05
-0.4866918884932119,-0.4866918884932119,1.0001398968137436,6.940066940734215e-05
-0.4859432841092087,-0.4859432841092087,0.9998702891763859,6.903418835971764e-05
-0.4852055701390981,-0.4852055701390981,1.0000071777869466,6.941285238477289e-05
-0.48449188874413096,-0.48449188874413096,1.0000834568848909,6.939237293280476e-05
-0.48377442398623033,-0.48377442398623033,1.0000020506468776,6.903886450546031e-05
-0.48303669390958814,-0.48303669390958814,1.0001072223671852,6.940753231202717e-05
-0.48229534812967356,-0.48229534812967356,0.9999882079412405,6.938099258144922e-05
-0.48155713715423476,-0.48155713715423476,0.9999097507759378,6.903147592593179e-05
-0.480847063424514,-0.480847063424514,1.0000524310959082,6.940320896860146e-05
-0.4801887679360505,-0.4801887679360505,0.9998530944299633,7.040122714039238e-05
-0.4796481772828912,-0.4796481772828912,1.000089307765013,7.078246133970524e-05
-0.4790863820826189,-0.4790863820826189,1.0001342263380337,7.044266767950103e-05
-0.4785187750289566,-0.4785187750289566,1.000090953633348,7.046687470683497e-05
-0.47796627314621104,-0.47796627314621104,0.9999018142366654,6.9074121541014e-05
-0.47744296263835795,-0.47744296263835795,0.9999527343717045,6.94783853666206e-05
-0.4768984717987081,-0.4768984717987081,1.0000867511346887,6.911398121724916e-05
-0.4763377673498468,-0.4763377673498468,0.9998905338960997,6.915117169687348e-05
-0.47577318315871653,-0.47577318315871653,0.9999585647178796,6.910775869714144e-05
-0.475229101569019,-0.475229101569019,1.0000213696102214,6.952103124314349e-05
-0.4747019147635115,-0.4747019147635115,0.9999653626170744,6.914439021300226e-05
-0.47415157179906375,-0.47415157179906375,0.9999555815141038,6.9199035779336e-05
-0.47359047106858726,-0.47359047106858726,1.0000249592485992,6.9136703050649e-05
-0.47306712771142545,-0.47306712771142545,0.9999990826805238,6.956973599883746e-05
-0.47253994901818713,-0.47253994901818713,1.0001252467096515,6.917594906709533e-05
-0.47198958999524054,-0.47198958999524054,0.9999725912113793,6.923949011899432e-05
-0.4713202531566793,-0.4713202531566793,0.9999692956915208,6.960835505463642e-05
-0.4706969071422492,-0.4706969071422492,1.0000059122144673,6.929292391195256e-05
-0.4700403638150988,-0.4700403638150988,0.9999692405666674,6.964653169024942e-05
-0.4694816892982999,-0.4694816892982999,0.9999730242582483,6.93032356973174e-05
-0.4689597309847244,-0.4689597309847244,0.9998602092824896,6.92302454451657e-05
-0.46843636270936884,-0.46843636270936884,1.0000287840968607,6.922432169147074e-05
-0.4678783901645403,-0.4678783901645403,1.0000492290496457,6.970034386339868e-05
-0.4673197077078612,-0.4673197077078612,0.9999816158854958,6.934130952613716e-05
-0.4667977654684449,-0.4667977654684449,1.0000187655650643,6.925936548747509e-05
-0.466274405240145,-0.466274405240145,1.0001153545576476,6.924658200260757e-05
-0.4657164165957141,-0.4657164165957141,1.0000773015192892,6.972362974389026e-05
-0.46515772621080487,-0.46515772621080487,0.9999998331553901,6.937332222500274e-05
-0.46463580003972993,-0.46463580003972993,0.9999959244234429,6.927043431854228e-05
-0.4640986113786255,-0.4640986113786255,0.9999858909537324,6.925278832814432e-05
-0.4635371475232063,-0.4635371475232063,0.999893207486086,6.971969159479429e-05
-0.4629784492100441,-0.4629784492100441,0.9999509259148482,6.937471409558155e-05
-0.46245206437799025,-0.46245206437799025,1.0000592687707284,6.924688755852575e-05
-0.4619203740804522,-0.4619203740804522,1.000063728429755,6.926354133672682e-05
-0.46134058228868186,-0.46134058228868186,1.0000296640845072,6.969789249077073e-05
-0.4607749576926608,-0.4607749576926608,1.000078069540042,6.937272097196191e-05
-0.46023821938613024,-0.46023821938613024,0.9999332168719957,6.923411907214117e-05
-0.4596926843503269,-0.4596926843503269,0.9999319781865506,6.924949132438843e-05
-0.45904191352031776,-0.45904191352031776,0.9999430876445121,6.93656463676467e-05
-0.45850040208003406,-0.45850040208003406,0.9999487345484809,6.881065115210194e-05
-0.45795060868472603,-0.45795060868472603,1.0001150378262662,6.96703649078804e-05
-0.4573745938848191,-0.4573745938848191,0.9999586696856884,6.938222265097187e-05
-0.4568482716302299,-0.4568482716302299,0.9999766141668764,6.923827200666577e-05
-0.4563131013358316,-0.4563131013358316,1.0000245727488906,6.92579910271526e-05
-0.4557540436653397,-0.4557540436653397,0.9999116756145323,6.966754364226029e-05
-0.4551953168752732,-0.4551953168752732,0.9999909885184609,6.941490081014635e-05
-0.45466901867692683,-0.45466901867692683,0.9999903519932225,6.9258065920054e-05
-0.45413729956732424,-0.45413729956732424,0.9999679562463346,6.927906573770015e-05
-0.45359207055636547,-0.45359207055636547,1.0001191241186471,6.970597864424015e-05
-0.4530333358682242,-0.4530333358682242,0.9999358562707554,6.947536112355049e-05
-0.45250706172031985,-0.45250706172031985,1.000227403743919,6.93027357111379e-05
-0.4519753346071411,-0.4519753346071411,0.9999498818533625,6.931984957451606e-05
-0.451430097521623,-0.451430097521623,0.9998877935424815,6.975018802929088e-05
-0.45087135494407277,-0.45087135494407277,0.9999775783182259,6.955613536185074e-05
-0.45034510484024964,-0.45034510484024964,1.0000882575017505,6.933879401516551e-05
-0.4498064516178516,-0.4498064516178516,0.9998957862976752,6.935887736036209e-05
-0.4492335340309694,-0.4492335340309694,0.9999970214572371,6.978352344769634e-05
-0.4486747835645929,-0.4486747835645929,0.9999521596187938,6.962057800158763e-05
-0.44813222449907925,-0.44813222449907925,0.999921625887376,6.937017249119591e-05
-0.4475778017471271,-0.4475778017471271,1.0001553849396712,6.936367767860055e-05
-0.4470369693305116,-0.4470369693305116,1.0001098391709125,6.976717792426805e-05
-0.446495506890804,-0.446495506890804,1.000012605500142,6.966609169350939e-05
-0.44595642302687966,-0.44595642302687966,0.9998869032914289,6.937841288091903e-05
-0.44541584504333687,-0.44541584504333687,1.0000826165209615,6.936930583417247e-05
-0.44487499653468204,-0.44487499653468204,0.9999285724584478,6.97546866546663e-05
-0.44433352620963545,-0.44433352620963545,0.9999193704181819,6.967866068342383e-05
-0.44374508473081276,-0.44374508473081276,1.0000265450164174,6.936043975641568e-05
-0.44318000952784475,-0.44318000952784475,1.0000836747696762,6.973195907662138e-05
-0.4426385328975385,-0.4426385328975385,0.9999886568704435,6.96825092891478e-05
-0.44209947785597875,-0.44209947785597875,1.0000478035585914,6.93682557088226e-05
-0.44154161874928377,-0.44154161874928377,1.0000350390297954,6.935165685712464e-05
-0.4410007412793533,-0.4410007412793533,0.9999295016877184,6.969748020538524e-05
-0.4404592567689264,-0.4404592567689264,0.9999617309112088,6.969762402773651e-05
-0.4399375133255063,-0.4399375133255063,0.9999754828471381,6.937341531267217e-05
-0.4393796622525173,-0.4393796622525173,1.0000926430881352,6.936543810703162e-05
-0.4388249317130374,-0.4388249317130374,1.0000579906887297,6.972551518230184e-05
-0.4382771266620466,-0.4382771266620466,0.9998773497404615,6.938980025577303e-05
-0.4377438098340093,-0.4377438098340093,1.0000368674958557,6.976228972407333e-05
-0.4372004096034544,-0.4372004096034544,1.0000206106115326,6.939757798105936e-05
-0.4366594999598675,-0.4366594999598675,0.9999706122449796,6.976906036597219e-05
-0.4361151622632235,-0.4361151622632235,1.0000530939633583,6.943951081143246e-05
-0.43557837028344865,-0.43557837028344865,1.0000568948437873,6.985099514274724e-05
-0.4350211573477679,-0.4350211573477679,1.0000729409066875,6.945664154304575e-05
-0.4344629357053492,-0.4344629357053492,0.9999592113428262,6.983118059914397e-05
-0.4339359020300691,-0.4339359020300691,1.0000019457661082,6.94861788011826e-05
-0.4334025532665322,-0.4334025532665322,0.9999069430492723,6.991144550570595e-05
-0.4328592010754221,-0.4328592010754221,1.0000650260194033,6.948833884883736e-05
-0.43230096335023516,-0.43230096335023516,1.0000339938292346,6.987949778342704e-05
-0.4317739377831572,-0.4317739377831572,0.9999662769275567,6.951160122860016e-05
-0.43124057304984265,-0.43124057304984265,1.0000434703668337,6.9970529306798e-05
-0.43069724487844496,-0.43069724487844496,0.9999612477798152,6.95099703522765e-05
-0.430138991068182,-0.430138991068182,0.99999774472579,6.989561673729625e-05
-0.4296119736110541,-0.4296119736110541,0.999997336156435,6.953491608408026e-05
-0.42903150928608225,-0.42903150928608225,1.0001206923532242,6.96276332565632e-05
-0.42833209104844344,-0.42833209104844344,0.9998373397523442,6.954501751933674e-05
-0.4277987007665075,-0.4277987007665075,0.9999868604835376,7.003018964963117e-05
-0.42725541102120135,-0.42725541102120135,0.9999943893093816,6.953701298589253e-05
-0.4267144273839307,-0.4267144273839307,1.0001472949036654,6.992298477832341e-05
-0.4261701269969535,-0.4261701269969535,0.9999929829746783,6.955541023603401e-05
-0.4256367207423466,-0.4256367207423466,0.9999518819648854,7.004895328631186e-05
-0.4250934550098037,-0.4250934550098037,1.0000428995667252,6.954459454282156e-05
-0.4245524552909103,-0.4245524552909103,0.9999316602458274,6.990412778186587e-05
-0.4240081630127321,-0.4240081630127321,0.9999917363668199,6.955258457645665e-05
-0.4234747407895071,-0.4234747407895071,0.9999969653716348,7.006360734306363e-05
-0.42293149907609406,-0.42293149907609406,1.0001168107054508,6.954282222103876e-05
-0.4223904832732813,-0.4223904832732813,1.0000602265595615,6.989328848351151e-05
-0.42184619910621846,-0.42184619910621846,0.9998953046665522,6.9554529068153e-05
-0.4213127609166918,-0.4213127609166918,0.9999903477082042,7.00749586897173e-05
-0.420769543210244,-0.420769543210244,0.9999463248312563,6.953777731129989e-05
-0.4202285113275536,-0.4202285113275536,0.9999918048555043,6.987921544002082e-05
-0.41968423527101206,-0.41968423527101206,1.0000692983675026,6.955343685539358e-05
-0.419150781109974,-0.419150781109974,0.9999547399736801,7.008278648726175e-05
-0.41860758742035953,-0.41860758742035953,0.9999520449332842,6.953476387454432e-05
-0.41806653945373,-0.41806653945373,1.0001599784949315,6.98761182978689e-05
-0.41752227151006027,-0.41752227151006027,1.0000699573943286,6.956074321515049e-05
-0.41698880138039274,-0.41698880138039274,0.9999568696059546,7.010603698987466e-05
-0.4164283357950012,-0.4164283357950012,1.0000316822252255,6.955853393366317e-05
-0.41586997584752794,-0.41586997584752794,0.9999873370483916,6.989901586044812e-05
-0.41534301191594236,-0.41534301191594236,0.9999830968664123,6.958898843907142e-05
-0.41477141539714923,-0.41477141539714923,0.9998120002454692,6.957538000350957e-05
-0.41422146871253746,-0.41422146871253746,1.0000147711299354,7.018152993072219e-05
-0.4136734116836294,-0.4136734116836294,1.0000602578014157,6.99542739805421e-05
-0.4131464558625623,-0.4131464558625623,0.9999432033894611,6.962900247422073e-05
-0.4125887043439661,-0.4125887043439661,1.0000225717525635,6.961968387795426e-05
-0.41205948914242185,-0.41205948914242185,1.0000827464095046,7.024207956116763e-05
-0.4115114400319072,-0.4115114400319072,0.9999716961728844,7.000268696420851e-05
-0.41098449232310086,-0.41098449232310086,0.9999583280685418,6.966397802623438e-05
-0.41042674882315,-0.41042674882315,0.99999137004058,6.965655901928271e-05
-0.40989750964769484,-0.40989750964769484,0.9999075603967962,7.029909970215743e-05
-0.409349468451515,-0.409349468451515,1.0000208698437594,7.005695934187191e-05
-0.4088225288567173,-0.4088225288567173,1.0000275323750913,6.970512244090156e-05
-0.408264793375389,-0.408264793375389,1.000051195111451,6.970006374309326e-05
-0.4077355302219587,-0.4077355302219587,1.0000345463392493,7.036503331681767e-05
-0.40718749694651135,-0.40718749694651135,0.9999263502960023,7.011280171272768e-05
-0.4066605654634031,-0.4066605654634031,0.9999657996433944,6.974371518921994e-05
-0.40610283800070307,-0.40610283800070307,0.9999676561677024,6.973444190062134e-05
-0.4055735508687235,-0.4055735508687235,1.0000582517256418,7.042460205214132e-05
-0.4050255255122323,-0.4050255255122323,1.0001058040777597,7.017516777126308e-05
-0.4044986021414047,-0.4044986021414047,0.9999360710951493,6.978381535300728e-05
-0.40394088269501083,-0.40394088269501083,1.0001165413739095,6.977925947692055e-05
-0.4034115715833281,-0.4034115715833281,0.9999901082156495,7.049254075280414e-05
-0.402863554148729,-0.402863554148729,0.999868129336086,7.021651181973223e-05
-0.4023366388907334,-0.4023366388907334,0.9999470165237936,6.982090470406956e-05
-0.40177892746353905,-0.40177892746353905,1.0001191842826902,6.981217017353602e-05
-0.4012495923727414,-0.4012495923727414,1.0000329209859693,7.054707963038619e-05
-0.4007015828646502,-0.4007015828646502,0.9999223464014143,7.024046706912324e-05
-0.4001746757102268,-0.4001746757102268,1.0000737991323465,6.984326600470359e-05
-0.39961697230307036,-0.39961697230307036,1.000026951253496,6.982873934557819e-05
-0.39907031765062584,-0.39907031765062584,1.0000466366941112,7.058226978579784e-05
-0.3985223160310937,-0.3985223160310937,0.9999953950514291,7.02500516757961e-05
-0.39796428496396175,-0.39796428496396175,0.9998953835973436,6.98491067482818e-05
-0.3974204260231545,-0.3974204260231545,1.000065712620256,6.983771682758139e-05
-0.39687720650297253,-0.39687720650297253,0.9999716302327404,7.059966286316398e-05
-0.39632575365396006,-0.39632575365396006,0.9999495477236756,7.023956220008423e-05
-0.39576004426962186,-0.39576004426962186,1.0000082055582549,6.98294222721755e-05
-0.3952306420281218,-0.3952306420281218,1.0000715166282208,7.058819643624427e-05
-0.3946757363718632,-0.3946757363718632,1.0000540872017263,7.022046901375881e-05
-0.39407275148923304,-0.39407275148923304,0.9999470363333799,6.982822128033998e-05
-0.3935116107551977,-0.3935116107551977,0.999949427995632,6.980834127134329e-05
-0.39294067425116735,-0.39294067425116735,1.0000659975328643,7.055455992681721e-05
-0.39234772621626346,-0.39234772621626346,1.0000512210504153,7.018992099262643e-05
-0.39176475090364704,-0.39176475090364704,1.0000056847654493,6.979739263130599e-05
-0.3912327991285622,-0.3912327991285622,1.0000093237993444,6.981054508726064e-05
-0.3906887573297581,-0.3906887573297581,0.9999905455428137,7.053187910865751e-05
-0.3901511639860672,-0.3901511639860672,1.0000875981521364,7.018343072904269e-05
-0.389585500459097,-0.389585500459097,0.9999339679933428,6.978491834429402e-05
-0.38903873389195665,-0.38903873389195665,1.0000569742123204,7.052364684689369e-05
-0.3885173715065406,-0.3885173715065406,0.9998882210192896,6.980179673783978e-05
-0.3879891930384673,-0.3879891930384673,0.9999157155670879,7.017472049130032e-05
-0.38739241420502707,-0.38739241420502707,1.0000961675721352,6.979165892747618e-05
-0.38685945985680237,-0.38685945985680237,1.000153741283773,7.053573494053976e-05
-0.3863381134968222,-0.3863381134968222,0.9999482974524134,6.980591201563113e-05
-0.3858099269119094,-0.3858099269119094,1.0000180002067078,7.017450155185798e-05
-0.3852270004229922,-0.3852270004229922,0.9998841994208817,6.978725911152273e-05
-0.3846974811415095,-0.3846974811415095,1.0000465845582656,7.054383391093422e-05
-0.3841761508145112,-0.3841761508145112,1.000083960409248,6.980547042485918e-05
-0.3836479561127561,-0.3836479561127561,1.0000132089881992,7.01476143974814e-05
-0.38306504576278255,-0.38306504576278255,0.9998538202466347,6.976660197931069e-05
-0.38253550249695534,-0.38253550249695534,1.0000068645595213,7.050709136807873e-05
-0.38201418820120236,-0.38201418820120236,1.0000178248122722,6.976462627506922e-05
-0.38148598537797795,-0.38148598537797795,1.0001725688904541,7.008020513072151e-05
-0.3809030911797038,-0.3809030911797038,0.9999405327946782,6.971940597539305e-05
-0.38037352392430535,-0.38037352392430535,1.00004707354413,7.041509330496744e-05
-0.3798522256632822,-0.3798522256632822,0.9998422129063084,6.969402105430465e-05
-0.37932401472380095,-0.37932401472380095,0.9999753870500907,6.998621872376592e-05
-0.37874113666330517,-0.37874113666330517,1.0001132000446353,6.965157682218184e-05
-0.37821154542182855,-0.37821154542182855,1.0000393702195833,7.03096582484112e-05
-0.37769026319552096,-0.37769026319552096,0.9999475432182796,6.963370964585685e-05
-0.37716204413631826,-0.37716204413631826,1.000067025360195,6.991862757855762e-05
-0.37657918221822795,-0.37657918221822795,0.9999608797743565,6.960373545405075e-05
-0.37604956698894226,-0.37604956698894226,1.0000196606684075,7.023426778693841e-05
-0.3755283007990954,-0.3755283007990954,0.9998804349377076,6.960079985591261e-05
-0.3750000736230447,-0.3750000736230447,1.0000401391103249,6.988331315139436e-05
-0.374417227845646,-0.374417227845646,1.000038048653085,6.958489318016548e-05
-0.37384262014775516,-0.37384262014775516,0.9999484925086982,7.020819744466275e-05
-0.37319717135669067,-0.37319717135669067,0.9999977262396038,6.98688752359914e-05
-0.37253851493675255,-0.37253851493675255,1.000116965297355,7.021926386077988e-05
-0.37200790616434176,-0.37200790616434176,1.0000025605704346,6.989822246022251e-05
-0.3714465157888725,-0.3714465157888725,1.0000683730748956,6.961266570070078e-05
-0.3709062142868362,-0.3709062142868362,0.9999801377845661,6.95997782523683e-05
-0.3703509739603049,-0.3703509739603049,0.9999276487424769,6.992071787156541e-05
-0.3698230691589998,-0.3698230691589998,0.999948271859125,7.025479751667451e-05
-0.36926725739150185,-0.36926725739150185,1.0000187182156088,6.963508569422378e-05
-0.3687269638895316,-0.3687269638895316,0.9999955826142116,6.962371636334894e-05
-0.368185544431725,-0.368185544431725,0.9999804746274181,6.99461177665779e-05
-0.36761612085481377,-0.36761612085481377,1.000065131454074,7.028945786172232e-05
-0.36706378437744147,-0.36706378437744147,0.9998464616546094,6.964452696327334e-05
-0.3665131211458913,-0.3665131211458913,1.0000964094504672,6.96389541631398e-05
-0.36595784862324765,-0.36595784862324765,1.0000253224767672,6.995304641878898e-05
-0.3653930218435022,-0.3653930218435022,1.0000256667503757,6.965172655159263e-05
-0.3648112318376803,-0.3648112318376803,1.0000732052988377,6.963411143742125e-05
-0.3641706204457279,-0.3641706204457279,1.0001187987529758,6.929630588085417e-05
-0.36357927540531987,-0.36357927540531987,0.9999575777213574,7.027996683758338e-05
-0.3630539947076102,-0.3630539947076102,0.9999937080764179,6.961017850976737e-05
-0.3625125333997602,-0.3625125333997602,0.9999690428666547,6.99002967840708e-05
-0.36190966903742205,-0.36190966903742205,0.999988877892687,6.960907598504278e-05
-0.36137632081721166,-0.36137632081721166,1.0000993850963666,6.95910389153168e-05
-0.3608465376493655,-0.3608465376493655,1.0001473783608366,7.022044868207163e-05
-0.3603159715976062,-0.3603159715976062,0.9999431214558088,6.985503009425482e-05
