time,time,flux,flux_err
-0.49949975373310734,-0.49949975373310734,1.0005338954721434,0.0003735939664934915
-0.49822694849353866,-0.49822694849353866,0.9997119684038891,0.00037287862968540174
-0.49614598480038696,-0.49614598480038696,0.9998770440229157,0.0003762684452822067
-0.49416574424467397,-0.49416574424467397,0.9999210537101447,0.0003726783439524671
-0.4928005830523034,-0.4928005830523034,1.000119021202446,0.00037389255359454994
-0.4916362233234395,-0.4916362233234395,1.000167013135128,0.00037265790837866805
-0.489954030381341,-0.489954030381341,1.0001990992096093,0.0003769793874982872
-0.4877983846607094,-0.4877983846607094,0.9994534225671663,0.00037259645288235217
-0.48625087798864114,-0.48625087798864114,0.9998185208495919,0.00037374139820308555
-0.48518094693063174,-0.48518094693063174,0.9997990955298993,0.0003727529810448505
-0.483922006690409,-0.483922006690409,1.0005038049140427,0.0003727972958984235
-0.48207840453615064,-0.48207840453615064,1.0005308128798347,0.0003775699984228161
-0.48040286814357386,-0.48040286814357386,0.9997686198208926,0.00037262761930423533
-0.47916944298849556,-0.47916944298849556,1.000392362964109,0.0003742905388412179
-0.47804461770865603,-0.47804461770865603,1.0005765619856115,0.000372889626948363
-0.47640463114948944,-0.47640463114948944,0.9997656673079188,0.00037270770218461927
-0.474786753810622,-0.474786753810622,1.0000758574892692,0.00037808390896668044
-0.47311072371521734,-0.47311072371521734,0.9993963522812365,0.00037331166653738624
-0.4719905436330009,-0.4719905436330009,0.999644703695736,0.00037371157861912385
-0.47017790788959246,-0.47017790788959246,1.0002739203834476,0.0003733099219802039
-0.4684523455267481,-0.4684523455267481,1.0001741101851027,0.000372803582110733
-0.46667941190680723,-0.46667941190680723,1.0003994295528238,0.00037248617251718586
-0.46532924020284555,-0.46532924020284555,1.000094343113513,0.00037487152722704217
-0.4634729729092214,-0.4634729729092214,0.9996924197424246,0.00037326093001380613
-0.4617471494464553,-0.4617471494464553,1.000239305710076,0.00037279228210121537
-0.4599818073380447,-0.4599818073380447,0.9998368190585405,0.00037238327684729796
-0.4586243788537104,-0.4586243788537104,0.9998523805765774,0.0003753649680017108
-0.45676823315006915,-0.45676823315006915,1.0007429656953928,0.0003734106113289761
-0.4546846339966578,-0.4546846339966578,1.0005328219848226,0.00037279097058520825
-0.4530134097956761,-0.4530134097956761,1.0002481397240748,0.0003738124208863495
-0.4516027295016102,-0.4516027295016102,1.0008002015695778,0.00037492560068102
-0.4498131249449216,-0.4498131249449216,1.000052836275653,0.00037321834703640637
-0.4482437332655536,-0.4482437332655536,1.0000130295716956,0.0003727610195276026
-0.4464779614638246,-0.4464779614638246,0.9997383317332161,0.0003736561437267643
-0.4448976077794214,-0.4448976077794214,1.0004435314719387,0.00037537428809172196
-0.4431120585046301,-0.4431120585046301,1.0000080335773855,0.0003732863736806731
-0.44153953024506337,-0.44153953024506337,0.9998996182693066,0.000372666812836331
-0.43977699965907957,-0.43977699965907957,0.9997563656473816,0.0003739854980496078
-0.43819266747304936,-0.43819266747304936,0.9998373814773199,0.0003757902298744014
-0.4366376479905739,-0.4366376479905739,1.0006683344125462,0.00037700690128480887
-0.43530004708882186,-0.43530004708882186,0.9998778667244516,0.00037331862434368307
-0.43383467413732435,-0.43383467413732435,1.0004023883333226,0.00037625053026628825
-0.4323952073624241,-0.4323952073624241,0.9999669968902074,0.0003778984760278006
-0.4308404809424246,-0.4308404809424246,1.0001634178173202,0.0003777976629858356
-0.429441563153523,-0.429441563153523,0.9995597627560894,0.0003734220732776781
-0.42805906421199325,-0.42805906421199325,1.0001786496566751,0.00037272206868306225
-0.4263755808067799,-0.4263755808067799,1.000154575425094,0.000374788071219651
-0.4247668376257934,-0.4247668376257934,0.9998896992777653,0.0003733785768642795
-0.423009982786607,-0.423009982786607,0.9999518438024971,0.00037330716822072914
-0.4216093919283594,-0.4216093919283594,1.0005503322805416,0.0003727182519269082
-0.42007856789787185,-0.42007856789787185,0.999761412281632,0.00037239074381685154
-0.41806749554598355,-0.41806749554598355,1.0000696939112301,0.00037581847693791113
-0.4163096565316664,-0.4163096565316664,1.0002514125381687,0.0003734606639386734
-0.4149040277647146,-0.4149040277647146,1.0001261273840423,0.0003726196126845274
-0.4131233734929992,-0.4131233734929992,1.0003382995811756,0.0003756592953163149
-0.4109925061056856,-0.4109925061056856,1.0001561655159212,0.00037304071046579025
-0.40960950927255907,-0.40960950927255907,1.0004824011916384,0.00037345965322924796
-0.40819889538470305,-0.40819889538470305,1.0006430997187963,0.0003727977189606837
-0.40656672297700425,-0.40656672297700425,1.0003340631314095,0.0003726787382743443
-0.40460640553937993,-0.40460640553937993,0.9998159815629911,0.00037630865300583853
-0.4029095385754772,-0.4029095385754772,0.9992829662813666,0.00037348954472360895
-0.4018216665361251,-0.4018216665361251,1.000709356525866,0.00037310157296548016
-0.4005212322808802,-0.4005212322808802,0.9999051870869072,0.0003725259480615801
-0.398273200566473,-0.398273200566473,0.9991837834701564,0.00037698208760239484
-0.39647316219707135,-0.39647316219707135,1.0010343968812812,0.00037273728110609374
-0.39530659216761704,-0.39530659216761704,0.9995140017836682,0.0003739692387632422
-0.39421266525096144,-0.39421266525096144,0.9996045435359726,0.0003727544901575739
-0.39252140754979337,-0.39252140754979337,1.0000919257215626,0.0003777019372180639
-0.39079456188119366,-0.39079456188119366,0.9999861702203072,0.00037250670231672625
-0.3892529943710542,-0.3892529943710542,0.9999126376646498,0.0003740662438120077
-0.38816895497657244,-0.38816895497657244,0.999629809539125,0.00037282582324017126
-0.3869159061825485,-0.3869159061825485,0.9997128623109969,0.0003727867064456633
-0.3850745572861342,-0.3850745572861342,0.9999690862395806,0.0003780510097208283
-0.3834009781770874,-0.3834009781770874,1.0001357835289786,0.00037257354924660627
-0.38216481026029214,-0.38216481026029214,1.0005834486488734,0.0003745120745330288
-0.38069781843369127,-0.38069781843369127,0.9999624947552089,0.0003728894435283675
-0.37877652646566273,-0.37877652646566273,0.9999759514384534,0.0003731828726548433
-0.37704450481614915,-0.37704450481614915,0.9997526812489689,0.00037259936479192826
-0.3756049267511116,-0.3756049267511116,1.0003390360640654,0.0003746981390376381
-0.37398810736704036,-0.37398810736704036,1.000411758652214,0.0003729608991708254
-0.3720747912877414,-0.3720747912877414,0.9999811650581168,0.00037317126975636346
-0.3703395754098892,-0.3703395754098892,0.9999067502120147,0.00037266780114862365
-0.3689085334626725,-0.3689085334626725,1.0002920705330713,0.00037524330099861973
-0.367278639235883,-0.367278639235883,1.0007273031956294,0.0003728708715887615
-0.36518857974442653,-0.36518857974442653,0.999647278065156,0.0003732287475041572
-0.36329579856610505,-0.36329579856610505,1.0000567205472275,0.0003725943175980863
-0.36191954214737054,-0.36191954214737054,1.000031830405179,0.00037580345185082007
-0.3601894390238158,-0.3601894390238158,0.9996472865213482,0.0003729404912085034
-0.3585825155118073,-0.3585825155118073,1.000504184122456,0.00037319330641591414
-0.3569316149943916,-0.3569316149943916,1.0001024779828018,0.00037251057373003293
-0.35521389696732514,-0.35521389696732514,1.0002089479938663,0.00037644769122534955
-0.3534831290293369,-0.3534831290293369,0.999934453069552,0.0003728748419548477
-0.35188456459291045,-0.35188456459291045,1.0000162300062858,0.0003732243620679097
-0.3502308513117896,-0.3502308513117896,0.9999859260056405,0.0003724603661811842
-0.3485076245160599,-0.3485076245160599,1.0001962456539153,0.0003772099437108831
-0.3469397750457574,-0.3469397750457574,1.0000622173044174,0.0003772084555814309
-0.3455788552928425,-0.3455788552928425,0.9998823995274492,0.00037326915878322655
-0.34415540111367593,-0.34415540111367593,1.0000515940797698,0.0003726125077684533
-0.34250309987037325,-0.34250309987037325,0.9989156841717381,0.00037759940028160734
-0.3407907783839619,-0.3407907783839619,1.000256352498619,0.0003777853533670311
-0.339410544688144,-0.339410544688144,1.0003044706841648,0.00037343792672808144
-0.3380155110353371,-0.3380155110353371,1.0000254465327798,0.00037265248030003397
-0.33648016741644826,-0.33648016741644826,0.9999631221597667,0.0003725424208137472
-0.3348030984729121,-0.3348030984729121,1.0001954816155139,0.00037864630853960647
-0.3330169675195066,-0.3330169675195066,0.9997707461390203,0.00037290404968601975
-0.3317537113725848,-0.3317537113725848,0.9994860534413885,0.0003737533303023126
-0.3304649481389788,-0.3304649481389788,1.0001856889887364,0.00037270627865417227
-0.32849134555799536,-0.32849134555799536,0.999603203156674,0.0003751877452705278
-0.32666117005210255,-0.32666117005210255,1.000269588361656,0.00037300283337706467
-0.3252266484814754,-0.3252266484814754,0.999997458755125,0.0003734850512395262
-0.32362443981473915,-0.32362443981473915,0.999528522817192,0.0003724213925416211
-0.32145815298572417,-0.32145815298572417,1.0003529939910103,0.00037569820367184024
-0.3198009827785427,-0.3198009827785427,0.9997805656927066,0.0003730152672231558
-0.31852505693896094,-0.31852505693896094,0.9997731046614462,0.0003734598791358461
-0.31692281193536476,-0.31692281193536476,1.0004627272636968,0.000372610822137986
-0.31474706738590613,-0.31474706738590613,1.0000507766651001,0.0003762516008869634
-0.3128713814650837,-0.3128713814650837,1.0006290654364867,0.0003726433829901315
-0.3117162932830979,-0.3117162932830979,0.9993082609224173,0.00037394239780873413
-0.3102213562691759,-0.3102213562691759,1.0001488889935168,0.0003725182530072238
-0.30797406909769054,-0.30797406909769054,1.0002914344735054,0.00037707994154910767
-0.30617300546800835,-0.30617300546800835,1.0000635497185646,0.00037251433320387725
-0.30500738901100705,-0.30500738901100705,0.9995578123784599,0.00037389981654689143
-0.30391322182113073,-0.30391322182113073,0.9998491263363677,0.0003726580634275522
-0.3022217463767447,-0.3022217463767447,0.9993284661446312,0.0003775228735352481
-0.30049493679398437,-0.30049493679398437,0.9995134261590095,0.00037247897835416605
-0.2989527758792974,-0.2989527758792974,1.0001868140941723,0.0003739850215742565
-0.29787014395114964,-0.29787014395114964,0.9999961852803718,0.0003727201855854448
-0.2966165082885709,-0.2966165082885709,1.000112549906967,0.00037284475129370536
-0.2947749365659547,-0.2947749365659547,0.9997906650299443,0.0003779859759652116
-0.29310116053529783,-0.29310116053529783,1.0001925647322678,0.0003725863463213663
-0.2918652658299834,-0.2918652658299834,0.9996982597455257,0.0003743668578563645
-0.29060673838393997,-0.29060673838393997,0.9998915366711344,0.00037259423250570167
-0.28890333251911215,-0.28890333251911215,1.0004587417454145,0.0003733432909538225
-0.2870870403450681,-0.2870870403450681,0.9999373622293497,0.0003726131487262781
-0.28555786731958505,-0.28555786731958505,0.9998670494244413,0.000374628632120513
-0.2840123080517515,-0.2840123080517515,0.9996774510641652,0.00037279860150924067
-0.2821994397600065,-0.2821994397600065,0.999758299452416,0.00037327013515021365
-0.28038337162943205,-0.28038337162943205,1.0004133597329934,0.0003725596737730927
-0.2788606468915532,-0.2788606468915532,1.0001709801844654,0.0003752374574745347
-0.2773044215318805,-0.2773044215318805,0.9994361708584801,0.0003727073946177228
-0.2753109039942501,-0.2753109039942501,1.0002048766030918,0.00037332582468125095
-0.2733405524755653,-0.2733405524755653,0.999700071948175,0.0003726091391874272
-0.2719054270310153,-0.2719054270310153,1.0000511492335078,0.00037587629339370747
-0.27027023776172426,-0.27027023776172426,1.0001701313416012,0.00037294987247275195
-0.2686106587971153,-0.2686106587971153,1.0002149321028373,0.0003731205955052431
-0.26697658667108043,-0.26697658667108043,0.9999100780507983,0.0003725867208228772
-0.26520204581538565,-0.26520204581538565,0.9999785327813896,0.00037635437226954323
-0.2635612186830258,-0.2635612186830258,0.9997902923076181,0.00037286345632566315
-0.26191458934554246,-0.26191458934554246,1.00015555103487,0.00037315218639423357
-0.2602734665553726,-0.2602734665553726,0.9996362600536518,0.00037243616399244237
-0.2584988203336252,-0.2584988203336252,1.0001315943611,0.0003771723517785718
-0.2569406233167683,-0.2569406233167683,1.0004049220594977,0.00037689606221683004
-0.2555400391414878,-0.2555400391414878,1.0004635312256593,0.0003734872329637333
-0.2541719452448888,-0.2541719452448888,1.0002413550250158,0.00037272976262913457
-0.25247823925092233,-0.25247823925092233,0.9997130377986421,0.0003756345345565707
-0.25088685587979853,-0.25088685587979853,0.9998641889878037,0.00037476816961620394
-0.24934093131159898,-0.24934093131159898,1.0007003851160352,0.00037753943089406064
-0.2479966905353649,-0.2479966905353649,0.9995275814542104,0.00037330098374173816
-0.24652984370623016,-0.24652984370623016,1.000358497227228,0.0003725760417200208
-0.24479616420067032,-0.24479616420067032,1.0000469272273755,0.00037862112075832656
-0.24306633946471265,-0.24306633946471265,0.9998689610522679,0.0003730054613133464
-0.24170836198754841,-0.24170836198754841,0.999792809263474,0.0003737980819278115
-0.24044368286195095,-0.24044368286195095,0.9996157499668528,0.00037271252716279316
-0.23863036677794297,-0.23863036677794297,1.0002400630337966,0.00037514698513594003
-0.2367273689713329,-0.2367273689713329,1.0002276648955941,0.0003729895155031704
-0.23518584731355077,-0.23518584731355077,0.9992028447006158,0.0003732847563998116
-0.2337378846561478,-0.2337378846561478,1.000316030323025,0.00037264421993449845
-0.23148518328889622,-0.23148518328889622,0.9991841849628749,0.0003754279955603678
-0.22984014054600266,-0.22984014054600266,0.9999289218132477,0.00037317516218200665
-0.22848854865005705,-0.22848854865005705,1.0000476500880917,0.0003734606714001891
-0.22703231921987027,-0.22703231921987027,1.0002949801918315,0.00037264754786163533
-0.22477858192214625,-0.22477858192214625,0.9992977691627779,0.00037606713382808317
-0.22290826203825417,-0.22290826203825417,1.0002551161454138,0.0003726954923070964
-0.22168176353516172,-0.22168176353516172,0.9994932555751503,0.00037384698496686675
-0.22032698145194446,-0.22032698145194446,0.9997641157430348,0.0003727584544169566
-0.2177869308987283,-0.2177869308987283,1.0001089094949218,0.0003768904417492937
-0.21587285018977126,-0.21587285018977126,1.0002745629288055,0.0003725964710155502
-0.2147081873023126,-0.2147081873023126,1.0000520045740884,0.00037392442659613405
-0.21361378032961512,-0.21361378032961512,1.0004152097721015,0.00037271989281128343
-0.2119220881118963,-0.2119220881118963,1.0002084287195627,0.00037758666891695537
-0.21019531316051143,-0.21019531316051143,1.0003740691225933,0.0003725584239413158
-0.20865255980825168,-0.20865255980825168,0.9999323312825957,0.00037396302835211004
-0.20757133510851417,-0.20757133510851417,1.0006916406820974,0.0003728344397775171
-0.20631711233436362,-0.20631711233436362,0.9997267847495028,0.0003727547794269321
-0.2044753163238056,-0.2044753163238056,1.000191095743157,0.0003779899702943417
-0.20313838781730736,-0.20313838781730736,1.0002865210245242,0.0003726184413033075
-0.2018038360765786,-0.2018038360765786,0.9997019223839235,0.0003741496845507457
-0.20058597357929103,-0.20058597357929103,0.9999268622818482,0.00037278797230748254
-0.19888825957095832,-0.19888825957095832,1.0000920066322263,0.00037314107828912785
-0.1971862213285931,-0.1971862213285931,1.000107532705807,0.0003727197837503542
-0.19551123858254868,-0.19551123858254868,0.9999039810492913,0.0003734225120481026
-0.19411506385586108,-0.19411506385586108,0.9995210552800036,0.00037404460148635196
-0.1921879473629815,-0.1921879473629815,0.9998996118070618,0.00037319099511289245
-0.1904784610014758,-0.1904784610014758,0.9995292083715386,0.00037262268007006756
-0.18881208921447978,-0.18881208921447978,0.9998369264596864,0.00037351150554444223
-0.18740951633517397,-0.18740951633517397,0.9999668633158416,0.0003743334795010111
-0.18548783037767863,-0.18548783037767863,1.0000427697634058,0.0003731463686630217
-0.1837708828083123,-0.1837708828083123,0.999570073004848,0.0003727022605497131
-0.18211310454571503,-0.18211310454571503,1.0000560550137516,0.00037376059739162185
-0.18070415918700747,-0.18070415918700747,1.000103065638972,0.0003748050191708726
-0.17878790497707087,-0.17878790497707087,0.9994974491695796,0.0003731589436333517
-0.17696982597335592,-0.17696982597335592,1.000494237837442,0.0003728074454245957
-0.17529895202678744,-0.17529895202678744,0.9997165701518906,0.00037601666872872557
-0.17358992635781761,-0.17358992635781761,1.0008740741469875,0.0003728554290146876
-0.1719388547280687,-0.1719388547280687,1.0000028081102674,0.00037332043391554684
-0.17026308025451725,-0.17026308025451725,0.9999343833748618,0.0003725860713225545
-0.1686007639800664,-0.1686007639800664,0.9992974348916398,0.0003767544286933387
-0.16689639004616766,-0.16689639004616766,0.9999144729218571,0.0003770253711914084
-0.16551140157243935,-0.16551140157243935,0.9994749067680552,0.00037328824129192854
-0.16412245652754792,-0.16412245652754792,0.9999285817364549,0.0003727156621802653
-0.16258213143228203,-0.16258213143228203,0.9998274471094977,0.0003725410416572887
-0.1609078437613789,-0.1609078437613789,0.999955052401916,0.00037761992799671115
-0.1592825446045026,-0.1592825446045026,0.9999174891480649,0.00037774472975070177
-0.15803044290441903,-0.15803044290441903,1.0000279801719103,0.00037341909498207065
-0.15656800596552783,-0.15656800596552783,0.9993662814654959,0.0003724004663425016
-0.1547930884655216,-0.1547930884655216,1.0007101727396386,0.0003784999541901956
-0.15313625602939282,-0.15313625602939282,0.9993536030431807,0.0003729059356889057
-0.15160685196751728,-0.15160685196751728,0.999511407797679,0.0003736426240390332
-0.15045130357757444,-0.15045130357757444,1.0002578312040038,0.00037282152901058454
-0.14877522857204895,-0.14877522857204895,1.0001532928036483,0.0003750802097270877
-0.1467618547474558,-0.1467618547474558,0.9998215265355446,0.00037290465725794503
-0.1451442312420113,-0.1451442312420113,0.9993514119164919,0.0003733490361811201
-0.1437408397316176,-0.1437408397316176,0.999823293816269,0.0003727524985246269
-0.14165305838687345,-0.14165305838687345,0.9994638601444951,0.0003755241338220099
-0.13985722471843473,-0.13985722471843473,0.9998671910840038,0.0003728900605694025
-0.13844600831944262,-0.13844600831944262,0.9997307296339887,0.0003734126094896692
-0.13703061082196655,-0.13703061082196655,1.0002085298818515,0.00037278879895300427
-0.13494784075155622,-0.13494784075155622,0.9997567649737583,0.00037601680150370007
-0.13296788382067462,-0.13296788382067462,0.9996799728227493,0.0003725723734061542
-0.13160025889155805,-0.13160025889155805,0.9998023681067707,0.00037370572598240435
-0.13032061540507128,-0.13032061540507128,1.0002157728358507,0.00037294382868800996
-0.12821598893860936,-0.12821598893860936,0.9999544648771768,0.0003766443032896086
-0.12626206793429445,-0.12626206793429445,0.9997268357501629,0.0003726531067312647
-0.12490121246373746,-0.12490121246373746,0.999745015930696,0.00037385542650161466
-0.12372951869037933,-0.12372951869037933,0.9999350046907305,0.00037269001842308626
-0.12230812099514879,-0.12230812099514879,1.0007117364773834,0.00037267466166799744
-0.12065749094326747,-0.12065749094326747,0.999583395249856,0.0003774853197850855
-0.11887447368935682,-0.11887447368935682,1.0000051650809734,0.0003725019956765306
-0.11770029519466334,-0.11770029519466334,0.9994754512944576,0.0003741296674743835
-0.11660826112420182,-0.11660826112420182,0.9996529126207042,0.0003727586572435284
-0.11491874756175094,-0.11491874756175094,0.9996601434736021,0.0003780846149475057
-0.11319161535648163,-0.11319161535648163,0.999364764583528,0.0003724562263870944
