time,time,flux,flux_err
-0.4998999231902417,-0.4998999231902417,1.0002194520310073,0.0004806934748666485
-0.49981069671703154,-0.49981069671703154,1.000008016455544,0.0004389201301923413
-0.49973155924817547,-0.49973155924817547,1.0000264710619429,0.0003674252830697731
-0.4996240437933011,-0.4996240437933011,0.9999245332721541,0.00036169489749499344
-0.49951566074087167,-0.49951566074087167,1.0001896027028927,0.0004734057323220428
-0.4994648940031766,-0.4994648940031766,1.0004897920250415,0.00045953974542641793
-0.4993372336408356,-0.4993372336408356,1.0001354228884993,0.00044836020339897363
-0.4992485427428619,-0.4992485427428619,1.0000017708856925,0.0004557035747843152
-0.49911613011863665,-0.49911613011863665,0.9995006214093289,0.0004255571823557499
-0.4990225850880961,-0.4990225850880961,1.0003005879272158,0.0004430513624647973
-0.4989393826588639,-0.4989393826588639,1.0000828316646655,0.0003830314782746445
-0.4988859906079597,-0.4988859906079597,0.9996718470587636,0.00044125173984802343
-0.4987572139740223,-0.4987572139740223,1.0001750627063837,0.00043141052773047213
-0.498670121228497,-0.498670121228497,0.9997427937670821,0.00037612823172996664
-0.4985575232254632,-0.4985575232254632,0.9997115595587281,0.000388504952369587
-0.4984381209455023,-0.4984381209455023,0.9999679855074385,0.00044599974559508755
-0.4983943999141047,-0.4983943999141047,0.999973235219802,0.00041226907885429044
-0.4983438305273012,-0.4983438305273012,0.9999410708869819,0.0003613730860706143
-0.4982567536571878,-0.4982567536571878,1.0005769635377006,0.0004564677147193965
-0.49810366907986464,-0.49810366907986464,1.000040687136568,0.00038256624435733003
-0.49794428442546634,-0.49794428442546634,0.9999396742122897,0.00038247992531433044
-0.49784613938609257,-0.49784613938609257,0.999883524818187,0.00046374102657573585
-0.49777767800915174,-0.49777767800915174,1.0001885454811525,0.0003978447306602578
-0.49770191127536234,-0.49770191127536234,1.000103461686068,0.000377173377228968
-0.49756262374139626,-0.49756262374139626,0.9998877601529527,0.00044764714406235527
-0.4973886746454809,-0.4973886746454809,1.0001680481373478,0.0004101524387678966
-0.49729826687762396,-0.49729826687762396,1.0003116313152733,0.0003585950524481388
-0.49718435536851757,-0.49718435536851757,0.9999680144937031,0.0004393357230799939
-0.4970401164180657,-0.4970401164180657,1.0002558153574685,0.0003885991452057725
-0.49695592175921777,-0.49695592175921777,1.0002881183964754,0.0004636705662090119
-0.49682046793022894,-0.49682046793022894,1.0004185787443562,0.00036118025821226744
-0.496658036926965,-0.496658036926965,0.9999106922493703,0.0003829650454549419
-0.4966018643717689,-0.4966018643717689,0.9994378793434672,0.0005150316283704306
-0.4965328449157823,-0.4965328449157823,0.9999012898663231,0.0003799013147788893
-0.49642292623902906,-0.49642292623902906,0.9997928994185985,0.00037428767835813264
-0.49626252478992683,-0.49626252478992683,1.0001995769797403,0.0004618940850557446
-0.4961747715417005,-0.4961747715417005,0.999783207087674,0.00036872454687238013
-0.4960574293261743,-0.4960574293261743,1.0001462275512059,0.0003741911365661396
-0.4959594332554843,-0.4959594332554843,0.9998045360712975,0.0004695789678161542
-0.4958363732977887,-0.4958363732977887,1.0001853723596645,0.0003594338340309896
-0.49571799538534833,-0.49571799538534833,1.0001737498665515,0.00036413862806704983
-0.4956110950115544,-0.4956110950115544,0.9999916574664915,0.0003822536310268731
-0.495541050931206,-0.495541050931206,0.9994692995203351,0.0003868293981989183
-0.49540712647285545,-0.49540712647285545,1.000297017093753,0.0003719496758399085
-0.49522838050615975,-0.49522838050615975,1.0003387090264488,0.0003627713611174208
-0.4951436370225565,-0.4951436370225565,1.000802183431475,0.00040305483279767665
-0.4950402768721688,-0.4950402768721688,1.0000023453175235,0.00044941925577295387
-0.49495711420240696,-0.49495711420240696,1.0001388620135476,0.00039760415886851825
-0.4948739943145483,-0.4948739943145483,0.999465918540625,0.00033167002382401215
-0.49479743934862197,-0.49479743934862197,0.9996474851756831,0.00044972303891256443
-0.4946682956928271,-0.4946682956928271,0.9997087339181722,0.0003326116982262953
-0.49457829547536675,-0.49457829547536675,0.999817852868589,0.000436867975170041
-0.4944384144328069,-0.4944384144328069,0.9998749219079028,0.00045580196010650285
-0.49431366209246336,-0.49431366209246336,1.0004177184312018,0.0003553311785428583
-0.49419830807455584,-0.49419830807455584,1.0002387016562024,0.00035174369517867955
-0.49405352478061104,-0.49405352478061104,0.999469028201584,0.00044096840577273185
-0.4938726856395078,-0.4938726856395078,0.999975788766583,0.00044707854493518026
-0.49378942201656173,-0.49378942201656173,1.0001481636835976,0.0004454244288753828
-0.4936604352085851,-0.4936604352085851,1.0005624187150244,0.0004763833646206085
-0.4934964199026581,-0.4934964199026581,1.0003746223992611,0.0003652544542119573
-0.4933839587116381,-0.4933839587116381,1.0003936247621472,0.0004469742756933297
-0.4932853131751472,-0.4932853131751472,1.0000062250641748,0.0003810931139955245
-0.4931510609065299,-0.4931510609065299,0.9999835339148209,0.00034532698510495125
-0.4929597141017439,-0.4929597141017439,1.000142238171317,0.0003536382720901204
-0.4928681563484133,-0.4928681563484133,0.9996888786316843,0.0003747562926482183
-0.49274372029685765,-0.49274372029685765,1.0003518826498827,0.000431000455682977
-0.49265202226888505,-0.49265202226888505,0.999921941449632,0.0003774634899963899
-0.49253832985632473,-0.49253832985632473,1.0004389181749573,0.0003464523319753453
-0.49246642000362045,-0.49246642000362045,0.9993872888610864,0.0003761263658510869
-0.4923419810089399,-0.4923419810089399,0.9997413278932111,0.00033804222974173317
-0.4922587996967195,-0.4922587996967195,1.0002368257260954,0.00036205843634172106
-0.49217761063118814,-0.49217761063118814,1.0000494205948018,0.0003852863728677406
-0.492037524162879,-0.492037524162879,1.000141788191785,0.00038505282545978
-0.491902661632048,-0.491902661632048,0.9997041866684327,0.0003857193304972377
-0.4918274247225781,-0.4918274247225781,1.0004921560150892,0.0003509582238471926
-0.4917429268512933,-0.4917429268512933,1.000359079565893,0.00044082531409716884
-0.49166781018211625,-0.49166781018211625,0.9999572918294387,0.00036611760446082705
-0.4915220349510491,-0.4915220349510491,0.999926762839881,0.000344844494071874
-0.4913751475913159,-0.4913751475913159,1.0002280286599197,0.00044190698224631455
-0.49128141386972857,-0.49128141386972857,1.0001784531710098,0.0003914075784075024
-0.491137863395852,-0.491137863395852,0.9995324554682952,0.0004489663329010193
-0.49100363672187086,-0.49100363672187086,0.9994854586473967,0.00034953057534969185
-0.49089367633787334,-0.49089367633787334,1.000428227422805,0.00037232159585674437
-0.4907941236939223,-0.4907941236939223,1.0005303095190734,0.00043213728211377773
-0.4905980009483756,-0.4905980009483756,0.9997461529603686,0.0004577892289685199
-0.49041683764444316,-0.49041683764444316,1.000260382107807,0.0004710278757288652
-0.4902884762363101,-0.4902884762363101,0.9998752686570302,0.0003847422305818456
-0.4901004155333794,-0.4901004155333794,0.9999168596541255,0.0005127405387790236
-0.48993389943789223,-0.48993389943789223,1.0005794440816564,0.00038871392595273013
-0.48983252878970235,-0.48983252878970235,1.0000686586457956,0.00043231497369938316
-0.48976584853298843,-0.48976584853298843,1.000020299070227,0.00036472930058340674
-0.48968717232710335,-0.48968717232710335,1.0000739629367763,0.0003611299887953332
-0.4895625013828976,-0.4895625013828976,1.0003783037884904,0.00046455668529550315
-0.48948365565520363,-0.48948365565520363,0.9999423343445832,0.0004626163018112005
-0.48935068149876315,-0.48935068149876315,1.000519632635676,0.00045046004167499106
-0.48924987060236164,-0.48924987060236164,0.9996210320895195,0.00046287418515523056
-0.4891015756642446,-0.4891015756642446,0.9996836460327799,0.000449108557023891
-0.48901546600318396,-0.48901546600318396,1.0000515413000823,0.0003708607829456874
-0.48894104339779004,-0.48894104339779004,0.9999728744339853,0.00045260555835343876
-0.4888101666962029,-0.4888101666962029,0.9997459917018272,0.0003987815714973219
-0.48872111446471533,-0.48872111446471533,0.9998999905291734,0.00038024963934283983
-0.48859569552951143,-0.48859569552951143,0.9992053331019102,0.0003749007934284124
-0.4884718020432047,-0.4884718020432047,1.0005852010697003,0.0004508827688734433
-0.4884047628424014,-0.4884047628424014,1.0006579663044293,0.0004079020658931601
-0.4883608458971139,-0.4883608458971139,1.0000150913682113,0.00044644092984182364
-0.4882450805234839,-0.4882450805234839,0.9999797866905183,0.0003984674413985226
-0.48807800885551844,-0.48807800885551844,0.9997301257071334,0.0003771171813368094
-0.48794585065115825,-0.48794585065115825,0.9998721290424937,0.0003697476305066432
-0.4878713281526871,-0.4878713281526871,0.9997303394986918,0.0004540247465257906
-0.4878034641573322,-0.4878034641573322,1.0000121521240675,0.00039713679792469206
-0.4877123940117599,-0.4877123940117599,0.9997514865460311,0.0004527955186935271
-0.48751131855678975,-0.48751131855678975,0.9997725415907872,0.0004006215714122298
-0.4873896025965223,-0.4873896025965223,0.9997251065995816,0.0003866338571745707
-0.4873011726369441,-0.4873011726369441,0.9993459628740657,0.0004324413283993161
-0.48711934691891656,-0.48711934691891656,1.0001971656959359,0.00047151735814912507
-0.48697746621473925,-0.48697746621473925,0.999646023543308,0.00037554851145853044
-0.4868601023677911,-0.4868601023677911,1.0001608957597579,0.00036710085615013004
-0.486710126104299,-0.486710126104299,0.9999868716778091,0.0003804143469471576
-0.4866529845246987,-0.4866529845246987,0.9996153223319878,0.0005140179504607201
-0.48656264680612366,-0.48656264680612366,1.0000425793687953,0.0003660253549903513
-0.48647745704074624,-0.48647745704074624,0.9996886416105021,0.00038939083962211997
-0.4863499003506149,-0.4863499003506149,0.9999161664844483,0.0004550058235297404
-0.4862457687348069,-0.4862457687348069,1.0000740702826834,0.00038098161797418936
-0.48618300893285776,-0.48618300893285776,1.000341763452844,0.00038533149341534134
-0.4860714867092611,-0.4860714867092611,0.9997638803831255,0.0004605256254055761
-0.4859643140654953,-0.4859643140654953,0.9999231893415,0.0003927262910089317
-0.4857746616551594,-0.4857746616551594,1.0002620567713232,0.0003860580662554139
-0.4856561656291888,-0.4856561656291888,1.0001834153758487,0.00037808503577002725
-0.4855671341174457,-0.4855671341174457,1.0002635855347373,0.00038267747528423297
-0.4854767713499314,-0.4854767713499314,0.999921626824699,0.00036027647853111657
-0.48530316104152005,-0.48530316104152005,0.9993985731029479,0.0003755836398754674
-0.4851812137829256,-0.4851812137829256,1.000582650661111,0.00040759591808802825
-0.4850772508551017,-0.4850772508551017,1.0000809852040295,0.00045359153905203536
-0.485003104172938,-0.485003104172938,1.0003896139955697,0.0003765274303490923
-0.4849285377167689,-0.4849285377167689,0.9999243139352296,0.0003538818597506626
-0.4848700698632456,-0.4848700698632456,0.9997351636189494,0.00042021763571574694
-0.48471310258610173,-0.48471310258610173,0.9998898865535993,0.00042608218734614564
-0.4846257136603526,-0.4846257136603526,1.0002581247830473,0.0003661756440877427
-0.4845328759991389,-0.4845328759991389,1.0006433967417832,0.0004282990175661348
-0.4844391277882096,-0.4844391277882096,1.0000213123667776,0.0004616172016147941
-0.48427631546292105,-0.48427631546292105,0.9995046602719192,0.00035757101782468834
-0.4842142249632161,-0.4842142249632161,0.9998670660867857,0.00035329284476389594
-0.4840583114302717,-0.4840583114302717,0.9998726574712297,0.0005195171874577616
-0.483865653364046,-0.483865653364046,0.9998298736758855,0.00045451861249132697
-0.4837478507208289,-0.4837478507208289,1.0000386479809777,0.00044575771317887595
-0.48361141043787936,-0.48361141043787936,1.0006520444735245,0.00033265352012450057
-0.48345893649602656,-0.48345893649602656,0.9999495767870051,0.000353903021034747
-0.48338455615739806,-0.48338455615739806,1.0001288071370957,0.00043863805484165567
-0.48327957935398447,-0.48327957935398447,1.0001299789147724,0.0003812100580463507
-0.4831219662701187,-0.4831219662701187,0.9997527135001999,0.0003404138555798835
-0.4829698473775352,-0.4829698473775352,0.9996748700800762,0.00036858535571074845
-0.4828627048234921,-0.4828627048234921,1.0001525946998235,0.00035440249413502454
-0.48275407856635866,-0.48275407856635866,0.9997869808831495,0.0004513167906493386
-0.482626325586898,-0.482626325586898,1.0002017667887273,0.0003443956630808849
-0.4825591404274746,-0.4825591404274746,1.000028656020077,0.0003683500725884101
-0.48249555971488006,-0.48249555971488006,0.9999843705431541,0.0003731067242842388
-0.4823832735492033,-0.4823832735492033,1.0000473845180227,0.00033919308500567514
-0.4822755175824568,-0.4822755175824568,0.9996777582198744,0.0003692393638912915
-0.4821642575858277,-0.4821642575858277,1.000054565230919,0.0003302669308889694
-0.4820200173569901,-0.4820200173569901,1.0000573169260782,0.000374821127515353
-0.4819123472720094,-0.4819123472720094,0.9994805767673544,0.0003701098990043169
-0.48181222690400316,-0.48181222690400316,0.9998403230970585,0.00043186837925880624
-0.4817699286140851,-0.4817699286140851,0.9996627775056993,0.0003775293071333064
-0.4816430028688046,-0.4816430028688046,1.0000438264862725,0.0003523608651072387
-0.48149972408937175,-0.48149972408937175,1.00037266342339,0.00042490765261517065
-0.4813756004004972,-0.4813756004004972,1.0001573368826973,0.0003784138357847115
-0.48129052591175425,-0.48129052591175425,0.9999176553172873,0.0003545523542365224
-0.481205853017309,-0.481205853017309,0.9999831528666554,0.00042518821581121813
-0.4810891378481756,-0.4810891378481756,1.0002453865802703,0.00037592497758816523
-0.4809687096923881,-0.4809687096923881,1.0001398227665623,0.00034452593308161646
-0.48088073036560675,-0.48088073036560675,0.9996754783311473,0.0003750587974486187
-0.4807705094564881,-0.4807705094564881,0.9999580059794282,0.0005126582832248348
-0.48060338787108775,-0.48060338787108775,0.9997261443918118,0.00046138860730412097
-0.48044106501984063,-0.48044106501984063,1.000298266604734,0.0004043486488214153
-0.48033705133784677,-0.48033705133784677,0.999742924115847,0.0003847314230519049
-0.48010172557114855,-0.48010172557114855,1.0002025930385932,0.0005214466237154466
-0.47994569495203904,-0.47994569495203904,0.9999155530033178,0.0004738402866210674
-0.4798545103854849,-0.4798545103854849,1.0003386329571542,0.00035040968853966385
-0.4798050885183329,-0.4798050885183329,0.9995702277937658,0.00036852028423622034
-0.4797080114789424,-0.4797080114789424,1.0001393584289384,0.00036349513940470764
-0.4795777176695992,-0.4795777176695992,0.9998820914623312,0.0004579965180999095
-0.4794383791610016,-0.4794383791610016,1.0003051624103498,0.00045486172530162733
-0.47935240946826524,-0.47935240946826524,0.9998634047209789,0.0004593335673600036
-0.4791972583974712,-0.4791972583974712,1.0002126614173161,0.00036996864023411375
-0.479128610859334,-0.479128610859334,1.0004686653107067,0.0005286623998954954
-0.4790445186132274,-0.4790445186132274,0.9999041118536283,0.00044698465758134163
-0.47897544738007125,-0.47897544738007125,1.0001842817036108,0.0003823460157953749
-0.47880962499257296,-0.47880962499257296,1.0000018857630337,0.0003826560951157867
-0.4787391086902062,-0.4787391086902062,1.0002997514725824,0.00035880849123088156
-0.47857344354488307,-0.47857344354488307,0.9999555954976532,0.00046132712102201845
-0.4784842025532271,-0.4784842025532271,1.000407730809875,0.0004106642346350882
-0.4784322785737459,-0.4784322785737459,0.9997724978491387,0.0003769223142039281
-0.47835552776014084,-0.47835552776014084,1.0001456632014005,0.0004391582358988982
-0.4781893315688649,-0.4781893315688649,1.0001362620620524,0.00039179603867216007
-0.47806655489475813,-0.47806655489475813,0.9998770395621108,0.00038293644779747874
-0.477963520801859,-0.477963520801859,0.9997373534120226,0.0004281228106263263
-0.4779016862703429,-0.4779016862703429,1.000052482555468,0.0003809948020525754
-0.4778301756894507,-0.4778301756894507,1.000376699806105,0.0003869084945496332
-0.47775850411271675,-0.47775850411271675,0.9997985846164742,0.00045421344485865086
-0.4776122893585125,-0.4776122893585125,0.9995663923836908,0.0003769067071567532
-0.47742137211898805,-0.47742137211898805,0.9999960230729059,0.000384805360974395
-0.47733523914648684,-0.47733523914648684,1.0001430817532504,0.00041709046334406977
-0.4772012376284692,-0.4772012376284692,0.9996797668962966,0.0004648267554795761
-0.4770521842612652,-0.4770521842612652,1.0008693623761329,0.00039014454859821025
-0.4769303442510136,-0.4769303442510136,1.0002356756952409,0.00034862724553799587
-0.47674921157886274,-0.47674921157886274,0.9999324067600007,0.00045089990370495776
-0.4766838930801896,-0.4766838930801896,1.0001876652528088,0.00045416254941827404
-0.4765625256179192,-0.4765625256179192,1.0002908319259642,0.0003791088082521909
-0.47644681943638717,-0.47644681943638717,1.0001919952358438,0.0003414241552499988
-0.4763067335661617,-0.4763067335661617,1.0000824571574762,0.000378100588183642
-0.47624154515360717,-0.47624154515360717,1.0000980852329748,0.0004209836557159099
-0.47614554337997106,-0.47614554337997106,0.9995977381203307,0.0004574727573957011
-0.47603793359157864,-0.47603793359157864,0.9995118417206241,0.0003993890105564695
-0.475920375539863,-0.475920375539863,1.0001200920229958,0.0003598913417037956
-0.47575229643043715,-0.47575229643043715,1.0003621584412383,0.00037013700107888935
-0.47567352254409345,-0.47567352254409345,1.0001197341263652,0.00038542036875844954
-0.47559302705849404,-0.47559302705849404,0.9998573730293474,0.0003764164924710269
-0.4754734814305266,-0.4754734814305266,1.0002458999333108,0.00036186689692444885
-0.4753000126998813,-0.4753000126998813,1.0005698253813078,0.0003620100456343051
-0.4751991951896343,-0.4751991951896343,1.0004502155327173,0.0003675763235768851
-0.4751055636021192,-0.4751055636021192,0.9998196422366877,0.00045752695904991764
-0.4750197260938876,-0.4750197260938876,0.9995099772002428,0.00038326287689458867
-0.47494029405715993,-0.47494029405715993,1.0002899921532453,0.00033080703004121004
-0.4748492163416813,-0.4748492163416813,0.9995453985818583,0.0004117839753897381
-0.4747107247116219,-0.4747107247116219,0.9996767725676625,0.00045238472176302935
-0.4745930123310245,-0.4745930123310245,0.9992963013143339,0.000354569744872944
-0.474477978246432,-0.474477978246432,0.9998738459044969,0.00045178642178709974
-0.4743198028467305,-0.4743198028467305,0.9998419843613016,0.00035676443448839164
-0.474255640571937,-0.474255640571937,1.000351356900142,0.0003536293860952798
-0.47412536490373897,-0.47412536490373897,1.0002442788765087,0.00047402128008507404
-0.473963611687941,-0.473963611687941,0.9999174101685092,0.0005111569169627894
-0.4738637648537406,-0.4738637648537406,0.9995871848003389,0.0003657597211615928
-0.4737398269542609,-0.4737398269542609,1.0000380488947358,0.00041550681434200404
-0.47355999685969435,-0.47355999685969435,0.9999102944716487,0.0003451050181836254
-0.47346461173146964,-0.47346461173146964,0.9997893920332068,0.00043952336776898404
-0.4733912832540227,-0.4733912832540227,1.000296941426512,0.0003775736562871474
-0.4732822387748456,-0.4732822387748456,0.9997412081561826,0.0003599694721399457
-0.47316000903811073,-0.47316000903811073,0.9999702757878669,0.0003287122286768779
-0.47301393824091065,-0.47301393824091065,1.0002109378650081,0.0003675189619896835
-0.47290662635859915,-0.47290662635859915,0.9997309377259562,0.00034761609382033304
-0.47282718492424464,-0.47282718492424464,1.0002037563057584,0.0004480327183764312
-0.47269433732071775,-0.47269433732071775,0.999827953702134,0.0003626760554488059
-0.47259287574124753,-0.47259287574124753,0.9995321778332948,0.00037687151874908723
