time,time,flux,flux_err
-0.49966460612340596,-0.49966460612340596,1.00007660089195,0.00011057164594910213
-0.498265697559691,-0.498265697559691,0.9999705156404994,0.00011070987108746275
-0.4966254466358805,-0.4966254466358805,1.000069699963133,0.00011081443429594049
-0.49511781201581473,-0.49511781201581473,0.9998031047775029,0.0001105741059838809
-0.4935598017342272,-0.4935598017342272,0.9999641367671182,0.00011056988354415646
-0.4919987585104536,-0.4919987585104536,1.0000152869778085,0.00011081952562457022
-0.4901145200477913,-0.4901145200477913,0.9999336974327173,0.00011061666155818418
-0.4877024221495958,-0.4877024221495958,0.9998940030104974,0.00011057234340467684
-0.4854085166429286,-0.4854085166429286,1.0000346533450295,0.00011056444254431998
-0.4840118744948995,-0.4840118744948995,1.0000989083992178,0.00011069900685170039
-0.48250990363158053,-0.48250990363158053,0.9998951035225925,0.00011111330941954683
-0.48111121161637127,-0.48111121161637127,1.000060006305105,0.00011057141288477992
-0.47960049438406716,-0.47960049438406716,0.9999595312233162,0.00011058340148517739
-0.47803270843141943,-0.47803270843141943,1.0001848582828416,0.00011080415134545644
-0.47644659907673487,-0.47644659907673487,0.9999813099581857,0.0001105953213654751
-0.4749196476419456,-0.4749196476419456,0.9999266327359921,0.00011065958074437043
-0.47296871263970386,-0.47296871263970386,0.9997770891380006,0.00011054303123534351
-0.47115341800963506,-0.47115341800963506,0.9998302966034863,0.00011056990485312059
-0.46975918294483565,-0.46975918294483565,1.000112088502234,0.00011066434500819448
-0.4682359327111044,-0.4682359327111044,0.9999124721701438,0.00011057283897501786
-0.46607046285207615,-0.46607046285207615,1.0000343327343795,0.00011057669965096101
-0.46458906844927694,-0.46458906844927694,1.0001012770801883,0.00011075769857881563
-0.4631957263831282,-0.4631957263831282,1.0000851938402395,0.00011056502036608123
-0.4614296875151922,-0.4614296875151922,0.9999630806375007,0.00011060867494082205
-0.4594991071076947,-0.4594991071076947,1.0000252270112218,0.00011058859485055818
-0.458058141793299,-0.458058141793299,1.0000684510026556,0.0001108373351522638
-0.4564927473198622,-0.4564927473198622,0.9999194725517156,0.00011062505453090406
-0.45507158288965,-0.45507158288965,0.99997602103575,0.00011058651143334565
-0.45309502302843613,-0.45309502302843613,0.9997326392825597,0.00011056158957314147
-0.45078479395597243,-0.45078479395597243,1.0000952630103674,0.00011057226375289263
-0.4491786518934532,-0.4491786518934532,1.0000499853111986,0.00011072361340329889
-0.4473882600374054,-0.4473882600374054,0.9997607942538084,0.00011072609004946646
-0.4458745466603432,-0.4458745466603432,0.9999771178989448,0.00011057288666804047
-0.4444063711140188,-0.4444063711140188,0.999991067476268,0.00011082890743747845
-0.4428700728618423,-0.4428700728618423,1.0000347341092541,0.00011057624318626491
-0.44118391571828397,-0.44118391571828397,1.0001488416570044,0.00011062456395704654
-0.4393650228783372,-0.4393650228783372,0.9998658890288766,0.00011056588020237417
-0.43682877689716404,-0.43682877689716404,1.0000232252541246,0.00011057669433446688
-0.43544715035532133,-0.43544715035532133,1.0000052317693626,0.00011067103116858025
-0.4338601510200533,-0.4338601510200533,0.9998447660736266,0.00011103642476349292
-0.4322337421122938,-0.4322337421122938,0.999890666878942,0.00011057617656207904
-0.430723059194861,-0.430723059194861,0.9999516213293795,0.00011056122527287975
-0.42915314552665224,-0.42915314552665224,0.9999792378517348,0.00011080809809490067
-0.42757133522536606,-0.42757133522536606,1.0000852465825918,0.00011061977859204077
-0.42603830754524097,-0.42603830754524097,0.9999636762284082,0.00011061468894926485
-0.4236473164317431,-0.4236473164317431,0.9999960312658885,0.00011056816253098123
-0.4220201653224649,-0.4220201653224649,1.0000041595531195,0.00011056848359411564
-0.4206375403489801,-0.4206375403489801,0.9999876375465272,0.00011064939169019738
-0.4191015047050314,-0.4191015047050314,1.0000231622459572,0.00011175053331169716
-0.4175846356229158,-0.4175846356229158,0.99991505400676,0.00011057224135950389
-0.41590151974669426,-0.41590151974669426,0.9999765014082289,0.00011076089097337544
-0.41432036996702665,-0.41432036996702665,0.999989705304734,0.00011058618842768254
-0.41265958988806234,-0.41265958988806234,0.9999503211031311,0.00011057871357981817
-0.4109508535897476,-0.4109508535897476,1.000049136987028,0.00011057340014837692
-0.40953390039358056,-0.40953390039358056,0.999919221387286,0.00011090150690749138
-0.40801871681323976,-0.40801871681323976,0.9999642317954738,0.00011058067001112502
-0.4066263396569411,-0.4066263396569411,0.9999568073786641,0.00011064060922286656
-0.40532386740669607,-0.40532386740669607,0.9999089761790874,0.00011057075395421928
-0.4026040834418382,-0.4026040834418382,1.0000196596454018,0.00011060887314272085
-0.4010018314234912,-0.4010018314234912,0.9998149255204005,0.00011070860747711218
-0.39925962320994585,-0.39925962320994585,1.0001596141875022,0.00011060672852189403
-0.39760501807322723,-0.39760501807322723,1.0000196330313678,0.00011067625731858823
-0.396112354635261,-0.396112354635261,0.9998904595411193,0.00011055546073382558
-0.3945334716598154,-0.3945334716598154,0.9999413283386633,0.0001108134635368953
-0.39302971083234295,-0.39302971083234295,1.0000055478177123,0.00011064593693224955
-0.39162702034955144,-0.39162702034955144,0.999989688671245,0.0001105930348829939
-0.3893544224963989,-0.3893544224963989,0.9999552953171754,0.00011056845873359857
-0.38738707930897365,-0.38738707930897365,0.9999877555698531,0.00011057322824091121
-0.3860314015473705,-0.3860314015473705,0.999988040981021,0.00011069824401051746
-0.38424533941142724,-0.38424533941142724,1.000016692300146,0.00011096305564001908
-0.38273257412656675,-0.38273257412656675,1.0001499957712043,0.000110572302214079
-0.38127253894635943,-0.38127253894635943,0.9999272768108465,0.00011078902044992035
-0.3797196845305734,-0.3797196845305734,1.0001106767367787,0.00011058069033572594
-0.37791166811657606,-0.37791166811657606,0.9999215697990887,0.00011063834657990747
-0.37636074234033,-0.37636074234033,0.9999796485058537,0.00011055777195287733
-0.37398918412800414,-0.37398918412800414,1.0000434173882635,0.0001105585831946176
-0.37260190853994574,-0.37260190853994574,0.9999149636453428,0.00011064736831752817
-0.37125025421992175,-0.37125025421992175,0.9999084208357379,0.00011059867864665902
-0.3695605462649837,-0.3695605462649837,0.9999854315822312,0.00011145149429362026
-0.3679854815854924,-0.3679854815854924,1.0000063314741088,0.00011057776458481959
-0.3663862080516992,-0.3663862080516992,1.0000260614714083,0.0001107574923884784
-0.36490906484687,-0.36490906484687,0.9998660434158497,0.0001105893794682835
-0.36323406144510956,-0.36323406144510956,1.0000129947200178,0.00011059675745704626
-0.3616929970827186,-0.3616929970827186,0.9998617872301321,0.0001105609101867017
-0.3599260938732186,-0.3599260938732186,1.000051297912904,0.0001112425798005386
-0.3586563123200904,-0.3586563123200904,0.9999282156145288,0.00011064034814865214
-0.3572336812867434,-0.3572336812867434,1.0000139350707489,0.00011057250390980498
-0.35471701142378154,-0.35471701142378154,0.9998098183427697,0.00011055649450150884
-0.3527691865208908,-0.3527691865208908,1.000101698249045,0.00011074487453516576
-0.3511715540080331,-0.3511715540080331,1.0000236019502267,0.00011058147304568658
-0.3491104983186233,-0.3491104983186233,1.0000756227580896,0.00011061364542851424
-0.34748318201163786,-0.34748318201163786,1.0000938851190302,0.00011059577905102137
-0.3460374613146996,-0.3460374613146996,0.9997540419457913,0.00011081715583298017
-0.34462970454187597,-0.34462970454187597,1.000070947835407,0.0001105817895593487
-0.3431504998370656,-0.3431504998370656,0.9999696730220663,0.00011063159405200264
-0.34107285907230106,-0.34107285907230106,0.9999053999418646,0.00011057345449283767
-0.3387685045323451,-0.3387685045323451,0.9998885181550676,0.00011057083215646492
-0.3373700621348689,-0.3373700621348689,0.999977863988988,0.00011071048051153036
-0.3358050261886092,-0.3358050261886092,0.9999526679353898,0.00011056734831577951
-0.33447177079942775,-0.33447177079942775,0.9999918848106475,0.0001108473887345562
-0.3329684009484481,-0.3329684009484481,1.0000729697144173,0.00011058521834067423
-0.33139424505789067,-0.33139424505789067,1.0001323698385127,0.00011081902835410052
-0.3296753502538195,-0.3296753502538195,0.9997965385184833,0.0001106075900911954
-0.3273512716274126,-0.3273512716274126,1.0000063656760994,0.00011060110773249807
-0.3248018086262164,-0.3248018086262164,0.9998310560829534,0.00011056034106649898
-0.32343567959032954,-0.32343567959032954,0.9999138689083432,0.00011065405548482918
-0.32232517285447104,-0.32232517285447104,1.0001295118057982,0.00011277712684973369
-0.32068235316546634,-0.32068235316546634,1.0000197363948682,0.00011121979985190802
-0.3191068057247321,-0.3191068057247321,0.999739014203967,0.00011058150656595447
-0.31750817025604194,-0.31750817025604194,1.0001291270687487,0.00011075875441496154
-0.3158941292800591,-0.3158941292800591,1.0000049684218897,0.00011062864088692515
-0.31414084840653234,-0.31414084840653234,1.0000064668380972,0.00011060152917519003
-0.3120681260363199,-0.3120681260363199,0.9999992219842824,0.00011055585418741109
-0.31025773419823965,-0.31025773419823965,1.0000660653158784,0.00011058163192695356
-0.3088640221292735,-0.3088640221292735,1.0000558042612104,0.00011066294017468057
-0.30707018067187164,-0.30707018067187164,1.000026282532575,0.00011056838683531144
-0.3048461420388776,-0.3048461420388776,0.9998252193161801,0.00011057728004696971
-0.30324511073849864,-0.30324511073849864,0.9999905047485977,0.00011072750581828449
-0.30151002417551354,-0.30151002417551354,0.9998559596857396,0.00011060234723038765
-0.29924154593609276,-0.29924154593609276,0.9999406176501069,0.00011056467905915984
-0.2977646206432837,-0.2977646206432837,0.9999891419937093,0.00011085826772607232
-0.29624613415799106,-0.29624613415799106,1.0001396809812557,0.00011058738244987848
-0.2945392219495261,-0.2945392219495261,1.000160018876148,0.00011064811840620359
-0.2927319147158414,-0.2927319147158414,1.0001314644081198,0.000110579953745471
-0.29020757612306625,-0.29020757612306625,0.999957111965182,0.00011056814197098747
-0.28880014655587727,-0.28880014655587727,0.9999103361916106,0.00011070574674747254
-0.2872994690624182,-0.2872994690624182,1.0000113459900037,0.00011062224912977254
-0.2858095352799864,-0.2858095352799864,0.9998960016846216,0.00011078201591022166
-0.28434776002832224,-0.28434776002832224,1.0001769859845047,0.00011060073447463503
-0.2830077428021468,-0.2830077428021468,0.9998015902778347,0.00011080344705357197
-0.2815757385469624,-0.2815757385469624,1.0000804838543615,0.00011063568200867877
-0.27952951337210835,-0.27952951337210835,1.000123000413636,0.00011058840727306337
-0.2766420083135017,-0.2766420083135017,0.999969303290827,0.00011056640188571584
-0.2753062934731133,-0.2753062934731133,1.0001208470839535,0.00011057742836133686
-0.27400849347613987,-0.27400849347613987,0.9999627059157415,0.00011068525764890751
-0.27239160114404515,-0.27239160114404515,0.9999227344686442,0.00011107963598102529
-0.271088056336157,-0.271088056336157,1.0000658559303912,0.00011058739257877486
-0.2695246222414426,-0.2695246222414426,1.000100964925145,0.0001105443021296814
-0.26794922398694326,-0.26794922398694326,1.0001313331681678,0.00011078995118694507
-0.26629653932031944,-0.26629653932031944,0.9999906707802438,0.00011063345194328382
-0.26479814804479246,-0.26479814804479246,1.0000474225753035,0.0001106119651897903
-0.2627494728207239,-0.2627494728207239,1.000074796633532,0.0001105612934242027
-0.26112583218491636,-0.26112583218491636,0.9999675865063453,0.00011055852211811351
-0.2597387373883976,-0.2597387373883976,0.9998814571748271,0.00011064903399977217
-0.2580103790925932,-0.2580103790925932,1.000026880855361,0.0001105901798330237
-0.25596727290248966,-0.25596727290248966,1.0000737033400722,0.00011057913813211176
-0.2543668633399648,-0.2543668633399648,1.0001090219478086,0.00011075258563286443
-0.25289355330023683,-0.25289355330023683,0.9999468375685933,0.00011060812324604025
-0.2507517782083596,-0.2507517782083596,0.9999102190798258,0.00011056396093732527
-0.2491656974205398,-0.2491656974205398,1.000093034687102,0.00011059321088818454
-0.2476246789257857,-0.2476246789257857,1.0000492764006563,0.00011085136680143893
-0.24607101378933294,-0.24607101378933294,0.9998735061196605,0.0001106317834824586
-0.2448381621943554,-0.2448381621943554,0.9999500498286858,0.00011059154486874357
-0.24204763181624003,-0.24204763181624003,1.0000107025306129,0.00011056126809300061
-0.2404399679755443,-0.2404399679755443,0.9998548380582667,0.00011070057769321032
-0.23879086975066457,-0.23879086975066457,0.999852869575156,0.0001105910578017163
-0.23693323640327435,-0.23693323640327435,0.999927012137689,0.00011071673775724696
-0.23546749069937506,-0.23546749069937506,0.9999232234964944,0.00011057581588108908
-0.2340169963397784,-0.2340169963397784,1.000044659789695,0.00011081192001950612
-0.23245950367709156,-0.23245950367709156,0.999853621355444,0.00011061036948595596
-0.23086953335005092,-0.23086953335005092,0.9998542746818517,0.00011057459933268584
-0.2283520504453918,-0.2283520504453918,1.0000819635454603,0.00011060097089832366
-0.22649248481175163,-0.22649248481175163,0.9998437283136455,0.00011057808816789345
-0.22513230009790278,-0.22513230009790278,0.999847539282291,0.00011068614027297694
-0.2233474521926837,-0.2233474521926837,1.0001306135144694,0.00011102731741457217
-0.22183496570651187,-0.22183496570651187,1.0001205852606432,0.00011056909421093151
-0.22037725715199485,-0.22037725715199485,0.9999972380645714,0.000110801632880379
-0.2188196816816344,-0.2188196816816344,0.9998177831565027,0.00011058006683566592
-0.2170155870669987,-0.2170155870669987,0.9999655905759746,0.00011063235725694865
-0.21546307203389006,-0.21546307203389006,0.9998186628013468,0.0001105750630077744
-0.21309094131429446,-0.21309094131429446,0.999903518169932,0.00011057818292038253
-0.21170623400976182,-0.21170623400976182,1.000133133232599,0.00011065045689971547
-0.21035493755043716,-0.21035493755043716,1.0000261221193174,0.00011057954721608774
-0.20886583578248974,-0.20886583578248974,1.000016630815364,0.00011168122973603363
-0.2074162825665553,-0.2074162825665553,0.9999638857388401,0.00011056963136787731
-0.20582903216127307,-0.20582903216127307,1.0001210030545353,0.00011075741087622052
-0.204300966761366,-0.204300966761366,0.999775059616405,0.000110575198750933
-0.20249347026692704,-0.20249347026692704,1.0000735974917103,0.00011059660106819531
-0.2008431848109467,-0.2008431848109467,0.9999063171884297,0.00011057525467978379
-0.19940537577786016,-0.19940537577786016,1.0000284188817479,0.00011095021902499396
-0.1979960115524591,-0.1979960115524591,0.9999760537593128,0.00011056676247547123
-0.19664839515025961,-0.19664839515025961,1.0000550119572928,0.00011066022359277014
-0.1950404426039313,-0.1950404426039313,1.0000879209938351,0.0001105593857643763
-0.19247363118047361,-0.19247363118047361,1.000084730576278,0.00011057064807405213
-0.1908637440224993,-0.1908637440224993,1.0001824313424694,0.0001107282231636416
-0.189091140095843,-0.189091140095843,0.9999935106138722,0.00011059677512841779
-0.18722127170476596,-0.18722127170476596,0.9999359692355705,0.00011055643629820662
-0.18574960255937184,-0.18574960255937184,1.0000517053357698,0.0001108442287571118
-0.18422041641024406,-0.18422041641024406,0.9998452651869855,0.00011057594537722604
-0.18252595600497443,-0.18252595600497443,0.9999582066625564,0.00011062996854618076
-0.18081427917495602,-0.18081427917495602,0.9998532886095095,0.00011057739381952949
-0.17818021849234356,-0.17818021849234356,1.000041694035994,0.0001105634031332906
-0.1767882667350932,-0.1767882667350932,0.9998613090342916,0.00011069930651571936
-0.17520964869181627,-0.17520964869181627,1.000026400611289,0.00011059992236554567
-0.17357664374867454,-0.17357664374867454,1.0000339606796502,0.00011094081466435679
-0.17207022930379026,-0.17207022930379026,0.9999185857321345,0.00011057774547258071
-0.17049776901985753,-0.17049776901985753,1.0000183652488213,0.0001108165906109788
-0.16892111469933296,-0.16892111469933296,1.0000491877375368,0.00011060008880797317
-0.16738078248890814,-0.16738078248890814,1.0001451130433967,0.00011062369110661592
-0.16499417060840643,-0.16499417060840643,1.0000058955128814,0.00011057136952759962
-0.16345303655980387,-0.16345303655980387,1.0000418076788467,0.00011065023491519624
-0.16222113029361934,-0.16222113029361934,1.000060445399885,0.00011068783170681206
-0.16079052929126192,-0.16079052929126192,1.0000558410933675,0.0001113903146447219
-0.1593153091831482,-0.1593153091831482,1.000036856877348,0.00011057710992941302
-0.15750736840273022,-0.15750736840273022,1.0001323239045463,0.00011058291034845552
-0.15592482569190907,-0.15592482569190907,0.9999728488621586,0.00011076472108195933
-0.1541314854490338,-0.1541314854490338,1.0000039496942401,0.00011061864561787485
-0.15260916554543655,-0.15260916554543655,1.0001350009309562,0.00011057065337065626
-0.15072949230088853,-0.15072949230088853,1.0001365213437534,0.00011058449148069465
-0.14911374249932124,-0.14911374249932124,1.0000198213834512,0.00011054894493741857
-0.14791422842536123,-0.14791422842536123,1.0000574033184138,0.00011067064087484085
-0.14616540888237067,-0.14616540888237067,0.9998478694528931,0.00011055371533058318
-0.14359434623038397,-0.14359434623038397,1.0000027886603897,0.00011057492866091141
-0.14198368372017284,-0.14198368372017284,0.9998984611216223,0.00011074170443808095
-0.1402167286752956,-0.1402167286752956,1.0000147312587273,0.0001105966419556285
-0.13834361848712434,-0.13834361848712434,1.0000174065960503,0.00011057399455145665
-0.13686903191846794,-0.13686903191846794,1.0001702730181723,0.00011085085177102894
-0.1353457855526358,-0.1353457855526358,0.9999095811479985,0.00011057075701082025
-0.13364440576260678,-0.13364440576260678,1.000115711479096,0.00011062196763520335
-0.1318348290238646,-0.1318348290238646,0.999968513331471,0.00011058317456791359
-0.12930650027701632,-0.12930650027701632,0.9999550970247972,0.00011056293704981014
-0.1279059476117254,-0.1279059476117254,1.000012432126361,0.0001106991353681629
-0.1263345454746741,-0.1263345454746741,1.0001036376910502,0.00011059833944461624
-0.12469555910356575,-0.12469555910356575,1.0000032660502418,0.0001108377331897428
-0.12319295082561439,-0.12319295082561439,1.0000662394932562,0.0001105652295528208
-0.12161837181192822,-0.12161837181192822,1.0000942629333927,0.00011081617556557006
-0.11990043409459758,-0.11990043409459758,1.000083540944982,0.00011063250227865719
-0.11757501070242142,-0.11757501070242142,0.9998166633269137,0.00011057871774966153
-0.1150270159705542,-0.1150270159705542,0.9999242500602156,0.0001105802530262994
-0.1136591649003094,-0.1136591649003094,1.000061367959135,0.00011068192447570822
-0.11206658393348334,-0.11206658393348334,1.0001379540112105,0.00011120411238334197
-0.11043772685370641,-0.11043772685370641,0.9999695995490132,0.0001105707766148148
-0.10892698908428429,-0.10892698908428429,1.0000426802964206,0.00011056852893049816
-0.10736048347607721,-0.10736048347607721,1.00006369577086,0.00011077241028963338
-0.10577179261017591,-0.10577179261017591,1.00008286557826,0.00011060442214808213
-0.10397654922126094,-0.10397654922126094,0.999906017240952,0.00011058720268097512
-0.10185167479066877,-0.10185167479066877,1.000041144976579,0.00011057198346703964
-0.10023154321679613,-0.10023154321679613,1.0000307647598696,0.00011056338649266123
-0.09883998480217997,-0.09883998480217997,1.0000534390284446,0.00011066109003211757
-0.09684144145721803,-0.09684144145721803,0.9999544815296799,0.00011058651978561212
-0.09491548891528509,-0.09491548891528509,0.999984421089723,0.00011058335556011101
