time,time,flux,flux_err
-0.4999393505198289,-0.4999393505198289,0.9998343807772526,0.00011937133946471055
-0.49980874335172604,-0.49980874335172604,1.0000237742808074,0.00011770539236881554
-0.49970862713234965,-0.49970862713234965,0.99991333719274,0.00010629770182334783
-0.4995363947797159,-0.4995363947797159,1.000095913969709,0.00010508033841748366
-0.49942909099845567,-0.49942909099845567,1.0000501259785675,0.00010752391119825462
-0.4993241335672792,-0.4993241335672792,1.0001210368870155,0.0001086787450840776
-0.49921106222827805,-0.49921106222827805,1.000061784247505,0.00010735845137418263
-0.4991173597205488,-0.4991173597205488,1.0000986472220965,0.00010729823840064034
-0.49898198215960293,-0.49898198215960293,1.0001694363341698,0.0001094618313558731
-0.4988077476999024,-0.4988077476999024,0.9999486811008536,0.00011105824551360815
-0.49873878782382236,-0.49873878782382236,1.0000602795547124,0.00010592941594618073
-0.49861981838257635,-0.49861981838257635,1.0000117741899395,0.0001064491284975807
-0.49846138656575933,-0.49846138656575933,0.9998835475500073,0.00010613399763948438
-0.4983508600125788,-0.4983508600125788,1.0001221611106197,0.00010571115310448859
-0.49819907237106237,-0.49819907237106237,0.9999754806312909,0.00010716935069483063
-0.49806745724272333,-0.49806745724272333,0.9998089587192343,0.0001063115783602614
-0.49801721057592657,-0.49801721057592657,1.0000749721750481,0.0001068055355723328
-0.497875668224151,-0.497875668224151,1.0001116864064694,0.00010540492814403695
-0.4977553345459455,-0.4977553345459455,1.000170479292127,0.00010577834585852963
-0.49754908593458824,-0.49754908593458824,1.0000545235938607,0.00010597440694097232
-0.49733413876310806,-0.49733413876310806,1.0000774604809277,0.00010543918410643115
-0.4970981485530501,-0.4970981485530501,0.999897512698498,0.00010623454369741298
-0.4969015226874035,-0.4969015226874035,1.0000316724673675,0.00010520714863310494
-0.4966136261442443,-0.4966136261442443,0.9998513512503866,0.00010743762859460028
-0.49635786291983097,-0.49635786291983097,1.0000567187516505,0.00010786768646090746
-0.4962786728174251,-0.4962786728174251,1.0001380088964145,0.00010726102514451728
-0.49615617274321266,-0.49615617274321266,1.0001882036319816,0.00010826607972714798
-0.495980581054755,-0.495980581054755,0.9999194389120252,0.00010803074778927295
-0.49589782050461506,-0.49589782050461506,0.9998941245483829,0.00010732606669943681
-0.4957891192905663,-0.4957891192905663,0.9999755033487931,0.0001075987200358285
-0.49569520931545413,-0.49569520931545413,1.000209016271106,0.00011221237619577866
-0.49554671615842383,-0.49554671615842383,1.000125933877755,0.00010566750072537031
-0.49542051308744706,-0.49542051308744706,1.000017484769527,0.00010684018898796689
-0.49527736835225367,-0.49527736835225367,0.9998069839799305,0.00010476130165966236
-0.49507831299488314,-0.49507831299488314,1.0000113139336482,0.00010826083648031651
-0.49496044059342237,-0.49496044059342237,1.0001973410578209,0.00010549388990934653
-0.4948118802698446,-0.4948118802698446,1.000108668322854,0.00010785747728893451
-0.49467410873185147,-0.49467410873185147,1.0001517008995635,0.00010676174697440138
-0.4945389057596913,-0.4945389057596913,1.0000282431503402,0.00010583358200807163
-0.4944359734014142,-0.4944359734014142,1.0000683100648065,0.00010737936669313986
-0.4942960145883262,-0.4942960145883262,0.9998956868025364,0.00010692362715733711
-0.49405406420264625,-0.49405406420264625,1.0001527943083075,0.00010780948860907881
-0.49388334053583094,-0.49388334053583094,1.0000613310622215,0.00010536830685992503
-0.49377312658325534,-0.49377312658325534,0.9998174218370132,0.00010529102095255246
-0.4935176965176652,-0.4935176965176652,0.9998969252925249,0.00010655156799578892
-0.49325295995222407,-0.49325295995222407,1.00004458042226,0.00011633983380064058
-0.4930803515599109,-0.4930803515599109,1.0000929988925762,0.00011107615747216002
-0.49300509278473326,-0.49300509278473326,0.9999589803505655,0.00010596344989948388
-0.49283529753811306,-0.49283529753811306,0.999981840917496,0.00010856190442306401
-0.4927089972057729,-0.4927089972057729,0.9999942521913125,0.0001069810388465867
-0.492530370671011,-0.492530370671011,1.000052713072805,0.00011100241101047516
-0.49234093155610026,-0.49234093155610026,1.0001186061536036,0.00011070404232978498
-0.49213846964703406,-0.49213846964703406,1.0000162097199858,0.00011662421551585852
-0.4920097326619725,-0.4920097326619725,1.000024351475392,0.00011725522216878755
-0.4919070306888898,-0.4919070306888898,1.0000620821914543,0.00010600966591576229
-0.49180284004032726,-0.49180284004032726,1.0000324851134523,0.00011118979538280111
-0.49173443452309584,-0.49173443452309584,1.0001162652734497,0.00010755928489529986
-0.49162790986010807,-0.49162790986010807,1.0002386911186034,0.00011850043047625071
-0.4914927954589075,-0.4914927954589075,0.9999641577524324,0.00011176591875085755
-0.4913863316854986,-0.4913863316854986,1.0001197123373307,0.00011307598071412686
-0.491314907821652,-0.491314907821652,1.0002648374130618,0.00011261081172311119
-0.4912271677094395,-0.4912271677094395,0.9998240678991348,0.00011069574341785975
-0.49106488304387313,-0.49106488304387313,1.0000729328260385,0.00011282723793419724
-0.49092298501564074,-0.49092298501564074,0.999861001338482,0.00011262994175413198
-0.490839034311648,-0.490839034311648,1.0000744911546293,0.00010705463322114744
-0.490760223667894,-0.490760223667894,1.000036517952136,0.00010633950053507263
-0.49056430545970214,-0.49056430545970214,1.000049080732656,0.00010620977352454482
-0.4903788004638045,-0.4903788004638045,1.0000869141081274,0.00011209743620299935
-0.4902064364046964,-0.4902064364046964,1.0000107277669301,0.00011070243770516539
-0.49005083135998573,-0.49005083135998573,1.0002204062567348,0.00011600130845154457
-0.48991910480835943,-0.48991910480835943,1.000016512890135,0.00011667549773820055
-0.4898142601879954,-0.4898142601879954,1.0001236429126188,0.00010750374858523804
-0.48973491133729113,-0.48973491133729113,1.0000692198503744,0.00011599148242000184
-0.48961569018210865,-0.48961569018210865,0.9999750820834826,0.00011218366815056635
-0.4894534553990525,-0.4894534553990525,0.9999114445967079,0.00010773076968430891
-0.48937424659307,-0.48937424659307,1.0001876062256978,0.0001117738742187591
-0.48926733575935943,-0.48926733575935943,0.9999935480840666,0.00011154810407029987
-0.4890720280534879,-0.4890720280534879,1.0000951613869897,0.00010548722785288852
-0.48895082904346054,-0.48895082904346054,1.0000507876959568,0.00010682983084088877
-0.4888184759802243,-0.4888184759802243,1.0000339411783712,0.00010658941758613371
-0.4886262250744039,-0.4886262250744039,0.9998947909678149,0.00011213018569592934
-0.48853820697913763,-0.48853820697913763,1.000175262350685,0.00011271734444116984
-0.48841069030168,-0.48841069030168,1.0001472321253746,0.0001182364866081898
-0.48828823325529813,-0.48828823325529813,0.9999776652437424,0.0001106139623801303
-0.4881523333460791,-0.4881523333460791,0.9998308518929715,0.00011075002884144993
-0.4880363530603063,-0.4880363530603063,0.9998833933481519,0.00011632770408022592
-0.4879249916630215,-0.4879249916630215,0.9999002770997241,0.00010589361058923295
-0.48778960530398763,-0.48778960530398763,1.0001027475732307,0.00011721599562002864
-0.4877177740971092,-0.4877177740971092,0.9998462277505114,0.00010597961532667692
-0.4876389050928992,-0.4876389050928992,1.0001049996198506,0.00011638066721371109
-0.48750368809705835,-0.48750368809705835,0.9999464115633812,0.00010873795276730471
-0.4873530527940602,-0.4873530527940602,0.9999533697061166,0.00010914865914079654
-0.48723975471948505,-0.48723975471948505,1.0000335874688102,0.0001061409835967518
-0.487140279502637,-0.487140279502637,0.9999985298724152,0.00010580733740023871
-0.4870401787957235,-0.4870401787957235,1.0000235458237205,0.00010712157349699019
-0.48687798734681564,-0.48687798734681564,0.9998794141502282,0.00010709897729172676
-0.4867413351210416,-0.4867413351210416,0.9999090997248047,0.00010749085785136208
-0.4866157208882214,-0.4866157208882214,1.0000334780657352,0.0001075789867191201
-0.4865528513124445,-0.4865528513124445,1.0000747323103942,0.00010548511108521832
-0.4864126054882945,-0.4864126054882945,1.000058443894144,0.00010821624430874387
-0.48625093434966404,-0.48625093434966404,1.000053970313511,0.00010860436954166899
-0.4861595304588263,-0.4861595304588263,1.0000055220149109,0.00011066739127337218
-0.48603984453729937,-0.48603984453729937,0.9999399311753189,0.00010787729336693799
-0.4858266578026814,-0.4858266578026814,0.9999873003434008,0.00010722051167923463
-0.4856762777606491,-0.4856762777606491,0.9998270602997256,0.00010621237070897191
-0.485470125178108,-0.485470125178108,1.0002734010713445,0.00010485380577036404
-0.4853999447201204,-0.4853999447201204,0.9999017706584065,0.00010721708413772737
-0.4852613483919413,-0.4852613483919413,0.9998039503037767,0.00010618118095403707
-0.4851502960904327,-0.4851502960904327,1.0001780992071196,0.0001069292466197077
-0.4849847591467551,-0.4849847591467551,1.0000985138635239,0.00010695077214984902
-0.48474231069994855,-0.48474231069994855,0.9998818413003819,0.00010546269777349136
-0.4844968792778673,-0.4844968792778673,0.9999780316574277,0.00010546162945843447
-0.48428388251777504,-0.48428388251777504,0.9999317336318322,0.0001060622516998046
-0.484100051032874,-0.484100051032874,1.0001310081981205,0.00011940493568385349
-0.4838150450319517,-0.4838150450319517,1.0001171632805494,0.00010726839706919049
-0.48367620856151916,-0.48367620856151916,0.9998959117335587,0.00010794132967134972
-0.48355900982933236,-0.48355900982933236,1.0000225353938652,0.00010824012161561578
-0.48337990849468043,-0.48337990849468043,1.0000438551493134,0.00010898432832384241
-0.48325083126401297,-0.48325083126401297,1.0000624511338316,0.00010710161138042429
-0.48314257017773343,-0.48314257017773343,0.9998644285057656,0.00010599706196095362
-0.4830718930643343,-0.4830718930643343,0.9998705457385686,0.00011262144897613187
-0.48294000473833876,-0.48294000473833876,1.000102507946591,0.00010578583973581823
-0.4828198433766374,-0.4828198433766374,1.0000253176197478,0.00010672628942602772
-0.4827272911046748,-0.4827272911046748,0.9998949554780356,0.00010499226149948775
-0.48251956054737094,-0.48251956054737094,1.0001509756283835,0.00010579572362990147
-0.48236153869656845,-0.48236153869656845,1.0000245767055342,0.00010771381980110954
-0.4822367867913272,-0.4822367867913272,0.999818502960818,0.0001075020983832925
-0.4821460929568275,-0.4821460929568275,0.9997669621566306,0.00010897437769933973
-0.4820348676010326,-0.4820348676010326,0.9999269042279775,0.00010672877557276637
-0.4819064160765265,-0.4819064160765265,0.9999116346198761,0.00010551398794388563
-0.4818122249758744,-0.4818122249758744,0.9999724761894807,0.00010807933082885053
-0.4817124135995982,-0.4817124135995982,1.0000956677855855,0.0001061491130886084
-0.48152739557554014,-0.48152739557554014,0.9998705162341277,0.00010797262869688897
-0.4813594432467653,-0.4813594432467653,1.000231348469773,0.00010869470643964521
-0.48125646577464065,-0.48125646577464065,1.0000039140726713,0.00010497453307670707
-0.48113593350935846,-0.48113593350935846,0.9998778287379173,0.00010474828059065426
-0.4809422932448797,-0.4809422932448797,1.0000653575627234,0.0001068915578310874
-0.4808002841142297,-0.4808002841142297,1.0000009240817822,0.00011057878812297138
-0.4805918034049682,-0.4805918034049682,1.0000977165145515,0.00011088726675564974
-0.4804689760458132,-0.4804689760458132,1.000002990130347,0.00010534425467517109
-0.48038531242709726,-0.48038531242709726,0.9999796767761147,0.00011038559186137516
-0.48025565116258806,-0.48025565116258806,1.000248720143213,0.0001124975923546428
-0.4801148850339814,-0.4801148850339814,0.9999140075414352,0.00010637857923023247
-0.4799570279166801,-0.4799570279166801,1.0000239518656229,0.0001063677250248283
-0.47978482972685016,-0.47978482972685016,1.000006178387655,0.00011126996731251249
-0.4795295851683477,-0.4795295851683477,1.0001747603895759,0.00012123313198487973
-0.4793959359616565,-0.4793959359616565,0.9999062705313906,0.00011173589473654162
-0.4793022887679399,-0.4793022887679399,0.9999650161320368,0.00011049495298984276
-0.47920084757060977,-0.47920084757060977,0.9998460455958348,0.00010746835179835039
-0.4791106797732937,-0.4791106797732937,0.9999419490109995,0.00011409802337322532
-0.4789528593661089,-0.4789528593661089,1.0000222085984578,0.00011715852986017023
-0.47883204714089517,-0.47883204714089517,1.000105235936617,0.00011310723993609116
-0.4787428991694469,-0.4787428991694469,1.0000590702021583,0.00011077005941523704
-0.478678585524176,-0.478678585524176,1.0001312204312884,0.00011294386959111089
-0.47847525095639865,-0.47847525095639865,1.000027178953963,0.00011620463316227723
-0.47834384515736017,-0.47834384515736017,1.0002287092551332,0.00010785668215174441
-0.4782297373356414,-0.4782297373356414,1.0000072716988027,0.00011185558453234807
-0.4781462810242374,-0.4781462810242374,0.9999179379379599,0.00010760381262075836
-0.47802162442021656,-0.47802162442021656,1.0002047240684828,0.00010764314222226363
-0.47786796349828364,-0.47786796349828364,0.9998541442363725,0.00010639225961403929
-0.47773289107281014,-0.47773289107281014,1.0000042917335241,0.00011147426736696922
-0.47752873817589714,-0.47752873817589714,1.0000470745324643,0.0001169340127251531
-0.4773473981396819,-0.4773473981396819,1.0002338078753912,0.00011137003078355787
-0.47726350982266014,-0.47726350982266014,0.9999645634089965,0.00011068492322881343
-0.4771829962759512,-0.4771829962759512,1.0000091298455078,0.00010661197099052498
-0.47708236179314556,-0.47708236179314556,1.00009523204221,0.00011606068692523032
-0.47693331711489007,-0.47693331711489007,1.0000065677398764,0.00011153198784171541
-0.47681691645630053,-0.47681691645630053,1.000241076685067,0.00010873872591804299
-0.4767540019551234,-0.4767540019551234,1.0001433979357421,0.00011186105377002534
-0.4766355328996724,-0.4766355328996724,0.9999159987952021,0.00011257018365293913
-0.4764499155571684,-0.4764499155571684,0.999948759882544,0.00010754986294343354
-0.4763361498298764,-0.4763361498298764,0.9999938603351491,0.00010585689692949926
-0.4762243924335053,-0.4762243924335053,0.9999116485465516,0.00010839909679576474
-0.4759996505687013,-0.4759996505687013,0.9998978481889569,0.00010651048958720817
-0.4759234391785867,-0.4759234391785867,1.0001275490610502,0.00010705205488762215
-0.47580186176201095,-0.47580186176201095,0.9998338827568849,0.00011800917199249524
-0.4756755349037121,-0.4756755349037121,0.9998752681280388,0.00010658687722212555
-0.47553658650576835,-0.47553658650576835,1.0000465857567635,0.00011632180124686458
-0.4753942815725168,-0.4753942815725168,0.9999891614813852,0.0001170905975589535
-0.47526507827060416,-0.47526507827060416,0.9998553322524935,0.00010683602897130972
-0.4751585647143656,-0.4751585647143656,1.0000750172979895,0.00011578780150262491
-0.47505127367330713,-0.47505127367330713,1.0000780663598892,0.00011166187651404695
-0.4749265605023538,-0.4749265605023538,1.0000935249067302,0.00011174527886860576
-0.47476843565455057,-0.47476843565455057,1.0000789289761143,0.00010648669613695324
-0.47467115809995447,-0.47467115809995447,0.9998124076802147,0.00010972164315484068
-0.4745422627522203,-0.4745422627522203,0.9999685600505099,0.00010511319288938271
-0.4743889545723505,-0.4743889545723505,1.0001162985823655,0.00010668911920820141
-0.4742401252849959,-0.4742401252849959,0.9999612822609653,0.0001069191225898572
-0.474137168215384,-0.474137168215384,1.0000796248174413,0.00010727500944241106
-0.4740263613079151,-0.4740263613079151,1.0000803468269475,0.00010679328581264542
-0.4739541650254978,-0.4739541650254978,1.0003086672549295,0.00011356854616319134
-0.4738276203330315,-0.4738276203330315,1.0000962559411,0.00010848316546587578
-0.4736636036039272,-0.4736636036039272,0.9999547532756958,0.00010925982905051447
-0.4735512548657425,-0.4735512548657425,1.0000293056754772,0.00010507288978085487
-0.4734263745514909,-0.4734263745514909,0.9999812258078231,0.00010796385779702396
-0.4732703106383269,-0.4732703106383269,1.0001002724211574,0.00010595335637334485
-0.47308287685737016,-0.47308287685737016,1.000247410070806,0.00010726797113923367
-0.47289116345418736,-0.47289116345418736,1.0001457878051339,0.00010696178326563006
-0.4728204472012294,-0.4728204472012294,1.0001319400209883,0.00010662142907360429
-0.4726867503741232,-0.4726867503741232,1.0000751294243697,0.00010603589084691795
-0.47256680526115813,-0.47256680526115813,0.9999022543180281,0.00010663648006952169
-0.47238754721256554,-0.47238754721256554,0.9999309403129736,0.00010610250381352425
-0.47224886829717433,-0.47224886829717433,0.9999943027233827,0.0001063342063834909
-0.4721015369250381,-0.4721015369250381,0.9999940018345244,0.00010604762179887981
-0.4718794900254579,-0.4718794900254579,1.000131177319803,0.00010591825680949585
-0.4716463276199647,-0.4716463276199647,0.9999747494674562,0.0001057108071834513
-0.4713874022876553,-0.4713874022876553,1.0000763968552975,0.00010784566846497152
-0.4710995323541283,-0.4710995323541283,1.0000900717136818,0.00010864916313135339
-0.47096858232689554,-0.47096858232689554,0.9999506724850219,0.00010859247754700839
-0.4707758198499505,-0.4707758198499505,1.0002820224130313,0.00010546526820423556
-0.4707018180852174,-0.4707018180852174,1.0001010744742405,0.00011001042079342193
-0.4705874175822828,-0.4705874175822828,1.0001464513228304,0.00010646863307514141
-0.4704858079072437,-0.4704858079072437,0.9999003379815019,0.00010715515200809575
-0.47036377462936796,-0.47036377462936796,1.0000120835093358,0.00010642409391343787
-0.47021858681182493,-0.47021858681182493,1.000050340989139,0.00010700148619931808
-0.47013287802401466,-0.47013287802401466,1.0000656340358014,0.00010478805501526817
-0.47001263864003706,-0.47001263864003706,0.9998328106621781,0.00010625323204005205
-0.4698421588422207,-0.4698421588422207,0.9999144172827463,0.00010682246192008694
-0.46970619516578155,-0.46970619516578155,1.0000790817033984,0.00010746011569041582
-0.46956584530562395,-0.46956584530562395,0.9998583145582332,0.00010797936153465936
-0.4694793468610442,-0.4694793468610442,1.0000102895970868,0.00010667419444468373
-0.4693080575700151,-0.4693080575700151,1.0000310650961204,0.00010573975102777292
-0.4691964828889468,-0.4691964828889468,1.0002778156300824,0.0001081978049267611
-0.4690743461513193,-0.4690743461513193,1.0000149140916907,0.00010721842177800716
-0.46885407130030216,-0.46885407130030216,1.0000463046910988,0.00010732650734842093
-0.4687413017411018,-0.4687413017411018,1.000072766254871,0.00010815380321536284
-0.4686700359627139,-0.4686700359627139,0.9999062057428372,0.00010412406438080504
-0.46860052743795677,-0.46860052743795677,1.0000557575195657,0.00010479027503568148
-0.4683961731607269,-0.4683961731607269,1.000028678875134,0.00010709917592195333
-0.46825221912367854,-0.46825221912367854,0.9998933793507687,0.00010441020781760024
-0.46806264659535374,-0.46806264659535374,0.9998821645408228,0.00010513551706893464
-0.467892178704642,-0.467892178704642,1.0000527143316869,0.00011016024675181764
-0.46779590813894173,-0.46779590813894173,1.0000175626883592,0.00011174984484985894
-0.4676363129081437,-0.4676363129081437,1.0002127056668417,0.00011386937166559415
-0.4675310094244196,-0.4675310094244196,0.999950671632245,0.00010740551132944444
-0.4674132312524307,-0.4674132312524307,0.9997783468877394,0.00010685243967282735
-0.4672103554723435,-0.4672103554723435,1.000198126518935,0.00011017364079662921
-0.46708261270541696,-0.46708261270541696,0.9999612642314867,0.00011256279933314768
-0.4668612107438094,-0.4668612107438094,1.0000610502109226,0.00011614039555056058
-0.4667154704788118,-0.4667154704788118,1.0000211508427483,0.00011542709335394394
-0.4666437250300078,-0.4666437250300078,1.000091216205797,0.00010712014916331141
-0.4665319530242414,-0.4665319530242414,0.9999806500653221,0.00011239604527881068
