time,time,flux,flux_err
-0.4998701387365638,-0.4998701387365638,1.0001042030973875,0.00015394809383487655
-0.4996938000615273,-0.4996938000615273,0.9999806767519923,0.00014972806254407746
-0.4995675370910703,-0.4995675370910703,0.9998849075988974,0.00014709659887648236
-0.499435184716117,-0.499435184716117,1.000012889814228,0.00013830290278837374
-0.49926981184155467,-0.49926981184155467,1.0000518072084181,0.0001487185879418236
-0.49910464017707457,-0.49910464017707457,1.0001573810911046,0.00013786385692466182
-0.49896438409505206,-0.49896438409505206,1.0000019625945498,0.00014524174384257824
-0.49887907950969745,-0.49887907950969745,1.0000774778792156,0.00013575649550492684
-0.4986643259228458,-0.4986643259228458,1.000034703816258,0.00016498680008795766
-0.498459668481064,-0.498459668481064,0.999801612212749,0.0001447869086324133
-0.4983010084957641,-0.4983010084957641,1.0000448039319878,0.00014237671444235743
-0.49819176857070036,-0.49819176857070036,1.00018521197015,0.0001413080889134153
-0.4980915048212182,-0.4980915048212182,1.0001024239233172,0.0001470341535453644
-0.49793274803544135,-0.49793274803544135,1.0000068387988927,0.00013736776122903234
-0.49782120138870595,-0.49782120138870595,1.0001490516436524,0.00014274168534167636
-0.4976364468075417,-0.4976364468075417,0.9998416593311827,0.00014712885579301117
-0.4975022805325807,-0.4975022805325807,0.9999612458238418,0.00014345771311038733
-0.4973572751443044,-0.4973572751443044,1.000118633750133,0.00015159331342057917
-0.49720040563133805,-0.49720040563133805,0.9998550988077852,0.00015051261792579302
-0.49705427049718764,-0.49705427049718764,0.999719701990481,0.00013907437758081358
-0.4969338416267874,-0.4969338416267874,1.0000825544001235,0.00014291014930293438
-0.49678469467785363,-0.49678469467785363,0.9998796647828637,0.00014032542729433328
-0.49664593996985784,-0.49664593996985784,0.9997457776810122,0.0001412400816535906
-0.49646747136573594,-0.49646747136573594,0.999698749447294,0.00013968370956773992
-0.4963621857226144,-0.4963621857226144,1.0002104418868798,0.00013988258797084215
-0.4962152608245788,-0.4962152608245788,0.999847412406641,0.00014242454246014702
-0.49608199272399817,-0.49608199272399817,1.000152465002869,0.0001427567801093747
-0.49593581716264906,-0.49593581716264906,1.0000887470762212,0.00014090356939150682
-0.4958418461799511,-0.4958418461799511,0.999857305391662,0.00013884437547400584
-0.4957872184821099,-0.4957872184821099,1.0000660865756728,0.0001424279714764259
-0.49563887144140606,-0.49563887144140606,0.9999735858521801,0.00014344814476625623
-0.4955321077296048,-0.4955321077296048,1.0000253750350363,0.00014070169611776694
-0.49538191746985377,-0.49538191746985377,0.9997770267007106,0.0001383500947854497
-0.49521882565818487,-0.49521882565818487,1.0000243068412726,0.00014971447663736275
-0.4950925843000732,-0.4950925843000732,0.9999735136688136,0.00014707567744714803
-0.4949602385129538,-0.4949602385129538,1.000184784903779,0.00013830971348732676
-0.4947948393695242,-0.4947948393695242,0.9999685811501061,0.00014875866652953315
-0.4946296417714848,-0.4946296417714848,1.0000559925626253,0.00013785570758812946
-0.49448941481480235,-0.49448941481480235,1.0000852047988709,0.00014522491045219373
-0.494404103911279,-0.494404103911279,0.9999361283291496,0.0001357408452937159
-0.4941893565779537,-0.4941893565779537,1.0000307117025016,0.00016560791077415983
-0.4939847453144239,-0.4939847453144239,0.9997684157249956,0.00014479910309896554
-0.4938260631742196,-0.4938260631742196,0.9999450375659539,0.00014238385013144115
-0.49371682610492373,-0.49371682610492373,0.9999608028247234,0.00014135011880804293
-0.49361659554381276,-0.49361659554381276,1.0000589973062712,0.0001470133044618796
-0.49345777941093727,-0.49345777941093727,1.0000836782911466,0.00013737340645940163
-0.49334623073727923,-0.49334623073727923,1.0001829247805614,0.00014274115157664546
-0.49314144488382683,-0.49314144488382683,1.000005815325404,0.00014630452133633637
-0.4930111955888151,-0.4930111955888151,0.9998997607377952,0.00014319770195257223
-0.4928469028702011,-0.4928469028702011,1.000278102548538,0.00015267999199084962
-0.49272542800035807,-0.49272542800035807,1.0001311824478563,0.0001505510505361078
-0.4925793196310451,-0.4925793196310451,1.0002015317172812,0.00013908638305121435
-0.49245889559949774,-0.49245889559949774,0.9998041648159344,0.00014290666547146417
-0.4923097147204089,-0.4923097147204089,1.0000037228924656,0.00014033211592414085
-0.4921709433415799,-0.4921709433415799,0.9999762036048798,0.00014127454275755498
-0.4919925260152468,-0.4919925260152468,1.0001018049444772,0.00013970334389809273
-0.4918872507844071,-0.4918872507844071,0.999809834363079,0.00013985963072653593
-0.4917403495037661,-0.4917403495037661,0.9998869947417568,0.0001424709555161548
-0.4916012789060005,-0.4916012789060005,1.0001051770992002,0.00014275131356885384
-0.49142520783716465,-0.49142520783716465,0.9999657435057285,0.0001408981461311534
-0.4913598155268346,-0.4913598155268346,1.0000048359173603,0.00013795072966660916
-0.49128747517413557,-0.49128747517413557,1.0001230765015106,0.00014454778126781956
-0.49113825583676773,-0.49113825583676773,1.0002407174446974,0.00014208840007766976
-0.49102897049594957,-0.49102897049594957,1.0002010759362185,0.00013934351304824345
-0.490879271974336,-0.490879271974336,0.9999623710341728,0.00014421304886295404
-0.49071951777718825,-0.49071951777718825,0.9999791724668018,0.00014770373755615342
-0.49057089533866927,-0.49057089533866927,1.0002581917767028,0.0001424516448724451
-0.49044603160364203,-0.49044603160364203,0.999947145472096,0.00014591106895749583
-0.4902790129000323,-0.4902790129000323,1.0000397288374123,0.000144373575594374
-0.49011638280521763,-0.49011638280521763,0.9998813691746896,0.00013866467451273894
-0.48999801264474174,-0.48999801264474174,0.9999032034639482,0.00014208929134707814
-0.4899134981379348,-0.4899134981379348,1.0001088150791424,0.00013579546257802978
-0.4896516156152984,-0.4896516156152984,0.9998153021068287,0.0001676093277240627
-0.4894828036875879,-0.4894828036875879,0.9998812181883894,0.00014536041611032792
-0.48932042353392263,-0.48932042353392263,0.999939731811976,0.00014106011508037812
-0.48922607995800715,-0.48922607995800715,0.9998878718353863,0.00014153282561041945
-0.4891066798657448,-0.4891066798657448,0.999824496929621,0.00014776143701958653
-0.4889641822273688,-0.4889641822273688,0.9998005387773391,0.000141271293090381
-0.48883236159590526,-0.48883236159590526,1.0000714947817073,0.00013999437808843301
-0.4886342001937692,-0.4886342001937692,0.9999790363642015,0.00014755659187420635
-0.48850814654142594,-0.48850814654142594,0.9998869723941513,0.00013904956973562386
-0.48834869401823655,-0.48834869401823655,0.9997878123467746,0.00015827349343067952
-0.488217034175409,-0.488217034175409,0.9999967937080723,0.000146575487113444
-0.4880865265309467,-0.4880865265309467,1.0001841158457438,0.0001385219496331039
-0.48794693925265165,-0.48794693925265165,1.0000366388658413,0.00014152567610196688
-0.4878061485548642,-0.4878061485548642,1.0001705257327569,0.00014392698830706293
-0.48767111916117756,-0.48767111916117756,0.999846611813379,0.000139664192227739
-0.48748268797505717,-0.48748268797505717,1.000021068870066,0.00014132639140451041
-0.4873916095283903,-0.4873916095283903,1.0000490065799328,0.00013822606894479657
-0.48723190250391324,-0.48723190250391324,0.9998159069765784,0.0001410443764205664
-0.487102353780233,-0.487102353780233,1.0000093996910375,0.00014423857760641917
-0.48692019061936664,-0.48692019061936664,1.0000507456024526,0.00014017099335427905
-0.4868729642809512,-0.4868729642809512,1.0000430118778627,0.00013740780182521192
-0.48675191905424525,-0.48675191905424525,0.9999409826928145,0.00014854735335207523
-0.4866240218811072,-0.4866240218811072,0.999797000062879,0.00013856728057598633
-0.48650750983977104,-0.48650750983977104,0.999802446121261,0.00013965183717361789
-0.4863640656032658,-0.4863640656032658,1.0000422664061044,0.00014206851345918475
-0.4862276943508732,-0.4862276943508732,0.9997912864329072,0.00014971246705300107
-0.4860615918987605,-0.4860615918987605,1.0000412175651692,0.00014106521243573405
-0.4859271112196666,-0.4859271112196666,0.9999506233734209,0.0001471818380551872
-0.48573843621309154,-0.48573843621309154,1.0000537937007858,0.00014046020687405353
-0.48558572816234574,-0.48558572816234574,1.0001104482922634,0.00013924598161835146
-0.4854929129136508,-0.4854929129136508,0.9999730920771601,0.000142411857758669
-0.4853706643265923,-0.4853706643265923,0.9999862274360842,0.0001386529435389681
-0.48513137559964437,-0.48513137559964437,1.0002014286745202,0.0001708425753655586
-0.48497909649440774,-0.48497909649440774,0.9999203008084185,0.0001415254322352228
-0.48481921583268106,-0.48481921583268106,1.0000452183815356,0.00013883244044001386
-0.4847337947051983,-0.4847337947051983,0.9998118988389564,0.0001463153361923256
-0.48459508140826985,-0.48459508140826985,0.9998735196537624,0.00014372793713237066
-0.48447616824521444,-0.48447616824521444,1.0000056192874802,0.00014250756460784273
-0.48431528795163103,-0.48431528795163103,1.0000045336098338,0.00013870661476289537
-0.4841251546612284,-0.4841251546612284,1.0002231730070987,0.00014815204818251435
-0.4839710357398417,-0.4839710357398417,0.9998959600956102,0.00014637773547628046
-0.48383317125089886,-0.48383317125089886,0.9997816831175277,0.00015581046272119511
-0.4836729527701209,-0.4836729527701209,1.0001482411354505,0.00014174360936080964
-0.48357192197572657,-0.48357192197572657,1.000040657970914,0.00014098001568216647
-0.48344090350556146,-0.48344090350556146,0.9999054531413849,0.00013931618242278278
-0.4833002267499523,-0.4833002267499523,1.000100142732173,0.00014190943885180823
-0.4831631482977855,-0.4831631482977855,1.000134231605374,0.00014164753665193232
-0.4829830092181055,-0.4829830092181055,0.9998764172144146,0.00014075862633770126
-0.4828940144152284,-0.4828940144152284,0.9999664664154736,0.00013872108940101894
-0.4827230815570601,-0.4827230815570601,1.0000593350705391,0.00014016364051671547
-0.4825898932052951,-0.4825898932052951,0.9999596275524546,0.00014577608013660554
-0.4824336408938962,-0.4824336408938962,0.9999755745188381,0.00013980085697083895
-0.4823856713621126,-0.4823856713621126,1.0001297628173076,0.00013992078920333043
-0.4822423070774221,-0.4822423070774221,0.9999876865143843,0.00014354294005245718
-0.4821340584633617,-0.4821340584633617,0.9998253956670551,0.0001404448347020045
-0.48198958210841736,-0.48198958210841736,1.000063846967344,0.0001401899967943787
-0.48181617791587994,-0.48181617791587994,0.999731209730734,0.00015180969059628988
-0.4816576268506651,-0.4816576268506651,1.0000520301208182,0.0001460271399269871
-0.48151850187653056,-0.48151850187653056,0.9998624313159542,0.0001359677093057694
-0.4813699220402441,-0.4813699220402441,1.0000588973726205,0.00014877871713011226
-0.48120464669382274,-0.48120464669382274,0.9999237854955139,0.00013784674749999117
-0.48107595858518837,-0.48107595858518837,0.9999779324818621,0.00014615101990495476
-0.4809968778905159,-0.4809968778905159,1.0000610890108583,0.00013640284809885
-0.4808800238547519,-0.4808800238547519,0.9998658273789107,0.0001382706358507166
-0.48065643194772745,-0.48065643194772745,1.0000003521209342,0.00017105069897601418
-0.4805041767777311,-0.4805041767777311,1.0001027738555495,0.00014155987470372265
-0.48034426815061126,-0.48034426815061126,1.0001250804852053,0.00013882213808913188
-0.48025886524046657,-0.48025886524046657,0.9999192623283453,0.00014630959894620493
-0.48012015293668353,-0.48012015293668353,1.0000905455340547,0.00014372980111704186
-0.48000120921315104,-0.48000120921315104,1.0000665619665354,0.00014252769492355757
-0.47984033144534805,-0.47984033144534805,0.999897897647833,0.00013867609351444755
-0.47963910073108307,-0.47963910073108307,1.0000909990237299,0.00014528975143089087
-0.4794587851627057,-0.4794587851627057,1.0003590549439765,0.0001496147854641676
-0.47933254506501727,-0.47933254506501727,0.9998807444475861,0.00015396184534772822
-0.47917334446342463,-0.47917334446342463,0.9999227217870246,0.00014071087226393775
-0.4790882791173317,-0.4790882791173317,1.000043143187907,0.00014358656566925185
-0.47894009013725736,-0.47894009013725736,1.0000296989616846,0.00014167336184709069
-0.4787923275782305,-0.4787923275782305,0.9999369404664227,0.00014026397354856575
-0.4786365493406265,-0.4786365493406265,0.9999997523179429,0.00013891646651272008
-0.47849146651180946,-0.47849146651180946,0.9998995509023831,0.00014041358131090605
-0.47839491461818395,-0.47839491461818395,1.0003587699325291,0.00014191251439675865
-0.4782160539818278,-0.4782160539818278,1.0003204845032447,0.00014329970827848756
-0.4780742260987836,-0.4780742260987836,0.9999746867307092,0.00014056995137812502
-0.47794991114219554,-0.47794991114219554,0.9998912552572484,0.0001390170702552884
-0.47789195803311485,-0.47789195803311485,0.999742556327503,0.00014337437703869124
-0.477730927062953,-0.477730927062953,1.0001493511759845,0.00014518988604250585
-0.47760405163280667,-0.47760405163280667,0.9998921728042471,0.0001393272973621115
-0.4774730779632591,-0.4774730779632591,1.0002478590753223,0.00014045996405140354
-0.4773150847804345,-0.4773150847804345,0.9999396793010946,0.00015342379852418387
-0.4771637502896965,-0.4771637502896965,1.0000436250809612,0.00014200749863727954
-0.47704353172882746,-0.47704353172882746,1.0001950155188126,0.00013599148648255278
-0.47689494962510254,-0.47689494962510254,1.0001231501117132,0.00014880246954127645
-0.4767296483817745,-0.4767296483817745,1.0000004129540296,0.00013786024292403547
-0.47658953761915657,-0.47658953761915657,1.000072607826136,0.00014519325196832032
-0.4765042017210817,-0.4765042017210817,1.0000300585251878,0.00013573557378320547
-0.4763696561039751,-0.4763696561039751,0.9999497547480758,0.00013807728500500464
-0.4761548737705425,-0.4761548737705425,0.9998395062949201,0.00017086873146912403
-0.4760292570745605,-0.4760292570745605,0.9999051322810371,0.00014154096284530712
-0.47586932050153335,-0.47586932050153335,0.9998823175684809,0.0001388122937799798
-0.4757839357935609,-0.4757839357935609,0.999936368559718,0.00014632616873859605
-0.47564522447901253,-0.47564522447901253,0.9999036329617802,0.00014371722198479634
-0.47552625020202866,-0.47552625020202866,1.0000149773855334,0.00014251157396032223
-0.47536537496698655,-0.47536537496698655,0.9999098403200156,0.00013868625175811905
-0.47516413679875313,-0.47516413679875313,1.0001499687553914,0.00014530512240769933
-0.4749838368043129,-0.4749838368043129,0.9999337948759568,0.00014957854759643644
-0.4748575739460648,-0.4748575739460648,1.000147955824168,0.0001540040425206503
-0.47469838137503756,-0.47469838137503756,0.999996411378838,0.00014071042225759334
-0.4745944644916335,-0.4745944644916335,1.0000160248287229,0.00014227545363278187
-0.47444176271296784,-0.47444176271296784,0.9998994302364679,0.00013845570315466292
-0.4742818534529306,-0.4742818534529306,0.999736861098642,0.0001431004547994571
-0.4741266638773823,-0.4741266638773823,1.0000754694464933,0.00013781366249703556
-0.47399985276088047,-0.47399985276088047,1.0001790029717452,0.00013992121303550234
-0.4738824869004475,-0.4738824869004475,0.9999757783921946,0.00014238601419872264
-0.4737212220563379,-0.4737212220563379,0.9999033152715866,0.00014277473828119662
-0.4735754813077847,-0.4735754813077847,0.9998850562723813,0.0001426853279775757
-0.47347494811922386,-0.47347494811922386,0.9999484194696754,0.00013895418225301744
-0.4734170088916244,-0.4734170088916244,1.0001317307325954,0.00014341288012249782
-0.4732560288245168,-0.4732560288245168,0.9999975476115784,0.0001451890740795389
-0.4731051936596259,-0.4731051936596259,0.9999542414707788,0.0001407037960266564
-0.4729727545609649,-0.4729727545609649,0.9999741876894074,0.00014609376085310423
-0.472808252303912,-0.472808252303912,1.0001342551665215,0.00014998175008914624
-0.47263676645986835,-0.47263676645986835,0.999938376367733,0.00014106260842041535
-0.4725366331091436,-0.4725366331091436,1.00007324817862,0.00014494255568674684
-0.47234877653791046,-0.47234877653791046,0.9999362054820212,0.00014097410346224407
-0.47221644670376006,-0.47221644670376006,1.0000287712216314,0.0001386886364559613
-0.47209802011989266,-0.47209802011989266,0.9999503550272987,0.00014202022231993354
-0.47201359086157024,-0.47201359086157024,1.0001102996407025,0.00013579605719980778
-0.47184478593221685,-0.47184478593221685,1.0004976823435092,0.00016688870647824092
-0.47163321538610037,-0.47163321538610037,1.0001764502044748,0.0001448340476598344
-0.4714860373129568,-0.4714860373129568,1.0002094369511036,0.00014240354978425622
-0.47135789407809625,-0.47135789407809625,1.0000060939702058,0.00013755455039953548
-0.4712744623221624,-0.4712744623221624,1.000048408605226,0.00014922137639598773
-0.4711016782128127,-0.4711016782128127,0.9998998801661937,0.00014009916622697156
-0.4710037837769733,-0.4710037837769733,1.0000268327887762,0.00014324391624993309
-0.4708062274827398,-0.4708062274827398,0.9999427907991578,0.00014228619068987767
-0.4706237233297543,-0.4706237233297543,1.0001858917532194,0.00014308927126981146
-0.4704387359030079,-0.4704387359030079,1.0001965178354506,0.00015729515734697028
-0.4702714218677556,-0.4702714218677556,0.9999400603927302,0.0001460217905036285
-0.4701710477637107,-0.4701710477637107,1.0000801118342053,0.00014039828895125533
-0.4700470513181244,-0.4700470513181244,1.000073280407571,0.00014146717316203765
-0.4699008248758901,-0.4699008248758901,1.000087140418378,0.00014030513786456126
-0.4697256513066577,-0.4697256513066577,1.0002233231384916,0.0001392741839620094
-0.46955822591712604,-0.46955822591712604,1.0003380469557321,0.00014082421313500002
-0.46946922591694146,-0.46946922591694146,0.9999649084495594,0.0001387257169030666
-0.4693303557939544,-0.4693303557939544,1.0002134395360245,0.00013984378931535872
-0.46920260591475654,-0.46920260591475654,1.0000266243226688,0.00014418213512676549
-0.4690386167278803,-0.4690386167278803,0.9999133936958421,0.00014178345097887808
-0.4689850072782292,-0.4689850072782292,1.000120098608203,0.00013754608086652512
-0.4689104328685062,-0.4689104328685062,1.000297468482254,0.00014836848568793614
-0.468753854021611,-0.468753854021611,0.9999072256267139,0.00014308522130233235
-0.46859687515475346,-0.46859687515475346,0.9999298006465309,0.00014133648701430284
-0.46842649411617004,-0.46842649411617004,1.0001945341471161,0.0001487104593128451
-0.46827330443966275,-0.46827330443966275,0.9998947321770897,0.00014766521587329879
-0.46811056177114096,-0.46811056177114096,1.0000131432954045,0.0001383384613179745
-0.4680057938721802,-0.4680057938721802,1.0000087438734024,0.00014603496617634183
-0.4678545080964341,-0.4678545080964341,0.9999727480613089,0.00014041438422879472
-0.4677147479286532,-0.4677147479286532,0.99979831184222,0.00013678921083273268
-0.4676063704367152,-0.4676063704367152,1.0001828611650052,0.0001424347362800046
-0.4675118974807674,-0.4675118974807674,1.00011210664204,0.00013538643130289678
-0.4673222326888208,-0.4673222326888208,0.9999095258798452,0.0001683485917375755
-0.4671352065213796,-0.4671352065213796,1.0003074237458063,0.00014487201789895255
-0.4669763916428565,-0.4669763916428565,1.0001296206017785,0.00014243503859041336
-0.4668671718111227,-0.4668671718111227,1.0000702832979464,0.00014135295649313732
-0.4667808280173631,-0.4667808280173631,1.0000972096729233,0.00014813005295388727
-0.46662672854924947,-0.46662672854924947,1.0000179277464105,0.00014006145310042312
-0.4665288230029773,-0.4665288230029773,1.0001689705021504,0.00014319254584371145
-0.46633127680108827,-0.46633127680108827,1.0000993256448538,0.00014230232389987613
-0.46614875281886725,-0.46614875281886725,0.9999936195469857,0.0001430684086484806
-0.4659637880973605,-0.4659637880973605,1.0001074776838763,0.00015732773093971145
-0.4657819738255512,-0.4657819738255512,0.9999810085553541,0.0001430085141873694
