time,time,flux,flux_err
-0.4999677233980037,-0.4999677233980037,0.9999939708903408,0.00025274837595281154
-0.4998287362017436,-0.4998287362017436,1.000139459239127,0.0002646054017208075
-0.4996837238286389,-0.4996837238286389,1.0003435792889206,0.0002447151463458725
-0.49960437542758884,-0.49960437542758884,0.9997148630966002,0.0002648986198966418
-0.49941012474591845,-0.49941012474591845,1.0001543469187892,0.00023122390244093195
-0.49933551422145683,-0.49933551422145683,0.999952954656159,0.000278148445674472
-0.49920448109915017,-0.49920448109915017,1.0001854471179878,0.0002517618016774561
-0.49904761751240584,-0.49904761751240584,0.9998742487466966,0.0002765079376358699
-0.498934805119643,-0.498934805119643,1.0000469444847941,0.000278652577526567
-0.49888230694341473,-0.49888230694341473,0.9999843876024244,0.0002644598774965809
-0.4988004240905866,-0.4988004240905866,1.0000268875911316,0.0002384376649335729
-0.49869751295191234,-0.49869751295191234,1.0004226549871658,0.00023009340836385576
-0.4985946765227709,-0.4985946765227709,1.0001369338651553,0.000291060188347058
-0.4985006119328318,-0.4985006119328318,1.0002900734864066,0.0002474871267021379
-0.4983852930046851,-0.4983852930046851,0.9999924377616122,0.00030095802819797546
-0.4982836013601627,-0.4982836013601627,1.0002510040073584,0.0002815925611626499
-0.49821495169017,-0.49821495169017,0.9999512501832395,0.00026267052156194625
-0.49807842856680506,-0.49807842856680506,0.9998854834248615,0.00025584500778629303
-0.49799770090612583,-0.49799770090612583,0.9998190766996276,0.0002653327342983728
-0.49795362636214124,-0.49795362636214124,1.000193775489159,0.00022163917749888854
-0.4978093059762614,-0.4978093059762614,0.9999812688962992,0.00025426225712018674
-0.49768671416968574,-0.49768671416968574,1.0001768842850924,0.00022461848377119698
-0.4975559230748331,-0.4975559230748331,1.0001704751071976,0.0002444865803838814
-0.49744443437375596,-0.49744443437375596,0.9998262215030145,0.00025936721704354236
-0.4972946634836262,-0.4972946634836262,1.0000952513045942,0.000250807912811339
-0.4971559579484165,-0.4971559579484165,1.000248759076155,0.0002702966142739035
-0.497044421650935,-0.497044421650935,1.000113484696246,0.00028675641149784686
-0.4969319613883272,-0.4969319613883272,0.9998669498605863,0.00028124284316352946
-0.4968283203925239,-0.4968283203925239,0.999787672274354,0.00028508228572735603
-0.4966313226148486,-0.4966313226148486,0.9997515730391683,0.0002478542531547478
-0.49649036928021817,-0.49649036928021817,0.9998754335149034,0.00024350239209246612
-0.49639791662048083,-0.49639791662048083,1.000017835402899,0.0002649128053633059
-0.49627226942393465,-0.49627226942393465,1.0002165239408367,0.00021743756668646182
-0.49616663705091923,-0.49616663705091923,1.0003651588911016,0.00026810738196975987
-0.4960200621950207,-0.4960200621950207,1.0001740255986766,0.00022534536598101522
-0.49590724034642336,-0.49590724034642336,1.0000181672573727,0.00024807030537616227
-0.4957025406329194,-0.4957025406329194,0.9999705011623101,0.00027005109863289557
-0.4955868581746472,-0.4955868581746472,1.0002201948397622,0.00023104421410059364
-0.4955069795832969,-0.4955069795832969,1.000174626155049,0.0002263688841675415
-0.49542627681803425,-0.49542627681803425,1.0004253488800088,0.0002855523489572806
-0.4952316656068433,-0.4952316656068433,0.9999859399977377,0.00026503804535305003
-0.4951590374810621,-0.4951590374810621,0.9997863207584554,0.0002741814614902104
-0.4950907856022241,-0.4950907856022241,0.9999348772462815,0.0002501115077250866
-0.49502735275600573,-0.49502735275600573,1.0002131951492008,0.00025818404948424283
-0.49493004360701887,-0.49493004360701887,0.9999567819210926,0.00026558580522072185
-0.49481026239227505,-0.49481026239227505,0.9996845361765189,0.00022526486979632413
-0.4947010820294963,-0.4947010820294963,1.0002487412322156,0.00023803407453301635
-0.49447515480860604,-0.49447515480860604,0.9996625748222033,0.00027707150195717433
-0.49437384722114075,-0.49437384722114075,1.0004342424407182,0.0002444346827748445
-0.49421896269486754,-0.49421896269486754,1.0003506768905628,0.00023874031677953008
-0.49410228459746575,-0.49410228459746575,1.0002030864302125,0.00024216925683316132
-0.49402573579282033,-0.49402573579282033,1.0001443600140951,0.00027678342147871647
-0.4938893019687384,-0.4938893019687384,1.0002008425513034,0.0002648486261483467
-0.4938154672126984,-0.4938154672126984,1.0001505149751029,0.0002276083068982584
-0.49363352347863837,-0.49363352347863837,0.9998982796978775,0.0002235784540554989
-0.4935588389431359,-0.4935588389431359,0.9999083964234151,0.00027877077141641226
-0.49341170011903157,-0.49341170011903157,0.9997964371915259,0.00026318004361212553
-0.4932870366930729,-0.4932870366930729,0.999901269895977,0.0002449998285057288
-0.49319200627505777,-0.49319200627505777,1.0000033615936474,0.00024068602870021605
-0.4930712850240525,-0.4930712850240525,0.9997892469555275,0.0002734682831861092
-0.49296618220978417,-0.49296618220978417,0.9998439710547432,0.00024169512717590603
-0.4928351510578068,-0.4928351510578068,1.0000310298865993,0.0002486127595346707
-0.49270489300834014,-0.49270489300834014,1.0001783977798109,0.00026229238670389673
-0.4925793622358469,-0.4925793622358469,1.0000254634005716,0.0002592041150866914
-0.4924947200808674,-0.4924947200808674,1.000112337076363,0.00022813933903232628
-0.4922853794123512,-0.4922853794123512,0.9999812967863264,0.00024945773380567065
-0.49211846995458475,-0.49211846995458475,0.9996211276222275,0.0002638861785083706
-0.4920059675030643,-0.4920059675030643,1.0004162092700077,0.00024713507357429737
-0.49185878683638296,-0.49185878683638296,0.9999078132507586,0.0002760671348726221
-0.4917809717298951,-0.4917809717298951,0.999908186751082,0.0002784122736226049
-0.49164315149828325,-0.49164315149828325,1.0003008143225363,0.00025719705874015773
-0.49150229144725016,-0.49150229144725016,1.00000908770421,0.000244160562808374
-0.4914339294133242,-0.4914339294133242,0.9999843161397077,0.0002747078831604584
-0.4913873906043591,-0.4913873906043591,1.0001344902822784,0.0002524407017088739
-0.49129566632327626,-0.49129566632327626,0.9999821085135474,0.0002663375807132141
-0.49116056619677695,-0.49116056619677695,1.0002782421953378,0.00025621140008681346
-0.4910020993935177,-0.4910020993935177,1.0000044264687449,0.00023245845205642477
-0.49090574132860637,-0.49090574132860637,0.9999080432038034,0.00027972183984395504
-0.4908498675649753,-0.4908498675649753,0.999998388699488,0.0002448854255560977
-0.4907593311945675,-0.4907593311945675,0.9997785927594958,0.0002413628195285633
-0.4906390339543577,-0.4906390339543577,1.000194484709667,0.00026031045806078053
-0.4905628574779257,-0.4905628574779257,0.9999987587015916,0.0002386910479237816
-0.49045114015461877,-0.49045114015461877,0.9997411401463996,0.0002398340419720417
-0.49029846559569706,-0.49029846559569706,0.9999562385035908,0.00027532530941799316
-0.49014985182438975,-0.49014985182438975,1.0002270740338663,0.00028872947421861316
-0.4900370210991241,-0.4900370210991241,1.000233104881373,0.0002609394070467104
-0.48986547108215744,-0.48986547108215744,1.0003620405894764,0.0002813964904538248
-0.48979606936336495,-0.48979606936336495,0.9998762243065997,0.0002308081868209044
-0.48968778739508706,-0.48968778739508706,0.9997358323581407,0.0002686268607684847
-0.48957541610579935,-0.48957541610579935,0.9995995904695869,0.0002749196794347112
-0.4894483888434479,-0.4894483888434479,0.9999945031123236,0.00023456278533657768
-0.4893930537684355,-0.4893930537684355,1.0000915517155438,0.00029179325296082047
-0.48925800223951227,-0.48925800223951227,0.9995158924895733,0.0002991573731073235
-0.48917532933992336,-0.48917532933992336,1.0000096976130184,0.0002675206268979419
-0.4890515390841756,-0.4890515390841756,1.0000698094515172,0.00023576295520342283
-0.48899020578246566,-0.48899020578246566,0.9999736959614438,0.00024072684022607695
-0.48888316529919396,-0.48888316529919396,1.0000997909668548,0.00022778488151672417
-0.48877572125347796,-0.48877572125347796,0.9997497610763558,0.00022616418626870573
-0.4886022696620785,-0.4886022696620785,0.9999540596039193,0.00028423127533435245
-0.48856462959665803,-0.48856462959665803,1.0002047485374024,0.0002830409291536452
-0.4884571451693773,-0.4884571451693773,1.0001746380412446,0.0002651124820981756
-0.4883732612099266,-0.4883732612099266,1.0000702624675237,0.00024195950681505738
-0.48830550588609184,-0.48830550588609184,1.0000614340161988,0.0002744957198870416
-0.4881047090573702,-0.4881047090573702,0.9999996122521987,0.0002471630174483774
-0.4879505163960857,-0.4879505163960857,1.0000475354131804,0.0002463705864696557
-0.48783744997635947,-0.48783744997635947,0.9997840990496133,0.00023632701731849656
-0.4876377712440444,-0.4876377712440444,0.9999668617099985,0.0002587341551848793
-0.48745760675228667,-0.48745760675228667,0.9998460893868746,0.00026722970304735553
-0.4873651135712862,-0.4873651135712862,0.9998888693401016,0.00026600647821716433
-0.48727863605017774,-0.48727863605017774,1.0000749307129166,0.00028208835041748203
-0.48721585889870767,-0.48721585889870767,0.9996229364187839,0.0002463667721330126
-0.4871217982523376,-0.4871217982523376,0.9997795702911105,0.00021072795267105152
-0.4870248468942009,-0.4870248468942009,1.0001496155466976,0.0002507658481503579
-0.4869165548065212,-0.4869165548065212,1.0000503404362047,0.0002411522644717728
-0.4868570925202221,-0.4868570925202221,0.9997195162573014,0.00026709614279163743
-0.48676905053143854,-0.48676905053143854,0.999874273860676,0.0002385178366627785
-0.4866653117147507,-0.4866653117147507,1.0000368128892132,0.00020943878759535078
-0.48655408941267525,-0.48655408941267525,0.9999252577618207,0.0002689151904652077
-0.48643027870566585,-0.48643027870566585,1.000348966906683,0.0002533254467049992
-0.48635600772104226,-0.48635600772104226,0.9999591131580363,0.00023627794558807704
-0.48628568940621336,-0.48628568940621336,0.9998317823929229,0.0002393420635861859
-0.4862407509121113,-0.4862407509121113,0.9998736833651842,0.00025661727234194825
-0.48619091807922815,-0.48619091807922815,1.000344769569913,0.00027538553003131946
-0.4861145412258338,-0.4861145412258338,1.0003474200766864,0.00023180700409310156
-0.4860245847288752,-0.4860245847288752,1.0000676842957534,0.00023206940841384176
-0.4859502727369545,-0.4859502727369545,0.9999508256205771,0.000272763095306347
-0.4857474117714446,-0.4857474117714446,1.000197562887128,0.0002766756669363818
-0.4855821425822796,-0.4855821425822796,0.9998637449416549,0.00024245016592439088
-0.48545530073461124,-0.48545530073461124,1.0003594972800554,0.0003180136367275
-0.485347831735271,-0.485347831735271,1.000184064111577,0.0003059867235854415
-0.4851932892081095,-0.4851932892081095,1.000304124642331,0.00026995225906878303
-0.48506707429187373,-0.48506707429187373,0.9999303478542947,0.0002663054954886558
-0.4849794466426829,-0.4849794466426829,1.000123308348582,0.00025084333491020834
-0.48487185423146,-0.48487185423146,0.9999315736755193,0.0002304590178629089
-0.4847546599514317,-0.4847546599514317,0.9999678664583083,0.000252624131314303
-0.48450017724826466,-0.48450017724826466,0.9999007343581523,0.00025088868861578874
-0.4843126533087343,-0.4843126533087343,1.0000111284350763,0.00024064701279966115
-0.48418728859396654,-0.48418728859396654,1.000204243990406,0.0002483007473567135
-0.4841021452535642,-0.4841021452535642,1.0000037454001558,0.0002456100526058664
-0.4839852145436453,-0.4839852145436453,0.9997852857397413,0.00024589667797190583
-0.4838520018820418,-0.4838520018820418,1.0000073419170903,0.0002895957519134434
-0.4837248670082772,-0.4837248670082772,1.000068108261518,0.00028515817102689207
-0.48361531093542,-0.48361531093542,0.9997652385233667,0.00029093351459463215
-0.48349532505963,-0.48349532505963,1.000223371851662,0.00027478843271518344
-0.4834160201571649,-0.4834160201571649,1.0000894722455484,0.00025733910678861754
-0.4833334975584876,-0.4833334975584876,1.0003424431492305,0.0002527958690939632
-0.4833044950646581,-0.4833044950646581,0.9999868631016152,0.0002840150695818576
-0.48313066962291484,-0.48313066962291484,1.0004191141713763,0.00024410014792270273
-0.4829405659751501,-0.4829405659751501,0.999868642114874,0.0002738490003305508
-0.48272285170387474,-0.48272285170387474,1.0002776510787639,0.0002642927557338009
-0.4825944180629449,-0.4825944180629449,1.0000775241339679,0.00025457657874830385
-0.48242213793564587,-0.48242213793564587,1.0003910937931417,0.00022625775421964252
-0.4822709470434347,-0.4822709470434347,0.9997234999413023,0.00028297454890810963
-0.4821521099191159,-0.4821521099191159,1.0001775230189769,0.00025180751009885443
-0.4820508432603674,-0.4820508432603674,0.9996999475439665,0.0002990977312332018
-0.48191972296044694,-0.48191972296044694,0.9998896392073837,0.00024111518003588998
-0.4818246239534346,-0.4818246239534346,0.9998297158669432,0.0002647250867396513
-0.4817343711212743,-0.4817343711212743,1.0000704173768074,0.00026069618765182977
-0.481586760331993,-0.481586760331993,1.0001446842495876,0.00023993925757882133
-0.4814929791697068,-0.4814929791697068,1.000589397022741,0.00027126051341424157
-0.48133415420306846,-0.48133415420306846,1.0000813137158153,0.00023236732482872087
-0.4812141165486537,-0.4812141165486537,0.9999034864438177,0.0002797338394032407
-0.4811177579103969,-0.4811177579103969,1.0001724719091452,0.00022160470103619549
-0.4809665464243153,-0.4809665464243153,1.0000324883429024,0.00024137753489184206
-0.4808511361188721,-0.4808511361188721,1.0001800356398527,0.0002462806434200875
-0.48071713529061527,-0.48071713529061527,0.9997331264673738,0.000254610095190964
-0.48050648358766923,-0.48050648358766923,0.9999236085182437,0.00028760148802072015
-0.48039263116079384,-0.48039263116079384,1.0002722799145478,0.00023991579624806818
-0.4802356548141688,-0.4802356548141688,0.9999724462098643,0.00028922900349353956
-0.48013823441870046,-0.48013823441870046,0.9998857252043807,0.0002601250181485425
-0.4800320745358476,-0.4800320745358476,0.9999564441839481,0.00022179943315847202
-0.47993716862984004,-0.47993716862984004,1.0002210084078311,0.00026351913005897805
-0.4798063474561786,-0.4798063474561786,1.0001669661863863,0.00027113681213444677
-0.47970301324676257,-0.47970301324676257,1.0002486464539404,0.00023186620677696315
-0.47958799652114975,-0.47958799652114975,1.0001727653770334,0.00026725142857072506
-0.4794363756402163,-0.4794363756402163,0.9999763268067111,0.0002931133744568309
-0.47932002793822903,-0.47932002793822903,0.9998566718027029,0.0002239232415517282
-0.4792406127526192,-0.4792406127526192,0.9999026370683731,0.000228249756797721
-0.4791814461204922,-0.4791814461204922,0.9998048807334816,0.0002606349742177561
-0.47905747695767786,-0.47905747695767786,0.9998021265882471,0.00026275269025182504
-0.47887178556993604,-0.47887178556993604,1.0001789754191814,0.0002515381727892676
-0.4787980738125043,-0.4787980738125043,0.9996039909659468,0.00026727968353992186
-0.47872142945125234,-0.47872142945125234,1.0000370676023065,0.00025855210079922644
-0.47863776657904966,-0.47863776657904966,1.0002015743626174,0.0002910378173928424
-0.4784948641085066,-0.4784948641085066,1.0003571833765157,0.00023114672309860326
-0.4783080723602325,-0.4783080723602325,0.9999076133374996,0.0002477877628121008
-0.4781733068753965,-0.4781733068753965,0.9998499327552747,0.00026108708597102936
-0.4781044256873429,-0.4781044256873429,1.0004890806158486,0.000261473590047385
-0.47802901118993757,-0.47802901118993757,1.0002830490230654,0.00022891796344596052
-0.47794714371848385,-0.47794714371848385,0.9999202966409199,0.0002584543967602914
-0.4778034504328389,-0.4778034504328389,0.9998351334609709,0.0002646070558544085
-0.4776800274819834,-0.4776800274819834,1.0001250768477479,0.00028163180654066283
-0.4775820874521742,-0.4775820874521742,0.9999154658899091,0.0002398147809201824
-0.4774838757206453,-0.4774838757206453,1.0001225563188358,0.0002481277227981745
-0.47742559073667507,-0.47742559073667507,1.0001024345277925,0.00026033032039364924
-0.47738176880520766,-0.47738176880520766,1.0000128808399364,0.00022780932899395208
-0.47733015526901,-0.47733015526901,0.9998249222335065,0.00026782574284409994
-0.4772161882312503,-0.4772161882312503,0.999967894344364,0.00024518247139517635
-0.47708323765837124,-0.47708323765837124,1.0001131263583287,0.000301095463072925
-0.4769732454966288,-0.4769732454966288,0.9997999863939873,0.00024333892050340018
-0.47681243536644613,-0.47681243536644613,1.0000341437230156,0.0002857528950914976
-0.4767399260221282,-0.4767399260221282,0.9997398711166763,0.00022390903558722994
-0.476665090690949,-0.476665090690949,1.0001117892308489,0.000240032848180423
-0.476546588956262,-0.476546588956262,1.0000857011305204,0.0002492032727193254
-0.4763832867756719,-0.4763832867756719,1.0001966602743688,0.00025098275834213997
-0.4762189811037388,-0.4762189811037388,0.9997002043058518,0.00023672812926483298
-0.4761092844186351,-0.4761092844186351,1.0001041487619926,0.0002473045655608851
-0.4759917789895553,-0.4759917789895553,1.000276142237007,0.0002819742745304909
-0.4758552728628274,-0.4758552728628274,0.9999576325900759,0.00026803063627147566
-0.47578345627116503,-0.47578345627116503,1.000206217255109,0.00029916010432953256
-0.4756446126848459,-0.4756446126848459,1.0000515321384502,0.0002555001685041431
-0.47554533870134036,-0.47554533870134036,1.0003881613079628,0.00023034371464417228
-0.4753904144919943,-0.4753904144919943,0.9998084249471189,0.00024571390312991856
-0.47527480756980367,-0.47527480756980367,0.9999126434496743,0.00025107317859615814
-0.4751888710015919,-0.4751888710015919,0.9997678753498033,0.0002497628955610232
-0.4750795504223788,-0.4750795504223788,0.9997633647500171,0.0002523867974831227
-0.4749279052717611,-0.4749279052717611,0.9998504557293286,0.00023364289490888397
-0.47477541272237433,-0.47477541272237433,1.0001300884411046,0.000230239982664602
-0.47465933992061765,-0.47465933992061765,1.0004551200309513,0.00029540432161055517
-0.4745943994203117,-0.4745943994203117,1.0000225277668788,0.0002532163594122116
-0.4744868320238311,-0.4744868320238311,1.0000545405891796,0.00025700101650955287
-0.47433464938367254,-0.47433464938367254,1.000231711601391,0.00025406221039200703
-0.47418560324294956,-0.47418560324294956,1.0002761175868735,0.00026355912698549565
-0.47411457196867557,-0.47411457196867557,1.000153540220015,0.00024533484085803147
-0.4739688919566106,-0.4739688919566106,0.9994923100091139,0.00026230816559716434
-0.47388544360001106,-0.47388544360001106,1.0000410648316984,0.0003202438213434432
-0.4737154773174552,-0.4737154773174552,1.0003633287368898,0.00024280544904777394
-0.47350373294902964,-0.47350373294902964,0.9998005265534301,0.000255776571345724
-0.47338305778976064,-0.47338305778976064,1.000090368122255,0.0002585047469670121
-0.47329467347299214,-0.47329467347299214,0.9996063844418988,0.0002841416247908115
-0.47319243527017535,-0.47319243527017535,0.9999751821083978,0.00022132334321877485
-0.4730586953344755,-0.4730586953344755,0.9998653526784373,0.00024354407742527788
-0.47289709209871944,-0.47289709209871944,1.000068117460342,0.00021921337081383271
-0.4727323324885219,-0.4727323324885219,1.0001638582765655,0.0002748054765725842
-0.4725696322711883,-0.4725696322711883,1.0002423020532583,0.00021893971959021201
-0.47244296602730174,-0.47244296602730174,1.0000833023315079,0.00022605838628681532
-0.4723458807362476,-0.4723458807362476,1.0003971057188115,0.00029325752266147795
-0.4722856256383238,-0.4722856256383238,1.0001557878440053,0.0002838093276637441
-0.4721665658900747,-0.4721665658900747,1.0002766611935896,0.00028386434459532097
-0.47204191794153305,-0.47204191794153305,1.0000976397036272,0.00023558266061977345
-0.4719739509513602,-0.4719739509513602,0.9999430576153463,0.0002728228381232686
-0.47186687927751336,-0.47186687927751336,0.9998699940076788,0.0002580141743219017
-0.47182218529342207,-0.47182218529342207,0.9996891889441836,0.00026358898713131076
