time,time,flux,flux_err
-0.4992134266879778,-0.4992134266879778,0.9974524385568079,0.0025306924604706757
-0.4974578841312905,-0.4974578841312905,0.9997718264733372,0.002300608682510851
-0.49552852605847875,-0.49552852605847875,0.9984829722290444,0.0022995350020450383
-0.49321498872886876,-0.49321498872886876,0.9961548972015372,0.002293443630671499
-0.491390184021293,-0.491390184021293,1.0005166079288277,0.0022972517317823254
-0.49013809257885443,-0.49013809257885443,0.9948990761556317,0.0023110010596860677
-0.4885452996553795,-0.4885452996553795,1.0004052005435076,0.002301207553420874
-0.4865985613614612,-0.4865985613614612,1.0009295160148681,0.002292164211575584
-0.48417755800983286,-0.48417755800983286,0.9987940145843636,0.0022992870569118794
-0.48249125856455066,-0.48249125856455066,0.9968380624488429,0.0022906146323626404
-0.48123435482339116,-0.48123435482339116,1.000759047305038,0.002309339196180812
-0.4796216816779634,-0.4796216816779634,0.9971152511126823,0.0023057824252733245
-0.47799983336371954,-0.47799983336371954,0.9996825821458784,0.0022990898680894808
-0.4763088000800053,-0.4763088000800053,0.9971299245225493,0.002297232889942944
-0.4747434183882433,-0.4747434183882433,1.0004212288615,0.0022958236373411653
-0.4734240243873501,-0.4734240243873501,0.9953505705234603,0.0023030400352125747
-0.4723253325922997,-0.4723253325922997,0.998684701628475,0.002299005205963249
-0.470336006598518,-0.470336006598518,0.9977671081506042,0.0022965434772648347
-0.4681837757365429,-0.4681837757365429,1.000062857375959,0.0023287498418626423
-0.46673899921006523,-0.46673899921006523,0.9989267008392237,0.00229751744583762
-0.46542415742369486,-0.46542415742369486,1.000290895454174,0.002290868293392506
-0.4643115748527634,-0.4643115748527634,0.9964462647727554,0.002301947305951831
-0.4622980588814244,-0.4622980588814244,0.9993185707819242,0.0023058739973498598
-0.4599768434796715,-0.4599768434796715,1.0002554858127268,0.002357749489491679
-0.45821502741309816,-0.45821502741309816,1.0002274181263127,0.002302991657131438
-0.4566320374011411,-0.4566320374011411,1.0005450036568422,0.0022938235413623564
-0.4554001129414246,-0.4554001129414246,0.9968564501473794,0.0023085317161110103
-0.45353594212647297,-0.45353594212647297,0.9973824851283556,0.002304156608392914
-0.4516614334592305,-0.4516614334592305,0.9988346728030197,0.0022929258973685123
-0.4500880741063156,-0.4500880741063156,0.9995652362071299,0.0023021830572490247
-0.4485423871119565,-0.4485423871119565,0.9989562258332679,0.0022961244924295447
-0.447288751159067,-0.447288751159067,0.9988855278250041,0.0023018008399807786
-0.445693549833959,-0.445693549833959,0.998590465061502,0.002300884272259453
-0.44399214756849686,-0.44399214756849686,0.9933877523731084,0.0023006244327170673
-0.44236599565920187,-0.44236599565920187,0.9945548001955222,0.0022939863981314562
-0.44062987676588816,-0.44062987676588816,0.9973664746492178,0.0023092171599215458
-0.43929810329282193,-0.43929810329282193,1.0015738280160225,0.0023234740159333344
-0.4380892846507777,-0.4380892846507777,0.9962525312838773,0.0023024092947912496
-0.43640110590567927,-0.43640110590567927,1.0028581842305173,0.0022938989462993
-0.434833298522426,-0.434833298522426,0.9989461158154944,0.0023086587688697477
-0.4331601231788227,-0.4331601231788227,0.9992478227292878,0.0022918165731835517
-0.43171987621462904,-0.43171987621462904,1.0005975397184483,0.0022965648817009697
-0.43036418309275176,-0.43036418309275176,0.9975734652176496,0.00231125834492052
-0.4286566669361491,-0.4286566669361491,1.0018674538444805,0.0023001640025546435
-0.426500115183444,-0.426500115183444,0.9999817007294503,0.0022957516733825402
-0.42463068370489054,-0.42463068370489054,0.9977346245704682,0.0023427233888649065
-0.4228111438831547,-0.4228111438831547,1.002031142867343,0.0022995267608972502
-0.42146348592068533,-0.42146348592068533,0.999983130736654,0.0023046157220544547
-0.41958375860049274,-0.41958375860049274,1.0017636610319296,0.0022946191479239282
-0.4170896175375674,-0.4170896175375674,1.0004976524829197,0.002302878903493716
-0.4149995422558277,-0.4149995422558277,1.0004933575296704,0.002303396022963435
-0.413533869603998,-0.413533869603998,1.0023612927039518,0.0023001094280174065
-0.4122154722768755,-0.4122154722768755,1.0011814964379346,0.002301728242160654
-0.4104441050258174,-0.4104441050258174,1.0004899350508225,0.0023024089881021
-0.4078925758622063,-0.4078925758622063,1.0006223657813147,0.002299007227300888
-0.4063859671339742,-0.4063859671339742,0.9971592931328654,0.002293322446179132
-0.404889758623176,-0.404889758623176,0.9996440083250544,0.0022997188520461767
-0.4036279864048993,-0.4036279864048993,0.9987122115700823,0.0023105185694012576
-0.4016174170588783,-0.4016174170588783,1.0003845104568656,0.002296849927806643
-0.39951587540490435,-0.39951587540490435,0.9972446028135387,0.002297742190019562
-0.39794309587814497,-0.39794309587814497,0.9991727595341005,0.0023151303854236647
-0.3966292708741094,-0.3966292708741094,1.000768410644399,0.0023052011613095397
-0.3952418173685146,-0.3952418173685146,0.9990368172600336,0.002304094367313114
-0.39321478200799903,-0.39321478200799903,1.0011978519617808,0.0022926020596711625
-0.391689125479752,-0.391689125479752,1.0010323354679886,0.002313819237653476
-0.390257445336465,-0.390257445336465,0.9985033943467929,0.0022912046478839156
-0.3886911064342712,-0.3886911064342712,0.999132275947282,0.00229891463696776
-0.3875158274910063,-0.3875158274910063,0.9944207358683098,0.002311374953680059
-0.385503385267657,-0.385503385267657,1.0028970820387644,0.0023044753391487597
-0.383182113388466,-0.383182113388466,0.9988781090518695,0.0023336858872245554
-0.381418868653418,-0.381418868653418,1.003625066296046,0.0022975518301799345
-0.37967369143734686,-0.37967369143734686,0.9987259476301658,0.002297962095612525
-0.3782792554833577,-0.3782792554833577,1.0024840428638782,0.0023123691088157397
-0.3762594535641256,-0.3762594535641256,0.9986047006143266,0.0023009324714952295
-0.373919342100271,-0.373919342100271,1.0010281569094772,0.002297512442449004
-0.3721523406282358,-0.3721523406282358,1.0024201458263973,0.00230036283144833
-0.37068930358072977,-0.37068930358072977,1.001910091398564,0.002306531433765978
-0.36936201973367133,-0.36936201973367133,1.0000998975355093,0.0023017012569061454
-0.3673691508542106,-0.3673691508542106,1.0029180670318307,0.0022975613346227592
-0.3649031773471506,-0.3649031773471506,0.9975772261208011,0.0022957616828356343
-0.36318169644800946,-0.36318169644800946,1.0004473137644445,0.002296142529282745
-0.3618008916411782,-0.3618008916411782,0.999813154715579,0.002305774345749613
-0.36044586806528967,-0.36044586806528967,1.0004934992975123,0.0023076964302484
-0.3585262339656765,-0.3585262339656765,1.0017419223867343,0.0022936621809852013
-0.35705556504035485,-0.35705556504035485,0.9995886610897757,0.00229785313297712
-0.35532867487272596,-0.35532867487272596,0.9976443037468481,0.0023042004959807137
-0.3540850054574548,-0.3540850054574548,1.0001588826522294,0.0023030951116906014
-0.3527532021093066,-0.3527532021093066,0.9977172146115155,0.0022984016552571093
-0.350691894650663,-0.350691894650663,0.9991560681433415,0.00229674059321249
-0.34857919720016073,-0.34857919720016073,1.0006412091394385,0.0023271933438602454
-0.3474127470930398,-0.3474127470930398,0.9972136306726661,0.002290502420235628
-0.34583969612504006,-0.34583969612504006,1.001103261109636,0.002298294484494885
-0.34466759511633427,-0.34466759511633427,1.0015722381610241,0.002304264193508619
-0.34265419723669766,-0.34265419723669766,0.9999428100656754,0.002307262607710136
-0.34033297734422374,-0.34033297734422374,1.0012356220165912,0.002353270159380297
-0.33857100146633456,-0.33857100146633456,1.0017508635539927,0.002303317199542272
-0.33698789784975813,-0.33698789784975813,0.9978912836693586,0.0022954742339670667
-0.33575688316122976,-0.33575688316122976,1.0005974823816894,0.0023093336088133537
-0.3338916783846798,-0.3338916783846798,1.0006544946264486,0.0023052477009940097
-0.33166066123521887,-0.33166066123521887,0.9985690647708804,0.0022952636382758376
-0.3301862224434444,-0.3301862224434444,1.0010255200964555,0.0022948546722992976
-0.3286026422436407,-0.3286026422436407,0.9991785092940262,0.0022984516793049968
-0.3276449106859218,-0.3276449106859218,1.0015496305367735,0.0023049912487050645
-0.3264072167163249,-0.3264072167163249,1.0020551363302141,0.002297622630935307
-0.3246807830997568,-0.3246807830997568,1.00166516140815,0.002301169620006651
-0.32325884193051024,-0.32325884193051024,1.0033972748598745,0.0023560435691249025
-0.32168177004059545,-0.32168177004059545,1.002869795501044,0.002307030245553849
-0.3201402881328249,-0.3201402881328249,0.9980974059428215,0.0023318593114580043
-0.3189568766079901,-0.3189568766079901,0.9997313491292313,0.0022995686819990194
-0.3175929822362377,-0.3175929822362377,1.0016104095847724,0.0023017311201887916
-0.3156850258987106,-0.3156850258987106,0.9999379960757031,0.0022976546379854237
-0.31420446793490553,-0.31420446793490553,0.9996847814930252,0.002299028519116297
-0.31262413208824,-0.31262413208824,0.9976700985491537,0.002294772324714156
-0.3112356412464578,-0.3112356412464578,1.0037300162582246,0.0023081348470381474
-0.30968118563687314,-0.30968118563687314,0.9999337225642823,0.0023039660339257127
-0.30784484994583183,-0.30784484994583183,1.0024970380626474,0.0022962928313087173
-0.30568960770469855,-0.30568960770469855,0.9993291826441089,0.0023352031439769602
-0.30385771974470116,-0.30385771974470116,0.9978164231217372,0.0023080700054270557
-0.3023321868495259,-0.3023321868495259,1.0029422809242081,0.002305965417943278
-0.3006352493859595,-0.3006352493859595,0.997947080614409,0.002297444762995193
-0.29860004858128375,-0.29860004858128375,1.0004394635435023,0.0022931542432279494
-0.2961868475234951,-0.2961868475234951,0.9995498845016954,0.002311314924719271
-0.29442728550566244,-0.29442728550566244,1.0033327989644873,0.0023010219641498666
-0.2930816526932176,-0.2930816526932176,0.9988334712975568,0.0023017450469049513
-0.29139006418045027,-0.29139006418045027,1.000883853843787,0.0023036779636533685
-0.28890643666745747,-0.28890643666745747,1.001084021874446,0.002291745281195129
-0.2870458706980571,-0.2870458706980571,1.0005140258551681,0.0023021249360162524
-0.2855306522877072,-0.2855306522877072,1.0009949186135725,0.0022968221774383275
-0.284173492318223,-0.284173492318223,1.0023575158132312,0.0023061078010361584
-0.2824589645366359,-0.2824589645366359,0.9970574449634896,0.002296708661041342
-0.2802632163897215,-0.2802632163897215,0.9994472086769488,0.002299256276456298
-0.2785344730000361,-0.2785344730000361,0.9993222555565751,0.0023184677603103254
-0.2772906803525984,-0.2772906803525984,1.0000994431810466,0.0023063631407343878
-0.27595825091411824,-0.27595825091411824,1.0011874799301714,0.002300600667498724
-0.273913132637972,-0.273913132637972,0.9969142747542203,0.0022926142126378753
-0.2723531835792528,-0.2723531835792528,0.9995737138759708,0.0023113334865069437
-0.27096406636046594,-0.27096406636046594,1.0009442286427488,0.0022966358100628237
-0.26931924790042105,-0.26931924790042105,0.9992631942155297,0.002293196795309369
-0.268051812077465,-0.268051812077465,0.9996231064990226,0.00231389856711717
-0.26649772538294203,-0.26649772538294203,1.0025870498311507,0.002305246708354405
-0.2645141081753536,-0.2645141081753536,1.0004879530016182,0.0022995831039502217
-0.26252529449411666,-0.26252529449411666,1.0018222650043669,0.002335932325988543
-0.2606979954864073,-0.2606979954864073,0.9979574756858473,0.002300894170691406
-0.2591405651284731,-0.2591405651284731,0.9989635455512426,0.0023110194945924764
-0.257444294916786,-0.257444294916786,1.00221980915253,0.0023031562612632565
-0.25523789363360266,-0.25523789363360266,1.0029976290784706,0.002294707784237394
-0.25322818112545065,-0.25322818112545065,1.0034718121458592,0.0022978016180375547
-0.25158022828618415,-0.25158022828618415,0.9970814120200571,0.002305831098770062
-0.25023060854073265,-0.25023060854073265,1.0006007862632518,0.00230471446697536
-0.24854123299737693,-0.24854123299737693,1.0014809003252487,0.0022976433781271496
-0.24629741766111693,-0.24629741766111693,0.9983893440284047,0.0022951387148434465
-0.24419423608342186,-0.24419423608342186,1.0012688843343904,0.00229943517333064
-0.2426839907428075,-0.2426839907428075,0.9988385314840027,0.0022952540133099877
-0.2413240578272962,-0.2413240578272962,1.0016285127369229,0.002309239084161421
-0.23961444696833495,-0.23961444696833495,1.0023031450985247,0.002302026117863302
-0.23741196300616138,-0.23741196300616138,0.9987280961379883,0.0022970072889324884
-0.23568486746007694,-0.23568486746007694,1.001020796560362,0.002306535588170635
-0.23444118392944802,-0.23444118392944802,0.9996816048287436,0.0023047778302823945
-0.23310931030064239,-0.23310931030064239,0.9991101274909487,0.0022991315368165017
-0.23104778686974897,-0.23104778686974897,1.00295255742209,0.002298074470514039
-0.22889641218280304,-0.22889641218280304,1.0020455215768886,0.0023234763124609236
-0.22745137251040431,-0.22745137251040431,1.0017590323094332,0.0022965084153755127
-0.22593554086924997,-0.22593554086924997,1.000038866640828,0.0023031394668165265
-0.2246909886453068,-0.2246909886453068,1.005876920035775,0.0022996408246651837
-0.22253002761426616,-0.22253002761426616,0.9995294651275503,0.002309023514172279
-0.22034325675995206,-0.22034325675995206,1.0003542080882373,0.002351480532093
-0.2185587308173126,-0.2185587308173126,0.999479044635407,0.0022994596567602744
-0.2170897640673502,-0.2170897640673502,1.0018096708739312,0.0023013781604801766
-0.2157824829191668,-0.2157824829191668,1.0022214875815287,0.002306465342966249
-0.21377003910747588,-0.21377003910747588,0.9990578217097873,0.0023038834924161665
-0.2117001211096067,-0.2117001211096067,1.0019121939161524,0.002292907451826472
-0.21035455671153613,-0.21035455671153613,1.0000504611979053,0.002296643136381606
-0.20910961794797914,-0.20910961794797914,1.0005769845940111,0.0022962614582379354
-0.2080010737525299,-0.2080010737525299,1.0014833038693052,0.0023034077261229946
-0.20676321323262528,-0.20676321323262528,0.9963580278006414,0.0022943777385783385
-0.20503705559531227,-0.20503705559531227,1.0012245329584197,0.002300117034123564
-0.20331408061101683,-0.20331408061101683,1.0009537176938064,0.0022974677151944784
-0.2017271600518143,-0.2017271600518143,1.0037391559983875,0.0023060938783850873
-0.2001908213009301,-0.2001908213009301,0.997019540284629,0.0023381523200846524
-0.19909765690390485,-0.19909765690390485,1.0001425571785867,0.002305049770837386
-0.19748495134481345,-0.19748495134481345,1.0010253060236978,0.002299878068551858
-0.1958650310334633,-0.1958650310334633,0.9995095050023117,0.002303938254998652
-0.194170846776251,-0.194170846776251,1.0019887410522346,0.0022996995296152064
-0.1927554826164851,-0.1927554826164851,1.000322488136484,0.0022877139570368233
-0.19126016653463013,-0.19126016653463013,1.0007604959758352,0.0023111131772273388
-0.18970149697925082,-0.18970149697925082,1.002174940704089,0.0023025207521878118
-0.18771647741450578,-0.18771647741450578,1.0037109373040711,0.00229458417246246
-0.18573152519311406,-0.18573152519311406,0.9943707030337364,0.0023442647772645726
-0.18390536668885032,-0.18390536668885032,0.9997601241982134,0.0022991314807222453
-0.18234846871127958,-0.18234846871127958,1.0017541707360773,0.0023062922519967903
-0.18064973137297785,-0.18064973137297785,1.0013797806043174,0.0022988929628479982
-0.1789239154131792,-0.1789239154131792,1.0007872941862277,0.002291847542686492
-0.17682566336297895,-0.17682566336297895,1.0014523442355543,0.0023852488750589736
-0.17499641453541698,-0.17499641453541698,0.9984298186663473,0.002304519020641817
-0.17376414833343007,-0.17376414833343007,1.005756940556796,0.002305741760655446
-0.17208675819420022,-0.17208675819420022,1.003807627955366,0.002305989277486523
-0.16987973530922318,-0.16987973530922318,1.0000280920143727,0.0022955479838103095
-0.16769582761553464,-0.16769582761553464,1.0000192602216944,0.0022945442398997575
-0.16608874471930904,-0.16608874471930904,1.0014867521910582,0.002300055215134837
-0.16485746755206493,-0.16485746755206493,1.0010674685207803,0.0023050646539255334
-0.1631547155084263,-0.1631547155084263,1.002544026382747,0.002298522816983921
-0.16108209978192461,-0.16108209978192461,1.0003921943425818,0.0023030539770879234
-0.1591860860498855,-0.1591860860498855,1.0003541271099712,0.002318151393567419
-0.1579249989488744,-0.1579249989488744,1.001368459996323,0.0023042028738507318
-0.15667440626348253,-0.15667440626348253,1.0019137651741523,0.0023015631650165156
-0.1546360980195459,-0.1546360980195459,0.999744648272092,0.0022967057681492
-0.1530187459102308,-0.1530187459102308,1.0008139507832496,0.002296232519638166
-0.1515760236652568,-0.1515760236652568,0.9979724078024731,0.002305328653830393
-0.14996419152084856,-0.14996419152084856,1.0065746271313913,0.0023002422673542985
-0.1484082886694523,-0.1484082886694523,0.9983967332034627,0.002314499388098786
-0.14685369173530488,-0.14685369173530488,0.9993410105525399,0.0023042139857710714
-0.14486991888625197,-0.14486991888625197,1.0051975521182097,0.0022984882279046864
-0.14288153361339936,-0.14288153361339936,1.0001130499241715,0.002337252320467404
-0.14105436168829327,-0.14105436168829327,0.9991823888251631,0.0023015938097461423
-0.1396302973065758,-0.1396302973065758,0.998787838643147,0.0023085703350727727
-0.13814180980916718,-0.13814180980916718,1.0012965901079365,0.0023005540708561684
-0.13611212730102124,-0.13611212730102124,1.0009160398337007,0.0022939409235241295
-0.13397067193727707,-0.13397067193727707,0.9996397406456271,0.0022947921027003564
-0.13214582189466456,-0.13214582189466456,1.0028422749289603,0.0023028696586007242
-0.13091386568994495,-0.13091386568994495,0.9994187156748783,0.0023129282072454883
-0.1292375377539429,-0.1292375377539429,1.0004920403665107,0.002298397746302743
-0.1270329316073912,-0.1270329316073912,0.9992415646922991,0.00229737616542273
-0.12455068411218236,-0.12455068411218236,1.000882914969507,0.0023005061188022882
-0.12303981717923307,-0.12303981717923307,1.0007728754452843,0.0022949046419653805
-0.1216802289163752,-0.1216802289163752,1.001101399432963,0.0023092242678899966
-0.11997000288101844,-0.11997000288101844,0.9984502380051368,0.00230244773498999
-0.1177683622612676,-0.1177683622612676,1.0014684657843518,0.0022996071151379508
-0.1160410603726632,-0.1160410603726632,1.003730486298744,0.0023089233541854553
-0.11479736432083883,-0.11479736432083883,1.0016028509009167,0.002304448038802062
-0.11346542041719658,-0.11346542041719658,1.0030797604332466,0.002299707652773629
-0.1114036781276809,-0.1114036781276809,1.00409461689391,0.002298608534564471
-0.10925273377506528,-0.10925273377506528,1.0035778193500564,0.002322285395020843
-0.10780756253225263,-0.10780756253225263,1.0010954626556,0.0022946511627148372
-0.10629169879975961,-0.10629169879975961,1.002066851006397,0.0023031795997051946
-0.10504695595664089,-0.10504695595664089,1.0006188320109355,0.0022999978617935075
-0.10288605236855801,-0.10288605236855801,1.0009725368485267,0.002309616621153579
-0.1006998713412031,-0.1006998713412031,1.0034823151900505,0.002349903760913977
-0.0989146596250066,-0.0989146596250066,1.0024800812110999,0.002299041099054419
-0.09744536362341023,-0.09744536362341023,1.0022861541919745,0.002302699046455326
-0.09613919633557089,-0.09613919633557089,1.0008103056321995,0.0023043519439413193
-0.09412566369355772,-0.09412566369355772,0.9973313159731971,0.0023040301962947906
-0.09205598637345247,-0.09205598637345247,0.9994743489784943,0.0022928221994232864
-0.09061060034073307,-0.09061060034073307,1.0021004201319244,0.0023008132791006606
-0.08908915763895493,-0.08908915763895493,1.0043369506009858,0.002300701759435093
-0.0877877964041545,-0.0877877964041545,1.0014361804309624,0.0022986484516190095
-0.08638845915193087,-0.08638845915193087,1.0014105766401813,0.002302246132056187
