time,time,flux,flux_err
-0.49977950537565147,-0.49977950537565147,0.999984503342028,0.00013100778855780194
-0.49915224447067885,-0.49915224447067885,0.9999197777946947,0.00013059294474362454
-0.49858437979637527,-0.49858437979637527,1.000099281742267,0.00011835332656403982
-0.49807063769185334,-0.49807063769185334,0.9999346191071389,0.00012310944803564753
-0.4978041976413806,-0.4978041976413806,1.0001193277097111,0.00012076224147868821
-0.49743512601926343,-0.49743512601926343,0.9999075876146589,0.0001210728580501326
-0.49693483558439766,-0.49693483558439766,1.0000608325757887,0.00012011467704034899
-0.496461879616254,-0.496461879616254,1.0000326586267108,0.000122684417819533
-0.4960918340475473,-0.4960918340475473,0.9997716145491917,0.00012049859852552318
-0.495765922011924,-0.495765922011924,1.000005395712361,0.00011833696745535518
-0.49534438285554644,-0.49534438285554644,1.0001932909047397,0.00012276716440017514
-0.4947882471315097,-0.4947882471315097,0.9998658621047871,0.00011920561637753181
-0.4942961546512379,-0.4942961546512379,0.9998541857211973,0.00012083183859908635
-0.49386536798774616,-0.49386536798774616,0.9998661309928953,0.00011996379635167069
-0.49315714648910214,-0.49315714648910214,1.000035873477469,0.00012045996488024941
-0.49252114569681,-0.49252114569681,1.000108746380699,0.0001168271698148726
-0.49218045274319594,-0.49218045274319594,0.9999832098806468,0.00011959459096594223
-0.4919658187543973,-0.4919658187543973,1.0001227454164607,0.00011960076891964744
-0.4914518597688584,-0.4914518597688584,1.000089667718055,0.00012148457263280695
-0.49093079466183553,-0.49093079466183553,0.9999571761684433,0.00012003900423547098
-0.49045592649126774,-0.49045592649126774,1.000029014300128,0.00012175607087171712
-0.4900855945787043,-0.4900855945787043,0.9997874006059977,0.00012157959503087605
-0.48963896527639006,-0.48963896527639006,0.9999336367899565,0.00011899647501664368
-0.4890927533713693,-0.4890927533713693,0.9998900839848771,0.00012195568747304523
-0.48855883349096985,-0.48855883349096985,1.0000380077966953,0.00011767968129723467
-0.4882706495693128,-0.4882706495693128,0.9999909078127664,0.00012083125988775117
-0.4878575514536351,-0.4878575514536351,1.0000607532648358,0.00011904673705785728
-0.48740385195997077,-0.48740385195997077,1.0000911088570659,0.0001165926048003491
-0.4872023476680624,-0.4872023476680624,0.9999477966602559,0.00012027504200949485
-0.4866928446877864,-0.4866928446877864,0.9997626989560991,0.00011724709612976446
-0.48631817872883404,-0.48631817872883404,0.9999813634229844,0.000120673104260979
-0.48583727981385894,-0.48583727981385894,1.0002004929604866,0.00011793980230163181
-0.4854859615392343,-0.4854859615392343,0.9999685408558548,0.00011987698503146537
-0.4851491526263999,-0.4851491526263999,0.9999868312899267,0.00011976368499970682
-0.48484022763950635,-0.48484022763950635,1.0001024602393138,0.00011927865262790292
-0.48444646513380574,-0.48444646513380574,1.0002167627867147,0.00012210978601775397
-0.4841054361044371,-0.4841054361044371,1.0001506245353509,0.0001207100878068877
-0.4839002098218771,-0.4839002098218771,1.000014748005321,0.00011703065285258267
-0.4835687724298623,-0.4835687724298623,1.0000095457136768,0.0001231661131072051
-0.4829262939478213,-0.4829262939478213,1.0000214310727817,0.0001189053034375628
-0.4821913921914529,-0.4821913921914529,0.9999696984465217,0.00012127746314021552
-0.48163212441286307,-0.48163212441286307,1.000136264505172,0.00011854261463175371
-0.48113261440521454,-0.48113261440521454,1.0000020831852128,0.00011953762461041905
-0.48050714870696537,-0.48050714870696537,1.0000808707903068,0.0001225355306805325
-0.4800939193548402,-0.4800939193548402,1.0000482014671,0.00012184845742504995
-0.47978475355048433,-0.47978475355048433,0.999935526923965,0.00011992282970227856
-0.47938327081501486,-0.47938327081501486,1.0001938496766463,0.00011987219706225389
-0.4789838233118644,-0.4789838233118644,1.0001162065847535,0.0001198906539545509
-0.47868669136441894,-0.47868669136441894,0.9999444886909729,0.00012130504186238679
-0.47841821557303776,-0.47841821557303776,1.0000091799026778,0.00012042592722230352
-0.4780443025556451,-0.4780443025556451,1.000125425335448,0.0001188885923499153
-0.47760095386693135,-0.47760095386693135,1.000153776223696,0.00012178680159431338
-0.4772293862573861,-0.4772293862573861,0.9999939806676791,0.00011909036280895779
-0.4769023649030714,-0.4769023649030714,1.0001821180834143,0.00011807399662721063
-0.4762945454378496,-0.4762945454378496,1.000135216891605,0.00012008645196543618
-0.4756153707043268,-0.4756153707043268,0.9998146548807693,0.00012152662766669934
-0.4754018739047751,-0.4754018739047751,1.0000380157478204,0.00012046420952408434
-0.4747982002678327,-0.4747982002678327,1.0001037150455716,0.00012147762949191396
-0.47450436809886015,-0.47450436809886015,0.9998808969230092,0.00011797766757902664
-0.47389901339192875,-0.47389901339192875,0.9999767875322364,0.00011794856489730395
-0.4734315663743473,-0.4734315663743473,0.9998911711166425,0.00012280159319140303
-0.4730130715724954,-0.4730130715724954,1.00000837189353,0.00012136259212657433
-0.47269117709147396,-0.47269117709147396,1.0000233146851951,0.00011881118769239732
-0.4722018954795203,-0.4722018954795203,1.0001588757457074,0.00011982294883934648
-0.47192492621106796,-0.47192492621106796,1.0000681671179243,0.00012209954138730106
-0.4716196849134576,-0.4716196849134576,1.0002612229545154,0.00011830543851075821
-0.4712700065421814,-0.4712700065421814,1.0000327645584957,0.00011901518840685568
-0.47071495897398563,-0.47071495897398563,0.9999768707357044,0.00012383770528758806
-0.4701382003702747,-0.4701382003702747,0.9999864192219411,0.00012057731313927995
-0.46963771711671143,-0.46963771711671143,1.0002533608318234,0.0001206011932288178
-0.46922158343804765,-0.46922158343804765,0.9999182772226384,0.00012098731021531963
-0.46887884815077996,-0.46887884815077996,0.9999823466310968,0.00012054042081472845
-0.468315051827085,-0.468315051827085,0.9998312879200111,0.0001211793219040932
-0.4678021770982014,-0.4678021770982014,1.0000796214386223,0.00012039952562691332
-0.46736712142374015,-0.46736712142374015,0.9998567557096625,0.00012043436821111118
-0.46679670493031156,-0.46679670493031156,1.000217246698344,0.0001241460201871698
-0.4662210790636891,-0.4662210790636891,0.9999738168014674,0.00011846541731535346
-0.46570795203297166,-0.46570795203297166,0.9999212071011705,0.00011986887319233868
-0.46528636868824835,-0.46528636868824835,1.000239817832488,0.00011770409817074693
-0.4649425491654256,-0.4649425491654256,0.9998961576436114,0.00012141509679413202
-0.4645374711442855,-0.4645374711442855,1.0000033040641754,0.0001196267622379026
-0.46391311450861394,-0.46391311450861394,0.9998146835609619,0.0001226859140309237
-0.46361722011497475,-0.46361722011497475,1.0000967692781189,0.00012159457221720885
-0.4629835473249841,-0.4629835473249841,1.0000783587388342,0.00012059049944222336
-0.4623913983581588,-0.4623913983581588,1.000106936183887,0.00012011456887005564
-0.46205246281970175,-0.46205246281970175,0.9999694801764679,0.00012139149515599985
-0.4617603119484556,-0.4617603119484556,0.9997434159716357,0.00012219336342624498
-0.4613724629540229,-0.4613724629540229,1.0000130641263447,0.00011762497421185611
-0.4609628712503763,-0.4609628712503763,1.0001215793999436,0.00012241462692974547
-0.4603946192393778,-0.4603946192393778,1.0000046862101395,0.00011687325170326986
-0.460061721575039,-0.460061721575039,1.0002468998632055,0.00011962755510899712
-0.45945036538978457,-0.45945036538978457,1.0000836930013235,0.00011996010929334308
-0.45891535578266485,-0.45891535578266485,1.0000476489963557,0.00012042289868325034
-0.4586187453445746,-0.4586187453445746,0.9998576881062229,0.00011637273453921726
-0.45817462790655555,-0.45817462790655555,0.9996970635402134,0.00012094709354055722
-0.45790032608492764,-0.45790032608492764,1.0000368481371757,0.000120118815493026
-0.45739005073701267,-0.45739005073701267,0.9999273619702155,0.00012087261110993742
-0.456779731050483,-0.456779731050483,1.0001344383423185,0.00012009134204599557
-0.45633438690492767,-0.45633438690492767,0.999929381029656,0.00011958581684132096
-0.4558950602913683,-0.4558950602913683,0.9999778592205095,0.0001224093310788569
-0.4555732220498612,-0.4555732220498612,1.000053889951991,0.00011909864089833507
-0.45486459073290464,-0.45486459073290464,0.999907745261188,0.00012065312154389517
-0.4543512511903828,-0.4543512511903828,0.9999461131594891,0.00011740856778658972
-0.4539263038204808,-0.4539263038204808,0.9999611126376461,0.00012016789358194123
-0.4532460980153701,-0.4532460980153701,1.0000621695436223,0.00011982370280954778
-0.45295112487656297,-0.45295112487656297,0.9998223706819127,0.00011896932464507853
-0.4524287281514262,-0.4524287281514262,1.0000387728181006,0.00011881140223413455
-0.45213545162114316,-0.45213545162114316,1.0001760999551284,0.000123616623360349
-0.4517151873209514,-0.4517151873209514,1.0000194928668795,0.00011723522604993894
-0.4513458684588841,-0.4513458684588841,1.0000289381638638,0.00011971669662981471
-0.4509778647297935,-0.4509778647297935,0.9998334104094937,0.00012126946115624849
-0.450616534105211,-0.450616534105211,1.0000763509587696,0.00011711155354272735
-0.45032035149779404,-0.45032035149779404,0.9999272317425933,0.00012347825368097504
-0.45007410783873636,-0.45007410783873636,0.999799115759963,0.00011894371415942806
-0.44974032594327584,-0.44974032594327584,1.0000388734827004,0.00012023688813596163
-0.44920082787575666,-0.44920082787575666,0.9999627762706045,0.0001213009677858533
-0.4486954324769613,-0.4486954324769613,1.0000124362649803,0.00012143152692789513
-0.44811127722787203,-0.44811127722787203,0.9998711620593822,0.00012212075106235375
-0.447577013681439,-0.447577013681439,0.9998426180528106,0.00011800751546787236
-0.44719183126217105,-0.44719183126217105,0.9999407537747693,0.00012187306530886725
-0.44673903837174295,-0.44673903837174295,1.0000910728377532,0.00011861899139031043
-0.44636682167474645,-0.44636682167474645,1.000047704645991,0.00012050946123113497
-0.44587610106464126,-0.44587610106464126,1.000034551616476,0.0001179632943482182
-0.4453835944928869,-0.4453835944928869,0.9997865956767894,0.00012314283777371625
-0.44499109554672034,-0.44499109554672034,0.9999973078470132,0.0001193668889084413
-0.4446560844698979,-0.4446560844698979,0.9999560721662106,0.00011896061432586732
-0.44443798986176264,-0.44443798986176264,0.9999123160196974,0.00012165012650848983
-0.44405739572393943,-0.44405739572393943,0.9998996424612411,0.00012012431143130936
-0.4437064479054243,-0.4437064479054243,1.0000764001801479,0.00011874223229075657
-0.4434460255077283,-0.4434460255077283,1.0002352498278333,0.00011966761965720636
-0.4431326361198444,-0.4431326361198444,0.9999810230319477,0.00012026298178410464
-0.4425128814589698,-0.4425128814589698,1.000031498626648,0.00012146847095747156
-0.44196332931824145,-0.44196332931824145,1.0000223306744016,0.00011668395555587186
-0.44136449395664384,-0.44136449395664384,0.9999451937522785,0.00012163918151299809
-0.4408741592422302,-0.4408741592422302,0.999968739926007,0.00012000144315944179
-0.4404352605306485,-0.4404352605306485,0.9999327468274147,0.00011866373747275785
-0.439995407943934,-0.439995407943934,1.0000755439304978,0.00011683662454715399
-0.4396751560707344,-0.4396751560707344,0.999978984099147,0.00012187537738663282
-0.43942927681127913,-0.43942927681127913,0.9998855407975367,0.00012034564358072441
-0.4389881490722473,-0.4389881490722473,1.0000768734470546,0.0001183656855940194
-0.4385653805264155,-0.4385653805264155,1.0000846555879137,0.00011980542701466122
-0.43806556798808743,-0.43806556798808743,0.9999314779630788,0.00012224291763483086
-0.43777890834608113,-0.43777890834608113,0.9999399069722056,0.0001194589238650183
-0.4374838188603462,-0.4374838188603462,1.000061068496985,0.00012209937124746238
-0.4370303831427009,-0.4370303831427009,1.0000997883726797,0.00011759959738475642
-0.43659245560629645,-0.43659245560629645,0.9998100695414097,0.00012300449323825836
-0.4362403675673704,-0.4362403675673704,0.9999787106993384,0.00011859612691349733
-0.4356295797631901,-0.4356295797631901,0.9999948845567561,0.00012164211738452148
-0.43535600454779344,-0.43535600454779344,0.9999638571253092,0.00012157733583894818
-0.43497010550272536,-0.43497010550272536,1.000066189378572,0.00012129296265734459
-0.4344473034594557,-0.4344473034594557,1.0000936594071947,0.00012177679981210962
-0.4337933731112571,-0.4337933731112571,0.999955277726729,0.00012305835253315423
-0.43345245034215624,-0.43345245034215624,1.000222686659825,0.00012064183433488137
-0.43281439556230905,-0.43281439556230905,1.0000986490862456,0.00012173574022053522
-0.4324383950595802,-0.4324383950595802,1.0000525865342957,0.00011921553252877154
-0.43206046971681644,-0.43206046971681644,0.9999319483029959,0.00011844107278421983
-0.4316249887466256,-0.4316249887466256,1.0001218849647118,0.00011852470693615232
-0.43121889617395937,-0.43121889617395937,1.0001364718276964,0.00012159339721341071
-0.4307080311416939,-0.4307080311416939,1.000145270993486,0.00012042260527705726
-0.430041082041862,-0.430041082041862,0.9998349754878164,0.00011972213240564109
-0.42961123844215765,-0.42961123844215765,1.000053533970299,0.00012205506456005604
-0.42905238015227953,-0.42905238015227953,1.0000826612214269,0.00012144566465987269
-0.4285938727291068,-0.4285938727291068,1.0000495811540198,0.00011955801668441315
-0.42816931091729205,-0.42816931091729205,0.9998729945844641,0.0001192690613173029
-0.4278109800674429,-0.4278109800674429,1.0000218709707946,0.00012146976274653679
-0.42750019498271286,-0.42750019498271286,1.0000991056463737,0.00011912265694397066
-0.42712844422276247,-0.42712844422276247,0.9998363096975602,0.00011892532746969482
-0.4266525366809219,-0.4266525366809219,1.00002847677321,0.00011918518565948958
-0.4260904624061368,-0.4260904624061368,1.0000772378934373,0.00011854494055777898
-0.4258556074615626,-0.4258556074615626,1.0000382924417326,0.00011643202547248568
-0.42538968528388066,-0.42538968528388066,0.999998098305522,0.00012031524970743269
-0.4247862893906131,-0.4247862893906131,0.9999599614283492,0.00011893623944700422
-0.42437580986734247,-0.42437580986734247,1.0000140636007893,0.00011677008339690247
-0.42394754218912567,-0.42394754218912567,0.9999670359256267,0.00012286704514418356
-0.4234925649630895,-0.4234925649630895,1.0000593912017937,0.00011901924799508122
-0.42306731886128546,-0.42306731886128546,0.9999225106247183,0.0001216835070104181
-0.4227494218524953,-0.4227494218524953,1.0001382486362171,0.00011794860400411917
-0.4224104753251595,-0.4224104753251595,0.9997745253287562,0.00012046738296860142
-0.4220599517211667,-0.4220599517211667,0.9998885197443181,0.00012224747239670007
-0.4216276398045011,-0.4216276398045011,1.0000903481488048,0.00011967334140314996
-0.4212768793055147,-0.4212768793055147,0.999976260817667,0.00012067564013944275
-0.42084017828310605,-0.42084017828310605,1.000197987948806,0.00012072757825686337
-0.42007975401211295,-0.42007975401211295,0.9999482805264461,0.00011966988113234047
-0.4195300306128047,-0.4195300306128047,0.9997590440923053,0.00012032792194274966
-0.4189407002726512,-0.4189407002726512,0.9999187881093885,0.0001212895219129878
-0.41838537650255603,-0.41838537650255603,0.9997236830282787,0.00011731035186308466
-0.4180616433026444,-0.4180616433026444,0.9999072889926458,0.00012144482621873926
-0.41761981168820056,-0.41761981168820056,0.9999331020934665,0.00011840339688709494
-0.41714576348822446,-0.41714576348822446,1.000007040599169,0.00012102303345753603
-0.4166609082189098,-0.4166609082189098,0.9999720644216209,0.00011981124452221944
-0.4163711636334483,-0.4163711636334483,1.000113706236775,0.00012094317020426687
-0.4161238664288248,-0.4161238664288248,1.0001926966588872,0.00012260102323116565
-0.415749510009482,-0.415749510009482,1.000033599133419,0.00011891116454098582
-0.4153374172805343,-0.4153374172805343,1.000052107207496,0.00012284260593381125
-0.4149525666500267,-0.4149525666500267,1.000145715785726,0.00011963063374237663
-0.4145304572906753,-0.4145304572906753,0.9998734837582306,0.00011919095630281468
-0.4139822614961304,-0.4139822614961304,1.0001488426947112,0.0001200111702428608
-0.4133835258769977,-0.4133835258769977,1.0000003872859722,0.00011745997210750158
-0.4129140026845562,-0.4129140026845562,1.0000888254327747,0.00012160088238469427
-0.41238661980605684,-0.41238661980605684,0.9999759516600255,0.0001190948263882363
-0.41207155093870823,-0.41207155093870823,0.9998242421998205,0.00012035864794905146
-0.41155882285893314,-0.41155882285893314,0.9998557480298824,0.00011781289464276578
-0.41097995775417073,-0.41097995775417073,0.9999814492143922,0.00012031859110488742
-0.41047813088734986,-0.41047813088734986,0.9999365837358132,0.00011885698683222531
-0.41027349493379006,-0.41027349493379006,0.9999545401181689,0.00012002425458200827
-0.40976893079205184,-0.40976893079205184,0.9999931412023845,0.0001197991387676971
-0.4095427064501564,-0.4095427064501564,1.0000081173770479,0.00012172607859862294
-0.40916060427116463,-0.40916060427116463,0.9999273392835182,0.00012281115282325675
-0.4086981994463713,-0.4086981994463713,1.0000054917264545,0.00011914672827969305
-0.40820330473798094,-0.40820330473798094,1.0001343930839215,0.00012417456781051492
-0.40740621673394345,-0.40740621673394345,0.9998821134212154,0.00012045822756341
-0.4067193199771282,-0.4067193199771282,1.0001240821028183,0.00012210266577893447
-0.406110492413427,-0.406110492413427,0.9999188134491981,0.00011799751763025112
-0.4056281125667738,-0.4056281125667738,1.0000729500366332,0.00012049626253036184
-0.4052980208485678,-0.4052980208485678,0.9998052337231069,0.00012016104616723725
-0.4047812584016356,-0.4047812584016356,0.9998943027037992,0.0001210913031582436
-0.4042422480830282,-0.4042422480830282,1.0001795419698927,0.0001228097821037429
-0.4038908032023755,-0.4038908032023755,0.9999506708441539,0.00011683060948057735
-0.4034465805292712,-0.4034465805292712,1.0000355849555116,0.00012120224002175495
-0.40297476391206144,-0.40297476391206144,0.9999497732466935,0.00011906550263981405
-0.40242023880055056,-0.40242023880055056,0.9998692494169742,0.00012159193554124177
-0.4019286473376269,-0.4019286473376269,1.0001719603538082,0.00011917015584765843
-0.4014470643007371,-0.4014470643007371,1.000199893259439,0.00012419777601634828
-0.4010941818152787,-0.4010941818152787,1.0000643137599003,0.00012069695275916082
-0.4005419555920525,-0.4005419555920525,1.0001914791164996,0.00012055927992256166
-0.39990151932506707,-0.39990151932506707,1.0001810413480476,0.00012410591756952463
-0.39952626515660083,-0.39952626515660083,1.0001327986180641,0.00012192040135057045
-0.3992318256161525,-0.3992318256161525,1.0000924365033774,0.0001183854937218078
-0.398720527151454,-0.398720527151454,1.0001554526413967,0.00012060787448801182
-0.3982864064782916,-0.3982864064782916,1.0000223172938398,0.00011918716369596548
-0.39787222190061583,-0.39787222190061583,1.000155168794287,0.00011770143929145784
-0.3975785016336886,-0.3975785016336886,1.0000974176433133,0.0001205508983982255
-0.3971980242160498,-0.3971980242160498,1.0000793400063626,0.00012008050028749692
-0.3966784405092767,-0.3966784405092767,1.0001165590329477,0.0001189968005919563
-0.3960694403423986,-0.3960694403423986,0.9998266463478283,0.00011669959324513198
-0.39562531976262105,-0.39562531976262105,1.000050910616282,0.00012113189030121193
-0.39541560169527656,-0.39541560169527656,0.9999388734772298,0.00011816339827293963
-0.3949828994438576,-0.3949828994438576,0.9999369939266106,0.00012283886965196126
-0.39434590293531074,-0.39434590293531074,0.9999904865999142,0.00012005241762579105
-0.3938705057211337,-0.3938705057211337,1.0000555506450448,0.0001217245993749072
-0.39350029529523456,-0.39350029529523456,1.000077047141851,0.00012158821746488451
-0.39305383298924423,-0.39305383298924423,0.9999328492498789,0.00011901337105198044
