time,time,flux,flux_err
-0.4998843681853032,-0.4998843681853032,1.000032962914942,0.00022862302764855045
-0.4997008505946724,-0.4997008505946724,0.999767375615533,0.00020908044280838834
-0.4996055371477269,-0.4996055371477269,0.9998231784738156,0.00021533573267826055
-0.49952604248246646,-0.49952604248246646,0.9998684859385625,0.00021037017468988173
-0.49943277044512796,-0.49943277044512796,0.9996689208611498,0.0002303894101611339
-0.4993791839689948,-0.4993791839689948,0.9997435325873593,0.00021184103838048116
-0.4992244553694036,-0.4992244553694036,1.00006692334237,0.00021546792585677173
-0.4991109582624631,-0.4991109582624631,0.9998017086132727,0.00022628726106707154
-0.49899414384854024,-0.49899414384854024,1.0001085132875456,0.00022129603910804808
-0.49879875719489064,-0.49879875719489064,0.9999415467290721,0.0002188226951554359
-0.4986592577537522,-0.4986592577537522,0.9996757760165673,0.00020537481240697183
-0.49844668261066544,-0.49844668261066544,1.000064180677688,0.00020043343301516165
-0.49830934483034073,-0.49830934483034073,1.0000573247657882,0.00022052680915988983
-0.49821925310825466,-0.49821925310825466,1.0002024142464816,0.0002218668815792795
-0.49810556626471225,-0.49810556626471225,0.9998107964387828,0.00020054733254676235
-0.49798913463600913,-0.49798913463600913,0.9998916165948384,0.00020760326018000116
-0.49787098670203705,-0.49787098670203705,0.9999927511423052,0.00023250935730255345
-0.4977298800542485,-0.4977298800542485,0.9999219457880129,0.00022883486513780468
-0.4976566487865057,-0.4976566487865057,0.9995262465200158,0.0002255359694433815
-0.4975487541552866,-0.4975487541552866,1.000070693861919,0.00022710419075527328
-0.4974170305940788,-0.4974170305940788,0.9998285286071322,0.00022215793332443874
-0.49735144712612966,-0.49735144712612966,0.9997408435977361,0.00020520575781979777
-0.4972958253143588,-0.4972958253143588,0.9999490301686335,0.00021018590313554047
-0.49724013306840786,-0.49724013306840786,0.9999083179283013,0.0002098740074556842
-0.4971235725126462,-0.4971235725126462,0.9996760412973833,0.00021325812539307372
-0.49706686172576153,-0.49706686172576153,0.9998725889748841,0.0002151310640356506
-0.4969898093113443,-0.4969898093113443,0.9999195472117328,0.0002248949287575549
-0.49693106790073216,-0.49693106790073216,0.9998162279474959,0.00021113867366023744
-0.49679004206554966,-0.49679004206554966,1.0000440310962493,0.0002076394892683769
-0.4966953971801559,-0.4966953971801559,0.9999196904382602,0.00023290398138613259
-0.4965229219844332,-0.4965229219844332,0.9999986385526229,0.00022400989021548992
-0.49644971468369475,-0.49644971468369475,1.0002139863218429,0.00021965215486739474
-0.49637622259033376,-0.49637622259033376,1.0001697726715957,0.0002262549968402617
-0.4962735495413654,-0.4962735495413654,1.0002983342801233,0.00021766262402210458
-0.49620152172865345,-0.49620152172865345,1.0000569712457559,0.00021221389055791598
-0.4961046389944386,-0.4961046389944386,1.0001145028641818,0.0002199284578543464
-0.4959230429958552,-0.4959230429958552,1.0000136600998268,0.0002113399029862205
-0.4958039075398119,-0.4958039075398119,0.999919686752032,0.00021781125815106372
-0.49567306829849256,-0.49567306829849256,0.9999065401275612,0.00020363828514244464
-0.49545850696449634,-0.49545850696449634,0.9998413785895244,0.0002247118681832829
-0.4952496050362242,-0.4952496050362242,0.9997287372117343,0.0002195490550747095
-0.49518763409287203,-0.49518763409287203,0.9999196481612687,0.00020024863458540314
-0.49508090640010777,-0.49508090640010777,1.0001014834611222,0.00020899552145934366
-0.49498487352975645,-0.49498487352975645,1.0001800248295547,0.00023042849879376413
-0.4948555020208005,-0.4948555020208005,0.999835321144635,0.0002020950092863309
-0.49474837878369726,-0.49474837878369726,1.0000630293001183,0.0002198604283097971
-0.4945905715634581,-0.4945905715634581,1.0002454310892614,0.00020992925935447174
-0.4943633668299299,-0.4943633668299299,0.9998872180332885,0.00021762891800113587
-0.49418736863299273,-0.49418736863299273,0.9999624949522493,0.00021861732470461812
-0.4939711316750618,-0.4939711316750618,0.9998983067291316,0.00021516867661773497
-0.49384394060471093,-0.49384394060471093,0.9998111941613388,0.0002280333388126058
-0.4937620483950013,-0.4937620483950013,1.0000133252809422,0.00022162717584255876
-0.49364363484201024,-0.49364363484201024,0.9999399392478242,0.00020695336668479048
-0.4935466237831861,-0.4935466237831861,1.0000181637481405,0.00021037013055198546
-0.49342200826795307,-0.49342200826795307,1.0001914601090722,0.00021787618690672665
-0.4933138681371929,-0.4933138681371929,0.9999576667086064,0.0002154447671184636
-0.49319441125844604,-0.49319441125844604,0.9996773278536665,0.00022859393992919554
-0.4931278677977389,-0.4931278677977389,1.0001739260636229,0.00021350633865095236
-0.49299296927638353,-0.49299296927638353,1.000156358329449,0.00021669337839383326
-0.492870177293662,-0.492870177293662,1.000181953676694,0.00021431231453503688
-0.4927560325624654,-0.4927560325624654,1.000236860260245,0.00020574095327016064
-0.49266262441233266,-0.49266262441233266,0.9999200633212502,0.00023744805040718824
-0.492573960556183,-0.492573960556183,0.9995851458634618,0.00021270127400545413
-0.49252546502975747,-0.49252546502975747,1.0004065446271118,0.00021748561071054684
-0.4923385065776529,-0.4923385065776529,0.9999838678945098,0.00021864484182319133
-0.4921829752769554,-0.4921829752769554,1.000077020391095,0.00023204814124036516
-0.4920589128363645,-0.4920589128363645,1.0000867082818035,0.00021121053666313473
-0.4919680898747174,-0.4919680898747174,0.9997476843500408,0.0002166282595477364
-0.4918519955361262,-0.4918519955361262,0.9998944619224354,0.00022661530524568027
-0.4916866387386108,-0.4916866387386108,0.9998856626674772,0.0002182985306253135
-0.49150307155796324,-0.49150307155796324,0.9997963452217432,0.00022308537972106005
-0.4913425570208346,-0.4913425570208346,0.9999129834995794,0.00020630057486693967
-0.4911859345069388,-0.4911859345069388,0.999732943718814,0.00021371397645565432
-0.4910992280434584,-0.4910992280434584,1.0003302256835445,0.00022610454247928304
-0.49100298137927895,-0.49100298137927895,0.999985830369736,0.0002145376841077995
-0.49081991519778967,-0.49081991519778967,0.9999393664299561,0.00020602609511757904
-0.4906935705046635,-0.4906935705046635,0.9999630500795911,0.0002134213931102409
-0.49056659410998693,-0.49056659410998693,0.9994975806714101,0.00022086825738417104
-0.4904134689277271,-0.4904134689277271,0.9999568474224926,0.0002235665541763577
-0.4902217612747336,-0.4902217612747336,0.9999315804251385,0.0002044260730039734
-0.490068668697495,-0.490068668697495,0.9996928472860203,0.000216828772836147
-0.48992550339899027,-0.48992550339899027,0.9998541795772107,0.00020821941880216547
-0.4898392109957058,-0.4898392109957058,1.0000959957868116,0.00021853470145876932
-0.48978048646531536,-0.48978048646531536,1.0002750149439703,0.00021541254235111514
-0.4896584889589576,-0.4896584889589576,0.9999267296207586,0.0002277439379981892
-0.48949218161287716,-0.48949218161287716,0.9998931944256221,0.00020309390917092464
-0.48937473572441376,-0.48937473572441376,1.000004066407317,0.00021902344955598689
-0.4892117359151598,-0.4892117359151598,1.000104892028523,0.0002076938321180831
-0.4891210346017033,-0.4891210346017033,1.0001578494088204,0.0002163046212058346
-0.48898377806763166,-0.48898377806763166,0.9998595813780817,0.00021289056832309022
-0.48889728331705556,-0.48889728331705556,0.9997381370155336,0.00021323324998796266
-0.48880363105563446,-0.48880363105563446,1.000028527506168,0.00022044716703125523
-0.4886707529250998,-0.4886707529250998,0.9999238254326552,0.0002087005020790077
-0.4885203351295786,-0.4885203351295786,0.9998615549887848,0.00022505929941254839
-0.4883373286866117,-0.4883373286866117,0.9999295921349944,0.0002309181486841274
-0.4882072821317706,-0.4882072821317706,1.0003736213814869,0.00020792630462023362
-0.4880228865542449,-0.4880228865542449,1.0001519529945653,0.0002061604852849598
-0.48782593999349044,-0.48782593999349044,0.9999020836170821,0.00021384881544307755
-0.48769853759149556,-0.48769853759149556,0.9999999939375306,0.00022213648531216513
-0.48753794879594353,-0.48753794879594353,0.9997753673107912,0.0002279100151124533
-0.48746399409137664,-0.48746399409137664,0.9999916035548411,0.00022070393935713393
-0.4873856484977296,-0.4873856484977296,1.0000408571098471,0.00021726828673821955
-0.487262293783715,-0.487262293783715,0.9999165996473547,0.00021929194046050427
-0.4870259515941143,-0.4870259515941143,0.9999094455106927,0.00020848370509495823
-0.48688181494071614,-0.48688181494071614,1.0000667272599757,0.00022598956946546828
-0.48677969541458876,-0.48677969541458876,1.0001426280633652,0.00021589373089670773
-0.48666653118561953,-0.48666653118561953,1.0000336597702952,0.0002137703358706606
-0.4864722619415261,-0.4864722619415261,1.0003182387248744,0.00021240918095362079
-0.4863025760365417,-0.4863025760365417,0.9995055103816636,0.00022147396588056268
-0.48620402261440177,-0.48620402261440177,0.9999874993735093,0.00022402363904042077
-0.48606631050934085,-0.48606631050934085,0.9998784371201392,0.00021478436972532998
-0.4859389198682038,-0.4859389198682038,0.9997932770050113,0.00022248296086057663
-0.4857831884874031,-0.4857831884874031,1.0001876018680917,0.00020989108496439376
-0.48569608976249584,-0.48569608976249584,0.9997518315597416,0.00021633451894188536
-0.4855030819569947,-0.4855030819569947,1.0000604862291276,0.00022085660756479742
-0.48537058525835164,-0.48537058525835164,0.9998544464138559,0.00021541707711037877
-0.4851855137414532,-0.4851855137414532,0.999925479624444,0.00022316956011756944
-0.4851014395011589,-0.4851014395011589,1.000006224026587,0.0002077331652142234
-0.4850124781863997,-0.4850124781863997,1.0000077300806391,0.00021748689994038195
-0.48488584293809256,-0.48488584293809256,0.9998339921017976,0.00021948039726105164
-0.4848051916575059,-0.4848051916575059,1.000192282927936,0.00022103527808026158
-0.48471448839700315,-0.48471448839700315,1.0000232649322236,0.00021661340330725656
-0.48464292029384526,-0.48464292029384526,1.0000939170183922,0.00021718138820354884
-0.4845084111351753,-0.4845084111351753,1.0002764977274554,0.0002238110631527776
-0.4843730125983711,-0.4843730125983711,0.9998876215437356,0.0002227296654457182
-0.4842023156088544,-0.4842023156088544,1.0000565392264558,0.00022924290295763184
-0.4839872233715141,-0.4839872233715141,1.0000985851037254,0.00021739656435748562
-0.4838386315124808,-0.4838386315124808,0.9997815683377975,0.00021956462407099394
-0.48373474622203505,-0.48373474622203505,1.0002190876016321,0.00020445860067736074
-0.48359831383277196,-0.48359831383277196,1.0000981946823422,0.00022062207609513173
-0.4835242542729247,-0.4835242542729247,0.9999827774334296,0.00021935791454114487
-0.48341777351160997,-0.48341777351160997,1.0002407739914436,0.00021192567078030404
-0.4832681345171295,-0.4832681345171295,1.0001947758466188,0.0002202487453195579
-0.48317695532750804,-0.48317695532750804,1.0000398658531402,0.00021506590612631443
-0.4830087722395547,-0.4830087722395547,0.9996807962325865,0.00022333674659322464
-0.48273798564623577,-0.48273798564623577,1.0002142057028258,0.00021594274689518085
-0.48253932965162677,-0.48253932965162677,1.0001962641820377,0.0002017883184023731
-0.48242322164587675,-0.48242322164587675,1.0003344574746138,0.00021372355993225738
-0.48234570342174266,-0.48234570342174266,1.0002603288902097,0.0002222461467811944
-0.4821879236231325,-0.4821879236231325,0.9999608642469742,0.00019811763557638583
-0.48205094437580553,-0.48205094437580553,1.000139462578474,0.00022432419677928555
-0.48189444396994074,-0.48189444396994074,0.9998290586417543,0.00023870918810633252
-0.48181053181760947,-0.48181053181760947,0.999861687263594,0.0002169099337635429
-0.48166516720375513,-0.48166516720375513,0.9999580854606999,0.00022052865277884197
-0.48151230610965284,-0.48151230610965284,1.0001331957609318,0.0002201168593477149
-0.4814303739200113,-0.4814303739200113,1.0001081604296003,0.00020664815060662123
-0.4813436481897952,-0.4813436481897952,0.9996391065835825,0.00021334874543800806
-0.48124832527828404,-0.48124832527828404,1.0001659486948251,0.00021605035000279632
-0.48117452615697404,-0.48117452615697404,1.0003090215965986,0.00022005326889801567
-0.4811279035784537,-0.4811279035784537,0.9999525229908983,0.00021240216636398004
-0.48098843946645503,-0.48098843946645503,0.9998087723134168,0.0002235249598257885
-0.4808505689899903,-0.4808505689899903,1.0000498291412567,0.00022664673830525558
-0.4806990237062564,-0.4806990237062564,1.0000258573846188,0.00022154919529732397
-0.48058552979491653,-0.48058552979491653,0.9999249269981441,0.0002369210827834095
-0.48050977976527065,-0.48050977976527065,0.999878196608259,0.00020989542439449086
-0.4804758363810834,-0.4804758363810834,1.0000034849134072,0.00021626644310112172
-0.4804099059838336,-0.4804099059838336,0.9998343749057007,0.00021242073733008954
-0.4803165465767961,-0.4803165465767961,0.9999923856898715,0.00022098946656794543
-0.4801542387896916,-0.4801542387896916,0.9999708590272978,0.00021774030403055216
-0.48005163818306756,-0.48005163818306756,0.9999577313675461,0.0002242369228642367
-0.4799208766169613,-0.4799208766169613,1.0000187356918835,0.00021457180001469332
-0.4796974496654002,-0.4796974496654002,0.9999662256866977,0.0002236780184845456
-0.4795450847799657,-0.4795450847799657,1.0000704432107326,0.00021330113446727753
-0.47939566385466603,-0.47939566385466603,0.9998649409124433,0.00022090866215893125
-0.47925618342414966,-0.47925618342414966,0.9997452205367511,0.00020934432391357173
-0.4791396126849577,-0.4791396126849577,0.9999865373834433,0.0002350663503882757
-0.47903279108577407,-0.47903279108577407,0.9998684198613279,0.00021025020424744585
-0.4788916873920243,-0.4788916873920243,0.9999569243612356,0.00021104558823516138
-0.4787037421221612,-0.4787037421221612,1.0001802522120538,0.00021213177423620274
-0.4785913504398195,-0.4785913504398195,1.0001931448255648,0.00021081556755372504
-0.47837408776103985,-0.47837408776103985,0.999724796916756,0.00021644663083705433
-0.4781344562274171,-0.4781344562274171,0.9998467340832272,0.00022606549056679678
-0.4779730134061538,-0.4779730134061538,0.9999013039697042,0.00022799769567424707
-0.4778679513023235,-0.4778679513023235,1.0002364617586241,0.0002119122723329999
-0.4777094336313894,-0.4777094336313894,0.999791653685479,0.00020431592299399249
-0.4776223463180941,-0.4776223463180941,1.0003154850399532,0.00021843709050716045
-0.4775334056292195,-0.4775334056292195,1.0000275699366672,0.00022561488657673272
-0.47744111529609656,-0.47744111529609656,1.0001022119483685,0.00021897327641887788
-0.47732381490059195,-0.47732381490059195,1.0001425035113314,0.00022041951788626923
-0.4772254279232584,-0.4772254279232584,0.9998233294570754,0.000221667730133614
-0.47703741856385024,-0.47703741856385024,0.9999479368926976,0.00020735937695274737
-0.4768988384457771,-0.4768988384457771,0.9998872165236534,0.00021704107941113962
-0.4768271041510161,-0.4768271041510161,1.000212302047141,0.00022564371231134503
-0.47673199730052146,-0.47673199730052146,0.9997989994418178,0.0002134791219477782
-0.4766608561651083,-0.4766608561651083,1.0000729614565549,0.00021734015167293013
-0.47660047993995247,-0.47660047993995247,0.9998646211116922,0.00021435238625371164
-0.47642409275867975,-0.47642409275867975,1.0000512885974735,0.00022412680515445307
-0.4762693753495114,-0.4762693753495114,1.0000333130292456,0.0002144632354613091
-0.47618131689960136,-0.47618131689960136,1.000194425510945,0.00021458188903995104
-0.4760833631764399,-0.4760833631764399,1.000172215765826,0.00021242954923624593
-0.47600899513054173,-0.47600899513054173,0.9998942777952248,0.00021980330592946765
-0.4759307764470577,-0.4759307764470577,0.9999084143182235,0.0002230194248018666
-0.4757484685018426,-0.4757484685018426,0.9999957865098608,0.0002231279874754303
-0.47553658911201635,-0.47553658911201635,1.0001195405559296,0.00020673176208852888
-0.4753290352906333,-0.4753290352906333,1.00008690216054,0.00021915373236214958
-0.4752477064233972,-0.4752477064233972,1.0001223072743763,0.00021917735801185652
-0.47510945633403023,-0.47510945633403023,1.0001287385040971,0.00021456485684830275
-0.47496302624058445,-0.47496302624058445,1.0003379575784652,0.00020842266692382838
-0.4748173421714455,-0.4748173421714455,0.9998581504737587,0.00022100985442089207
-0.4746719186397968,-0.4746719186397968,0.9999919035420731,0.00022818636805499985
-0.47456983490264976,-0.47456983490264976,1.0002478324083053,0.000212298619111634
-0.4743636733386666,-0.4743636733386666,0.9997587589946774,0.00020049203873228643
-0.47417977869918104,-0.47417977869918104,0.9999453619995957,0.00021421417174970455
-0.47400203071301805,-0.47400203071301805,1.0000179223808257,0.000207364428565928
-0.47393793624360114,-0.47393793624360114,1.0001707494642864,0.0002225557710336566
-0.47385336984298193,-0.47385336984298193,1.0001494361645964,0.0002161909165036314
-0.473674721820862,-0.473674721820862,0.999760931267093,0.0002136659379260582
-0.4735748097620672,-0.4735748097620672,0.9999102900281432,0.00021665728489161408
-0.4734624974691542,-0.4734624974691542,1.0000541745952638,0.00020228558349014923
-0.47332177288481037,-0.47332177288481037,1.0000379273969613,0.00021584514667612192
-0.47318422369135077,-0.47318422369135077,0.9999732693743733,0.0002038819786959154
-0.47307589557603935,-0.47307589557603935,1.0000624482141542,0.00022512825190877696
-0.4730007206439041,-0.4730007206439041,0.9999974674083557,0.00020903956681109104
-0.47288709351269065,-0.47288709351269065,0.9998186126454949,0.00021127886737465958
-0.4727729926846223,-0.4727729926846223,0.9997899271848351,0.00021763166332839103
-0.4726519010408083,-0.4726519010408083,0.9999813378119466,0.0002119340512128735
-0.4725250013463665,-0.4725250013463665,1.0000482449449737,0.0002223252835691203
-0.4724361787200905,-0.4724361787200905,1.000123067137078,0.000212180097760107
-0.47231021484767555,-0.47231021484767555,0.9996189798497965,0.00021197199843562862
-0.4721637193870265,-0.4721637193870265,1.0000102121989993,0.00021924315074002407
-0.4719692721730098,-0.4719692721730098,1.0001478238384975,0.00021074819377148442
-0.4718816613720264,-0.4718816613720264,0.9999982438474806,0.00023270665707535035
-0.4717500988015672,-0.4717500988015672,1.0001512203653768,0.0002099198590400518
-0.4716484254429815,-0.4716484254429815,1.0003044173173288,0.00023207243971615964
-0.4715832735353615,-0.4715832735353615,0.9999596455195693,0.00022088332501396876
-0.47146270555385855,-0.47146270555385855,1.00017332286911,0.00021771492124391558
-0.4712889814341906,-0.4712889814341906,0.9995560618248678,0.0002139714233116258
-0.47107810292218344,-0.47107810292218344,1.0002374515705426,0.00022045316370726203
-0.4709586544107879,-0.4709586544107879,0.999767482312326,0.00020980353197081687
-0.47088909335434437,-0.47088909335434437,0.999866496888503,0.00023514690975646397
-0.4707993669697316,-0.4707993669697316,0.9999238990814863,0.00020745340669506567
-0.4706650628329953,-0.4706650628329953,0.999797957508963,0.0002045916740346773
-0.4704988446406787,-0.4704988446406787,1.0000466742531213,0.00021869283374878305
-0.4704096813511569,-0.4704096813511569,1.000074206880583,0.00022621812465593917
-0.4703024556743912,-0.4703024556743912,0.9999317876650815,0.0002248542695242173
-0.47016354656661863,-0.47016354656661863,0.9999966310881495,0.00021153893606099583
-0.47005337147274984,-0.47005337147274984,1.0000638426507875,0.00021868951505751513
-0.4699157041875878,-0.4699157041875878,0.9998868348844574,0.00022190852728322705
-0.4697974678565515,-0.4697974678565515,0.9998410602611717,0.00020392726044748374
-0.469649527510046,-0.469649527510046,0.9998931327078046,0.00022688484229310894
-0.4694901339767966,-0.4694901339767966,1.000304620369977,0.0002114898851451356
-0.4693171293416526,-0.4693171293416526,1.000264303699013,0.00022291937074348338
