time,time,flux,flux_err
-0.4999461340394191,-0.4999461340394191,1.0000994188517645,0.00012662095990545428
-0.49976382501699845,-0.49976382501699845,1.0000586739029302,0.00011173720150210605
-0.49964835030186805,-0.49964835030186805,0.9997649491954972,0.00011120391487830361
-0.4995366707385983,-0.4995366707385983,1.0000897911085864,0.00011097972161890465
-0.4994273588868964,-0.4994273588868964,0.9999919459132649,0.00011319266729962259
-0.4992941417025577,-0.4992941417025577,0.999790087317477,0.000110823434122538
-0.49913976710959107,-0.49913976710959107,1.0000084869014334,0.00011390916429569506
-0.4990359163217363,-0.4990359163217363,0.9999103196939314,0.0001116664031938688
-0.4989605318536633,-0.4989605318536633,0.9999989267052232,0.00011203186948442708
-0.4988716424879385,-0.4988716424879385,0.9999897040608839,0.00011120576943574493
-0.49871846287860533,-0.49871846287860533,0.9999243494038309,0.0001121367942494172
-0.4985521826631157,-0.4985521826631157,0.999894059623939,0.00011013143991081307
-0.4984292657361948,-0.4984292657361948,1.0002588447503882,0.00011293094338113259
-0.4982793387796846,-0.4982793387796846,1.0001345862753135,0.00011251898813149207
-0.4981498038730933,-0.4981498038730933,1.0000288292907302,0.00011173690720496095
-0.49800680049447693,-0.49800680049447693,0.9997970459427027,0.00011063077048486072
-0.4978821662516566,-0.4978821662516566,0.9999598129101501,0.00011057294005405642
-0.49774657657908394,-0.49774657657908394,0.9999056895515389,0.00011292544102649605
-0.49758493965637174,-0.49758493965637174,1.0000393498050943,0.00011454266929664284
-0.49742642415512817,-0.49742642415512817,0.9999495532580773,0.00011076069615042182
-0.49727271687443136,-0.49727271687443136,0.999855899116063,0.00011186408308574106
-0.4971631006344978,-0.4971631006344978,0.9999578716602379,0.00011433780497680068
-0.49705017518281236,-0.49705017518281236,1.0000163016779045,0.00011083781183328801
-0.4968991248766542,-0.4968991248766542,0.9999958110341058,0.00010991670543991614
-0.4967424531139841,-0.4967424531139841,1.0002482679244384,0.0001113658888337526
-0.49659405433703796,-0.49659405433703796,0.999968549418468,0.00011128160625896487
-0.4964533714301069,-0.4964533714301069,0.9998828030327017,0.0001095482779150253
-0.4963438938008039,-0.4963438938008039,0.9999243942788756,0.00011253305584503347
-0.49621392467888653,-0.49621392467888653,0.9999886947069079,0.00011031501723767517
-0.4960912511116476,-0.4960912511116476,1.0000550961726953,0.00010885588354895797
-0.49593873073681605,-0.49593873073681605,1.0001353319841335,0.00011096057665125854
-0.49575306650294804,-0.49575306650294804,0.9999267199801534,0.00011320174462139533
-0.49562527222442443,-0.49562527222442443,1.0001617171373638,0.00011180725292380463
-0.49546970706505816,-0.49546970706505816,0.9999100533169457,0.00011020186869818273
-0.49533135994861366,-0.49533135994861366,1.0000634420804257,0.00011064051506854272
-0.49519538618114894,-0.49519538618114894,1.0001041080050341,0.00011125555263248549
-0.49504714681461337,-0.49504714681461337,0.9999430308546822,0.00010911034751459156
-0.49488406498931,-0.49488406498931,0.9998214758145016,0.0001125225572383002
-0.49478868140431587,-0.49478868140431587,0.9999567605341099,0.00011187773982753884
-0.49471343699333375,-0.49471343699333375,0.9998917853742262,0.00010985449961785351
-0.494606084399129,-0.494606084399129,0.9999650019649697,0.00011318357718963957
-0.49445708877101424,-0.49445708877101424,1.0000391418713188,0.00011323075291034866
-0.49428542057867164,-0.49428542057867164,0.9999896530196544,0.00011240469969457057
-0.49413293918623824,-0.49413293918623824,0.9998314914744315,0.00011086358272238484
-0.49404230372383606,-0.49404230372383606,0.9999786832579008,0.00011028924419298391
-0.493999363839248,-0.493999363839248,1.0001213851985988,0.00011228427632816482
-0.4938623064583226,-0.4938623064583226,0.9998946181579903,0.00011146883864294411
-0.4937425151394564,-0.4937425151394564,1.0000798047881196,0.00011206298938631627
-0.49357580921059707,-0.49357580921059707,1.0000099367817408,0.00011092735858459744
-0.49346604468300936,-0.49346604468300936,0.9999805163443363,0.00011335746579165642
-0.49335821349013714,-0.49335821349013714,0.9999697542570797,0.00011190674696414133
-0.4932995346287498,-0.4932995346287498,1.0000805159646486,0.00011161839412368051
-0.4932144101796439,-0.4932144101796439,0.9998896252436389,0.0001098899902004292
-0.4931371896956989,-0.4931371896956989,0.9998952376755696,0.0001090105846145736
-0.49305320214189124,-0.49305320214189124,0.9999996068110979,0.00011035912717135636
-0.4929221223712375,-0.4929221223712375,1.0001072675066036,0.00011347027687304163
-0.492786829607212,-0.492786829607212,0.999947429276298,0.00011257273490243187
-0.4927070986079343,-0.4927070986079343,0.999984655039966,0.00011316907265215476
-0.492635946887458,-0.492635946887458,1.0000515776836796,0.00011099419406229134
-0.49257143452778107,-0.49257143452778107,1.0001611692053989,0.0001118055926793485
-0.49253014224159414,-0.49253014224159414,0.9999806058099351,0.00010998489027405124
-0.49235560002271084,-0.49235560002271084,0.9999277722069152,0.0001112475737385662
-0.49226787143488765,-0.49226787143488765,0.999980922907994,0.0001090780393234718
-0.49217815426382006,-0.49217815426382006,1.0000046151097153,0.0001102810377063629
-0.4921359502433916,-0.4921359502433916,1.0000548181678215,0.0001122835380387805
-0.4920482574831112,-0.4920482574831112,0.9999474746031319,0.0001113557538326243
-0.49193350347923115,-0.49193350347923115,0.9998747813481762,0.00011177759868569485
-0.4918269049296214,-0.4918269049296214,0.9999306586153673,0.000123669090071159
-0.49177594683642384,-0.49177594683642384,0.9999879663938174,0.00011011530607702292
-0.4917312479003158,-0.4917312479003158,1.0000323232683932,0.00011286610167716746
-0.49169012385755195,-0.49169012385755195,0.9998911128142313,0.00011136573963692992
-0.49160182408668335,-0.49160182408668335,1.0000595477724583,0.00011175892229624469
-0.4914507169443823,-0.4914507169443823,0.9998416346385997,0.00011197507857011082
-0.4913735774352972,-0.4913735774352972,1.0000553655069815,0.00011128333050585044
-0.4912823320497409,-0.4912823320497409,0.9999578022735527,0.00011158683757318275
-0.49121694242203373,-0.49121694242203373,0.9998956037136594,0.00011219396444551453
-0.491128542838851,-0.491128542838851,0.9999382738557129,0.00011115925353844085
-0.49101627707786977,-0.49101627707786977,0.9999416001637771,0.00011095213586267627
-0.49091800329551916,-0.49091800329551916,0.9998906115953797,0.00011076062962848007
-0.4908267882623477,-0.4908267882623477,1.0003414982944698,0.00011661752960980883
-0.4907648784457706,-0.4907648784457706,0.9999670486780484,0.00011258569740139562
-0.49066883882842377,-0.49066883882842377,1.0000852583181765,0.00011053578342688703
-0.4905613044189522,-0.4905613044189522,1.0000227139262008,0.00010925670318612059
-0.49044636561375227,-0.49044636561375227,0.9998952964324037,0.00011258016845891247
-0.49032857878264624,-0.49032857878264624,1.0000241942389094,0.00011425737029587208
-0.4902062210661825,-0.4902062210661825,1.0000942722296802,0.00011265715411951046
-0.49004403495346194,-0.49004403495346194,0.9999623934632765,0.0001104667626690606
-0.48993436387027034,-0.48993436387027034,0.9998953242084209,0.00011103937089755901
-0.48980942013295137,-0.48980942013295137,0.9999570256713175,0.00011337622107740364
-0.4897357065572578,-0.4897357065572578,1.0000196424593486,0.00011262364512657671
-0.4895818258948566,-0.4895818258948566,0.9999718900429521,0.00011054664496572625
-0.4894549279299099,-0.4894549279299099,0.9999770484707925,0.00011171750326721591
-0.48933481688800384,-0.48933481688800384,0.9999849573517366,0.00011128988240759996
-0.48923390345444207,-0.48923390345444207,1.0000652478378484,0.00011248234160587136
-0.48912404172224344,-0.48912404172224344,1.0000127716722242,0.00011383391884827747
-0.4890214355502394,-0.4890214355502394,0.999999971335761,0.00011031642428027233
-0.4888787339332339,-0.4888787339332339,1.0002307999652245,0.00011064424538211544
-0.4887989894028578,-0.4887989894028578,1.0002062462704118,0.00011420163238812066
-0.4886421870425693,-0.4886421870425693,0.9998243672820986,0.00011173192302893934
-0.4885112987969478,-0.4885112987969478,0.9999019944157519,0.00011152556014943323
-0.4883324602218636,-0.4883324602218636,0.9999615286460406,0.00011020087005927542
-0.48817944917682327,-0.48817944917682327,0.9998686783789485,0.00011271590555813875
-0.4880015786751756,-0.4880015786751756,0.9997521385421446,0.00011702844015632379
-0.4878201116043783,-0.4878201116043783,0.9999246088212551,0.00011010321218118439
-0.4876805640051316,-0.4876805640051316,1.0001627616475264,0.00011196884842380598
-0.48752804437681335,-0.48752804437681335,1.000037331352627,0.00011285198886346847
-0.4874257423252857,-0.4874257423252857,1.0000063267019854,0.00011069127218077376
-0.4872866868259734,-0.4872866868259734,0.9998773991334616,0.0001093385525672878
-0.48712547444447407,-0.48712547444447407,1.000041119094368,0.00011155103861055383
-0.48698045761702813,-0.48698045761702813,0.9999690673853964,0.00011184159050442039
-0.4867962847914896,-0.4867962847914896,1.0000999447575365,0.00011071229699972177
-0.4866404916821921,-0.4866404916821921,1.0000861727289139,0.00011172127223231529
-0.4864861052854394,-0.4864861052854394,0.9996938404807517,0.00011480191133773018
-0.4864009315911971,-0.4864009315911971,1.000211858008547,0.00011036911155398639
-0.4861970976817247,-0.4861970976817247,0.9997256000759982,0.00011165492725366717
-0.4860449294741557,-0.4860449294741557,1.000093657308322,0.0001165888468275105
-0.48598040072538423,-0.48598040072538423,1.000161360155575,0.00011217801361095966
-0.48583078662268236,-0.48583078662268236,1.0001322741664553,0.00010931053832470149
-0.48566813044890295,-0.48566813044890295,0.9998230577169679,0.0001105855267727849
-0.48557030935553486,-0.48557030935553486,1.0001866490563032,0.00010985907472506559
-0.48541918698101655,-0.48541918698101655,0.9999514361613722,0.00011029332129286502
-0.4852570853472571,-0.4852570853472571,0.9998917364897839,0.00011374254272771608
-0.48513993538799693,-0.48513993538799693,1.0000783996367162,0.0001118946846033735
-0.4850512182470993,-0.4850512182470993,1.0000011323108426,0.00010985929400668714
-0.4849299736291869,-0.4849299736291869,0.9999434359584809,0.00011383113251900363
-0.4847376917343354,-0.4847376917343354,1.000140396155876,0.00011238144863527922
-0.48454394169530135,-0.48454394169530135,1.0000193529443258,0.00011074862132959043
-0.4844264641331392,-0.4844264641331392,1.0001412048692597,0.00011126363641497935
-0.48435178178187926,-0.48435178178187926,0.9998626384612956,0.00011251683403672524
-0.4842948051511485,-0.4842948051511485,1.0000945235303902,0.00011909273034609043
-0.4841629454756912,-0.4841629454756912,1.0000439683250482,0.00011239841312267319
-0.4840608783895732,-0.4840608783895732,0.9998649436242883,0.00011215577840879211
-0.4839096336814691,-0.4839096336814691,0.999806199939649,0.00011172152331475549
-0.48381257331784583,-0.48381257331784583,0.9999324576947212,0.00011333814327712658
-0.483692969979893,-0.483692969979893,1.000068254148625,0.00011025457026626233
-0.48363023755373435,-0.48363023755373435,0.9996469650092363,0.00011207421798024799
-0.4835415533438209,-0.4835415533438209,1.0000188250725779,0.00010973697913653298
-0.4834222522476921,-0.4834222522476921,1.0001227925133656,0.00011024802407982271
-0.48330228864215313,-0.48330228864215313,1.000070487474303,0.00011284861960912742
-0.4831871181871975,-0.4831871181871975,0.9999036870358688,0.00011182062023962146
-0.48308607863582437,-0.48308607863582437,0.9999638767095526,0.00011353979741641606
-0.4829995742700703,-0.4829995742700703,0.9999624560154794,0.00011172428713464723
-0.4829294064023998,-0.4829294064023998,0.999959028949289,0.00011169500495459166
-0.4828891627948906,-0.4828891627948906,0.9999550399947532,0.00011094895989857573
-0.4827163086752989,-0.4827163086752989,1.0000120407997843,0.00011025339298475071
-0.48258135033102006,-0.48258135033102006,0.9998587643472507,0.00010892177038095637
-0.482510469412955,-0.482510469412955,0.9999356937648203,0.0001121987359391364
-0.48248065777224836,-0.48248065777224836,1.00002469607047,0.00011165605945595583
-0.48234708918316754,-0.48234708918316754,1.0000827578492484,0.00011149965513221205
-0.48219508309994125,-0.48219508309994125,1.0001115641024985,0.00011155987512508163
-0.4821290730658802,-0.4821290730658802,1.0000023348667013,0.00011079431296788709
-0.4820798509026645,-0.4820798509026645,0.99994919084644,0.00011303444310967428
-0.48203119483223417,-0.48203119483223417,0.9999742314975307,0.00011234925893998155
-0.481969807461428,-0.481969807461428,1.0001153030022774,0.00011072166717628663
-0.48183075966953764,-0.48183075966953764,1.0001815885124405,0.00011013615985594024
-0.4817675587895792,-0.4817675587895792,1.0002505058468223,0.00011363677155352283
-0.48170684900615013,-0.48170684900615013,1.0001468663847317,0.00011032519554086257
-0.48162417396597446,-0.48162417396597446,0.9999317611151035,0.00011032197661343028
-0.48156416235360666,-0.48156416235360666,0.9999911968508574,0.00011215441689446644
-0.4814268507012457,-0.4814268507012457,1.0000476658557038,0.00011130247393589495
-0.48132507511108996,-0.48132507511108996,1.0001042137749008,0.00011092421247203195
-0.4812185223752749,-0.4812185223752749,0.9999130379988153,0.0001141718213548137
-0.4811513362496044,-0.4811513362496044,0.9997427206760637,0.00011254118432932138
-0.48105154677905376,-0.48105154677905376,0.9999729891533388,0.00011165804076161928
-0.48092652003033437,-0.48092652003033437,0.9998881210218847,0.00010940738025158386
-0.4807983579026768,-0.4807983579026768,1.0001690400585597,0.00011209389103969736
-0.48065393024735387,-0.48065393024735387,1.000030688974602,0.00011492904091330314
-0.4805504335272417,-0.4805504335272417,1.000112857814369,0.00011112655118526709
-0.48041976302702094,-0.48041976302702094,1.000006862377322,0.00011130646931027622
-0.48027031598830944,-0.48027031598830944,0.9998730113821098,0.00011108141437591744
-0.4801470514947141,-0.4801470514947141,1.0001324180709426,0.00011358167464466473
-0.4800670145792537,-0.4800670145792537,0.9999698352185934,0.00011259416134314903
-0.47991816453795766,-0.47991816453795766,1.000041248786729,0.00010983651621687142
-0.479807341441483,-0.479807341441483,1.000133758551033,0.00011313456807491734
-0.4796825043180434,-0.4796825043180434,0.9999536090675349,0.00011110779962946273
-0.4795891360474343,-0.4795891360474343,1.0001780612556692,0.00011269585509758251
-0.479494446102035,-0.479494446102035,0.9999729385181494,0.00011243199880759533
-0.479330401471816,-0.479330401471816,1.0000866867046685,0.00011161056102095316
-0.4791887510778906,-0.4791887510778906,0.9999701803774173,0.00011341165392716955
-0.47908288411053945,-0.47908288411053945,1.000048802332924,0.00011212227972219144
-0.47895411752033396,-0.47895411752033396,1.000144532855493,0.00010982797663450824
-0.4788709835098416,-0.4788709835098416,1.0000421751429438,0.00011311003913290871
-0.47872514729679094,-0.47872514729679094,0.9999613729093522,0.00011092862666184685
-0.47854857209385954,-0.47854857209385954,0.9999207110592121,0.00011190712502692201
-0.4784062824146531,-0.4784062824146531,1.0000060574529697,0.00011127477079744504
-0.47826589951873755,-0.47826589951873755,0.9997586824598145,0.00011135601577268144
-0.4781194178649457,-0.4781194178649457,1.000027997293013,0.00011070481849409386
-0.47793998651832226,-0.47793998651832226,1.0000594572850363,0.00011259514637532877
-0.4778613328737265,-0.4778613328737265,0.9999407956648436,0.00011246392573422976
-0.47774714992774536,-0.47774714992774536,1.0000157452060818,0.00011020400501866943
-0.4776286817737855,-0.4776286817737855,1.00018314999382,0.00010957829321664992
-0.4775032913101313,-0.4775032913101313,0.9998112245204791,0.00011247866818916031
-0.47733576421014734,-0.47733576421014734,0.9998864098633738,0.00011186775273666933
-0.47717859494296133,-0.47717859494296133,0.9999901548123089,0.00011069001604985724
-0.4770369368372485,-0.4770369368372485,1.000092175336089,0.00011193144082001986
-0.4768784429375955,-0.4768784429375955,1.000006009574512,0.00011940311262771065
-0.4767999236137257,-0.4767999236137257,1.000003273631156,0.00010759956439940575
-0.47669783895107687,-0.47669783895107687,1.0000490239750595,0.00011386256059799763
-0.47659372314301435,-0.47659372314301435,0.9999101593103319,0.00011307688955478927
-0.4764409233306651,-0.4764409233306651,1.000030943136211,0.00011209992359017932
-0.47634615949355064,-0.47634615949355064,0.9997614073854203,0.00011174652049830288
-0.4762058005981089,-0.4762058005981089,1.0000888663844694,0.00010995930513072559
-0.47610792361738274,-0.47610792361738274,0.9999034958999532,0.00010957772089841297
-0.4759754960112332,-0.4759754960112332,1.0000388367048418,0.00011143011816862528
-0.4758026329065615,-0.4758026329065615,1.0000818198501704,0.00011011520468968736
-0.47562453118443954,-0.47562453118443954,1.0000425451386623,0.00011328982000559835
-0.47547481873407377,-0.47547481873407377,0.9999612143527589,0.00011062468797795786
-0.4753417618230742,-0.4753417618230742,1.000102879808978,0.00011161123248996261
-0.47520710973331004,-0.47520710973331004,1.0000108393157454,0.00011381957025730492
-0.4750322969317494,-0.4750322969317494,1.0001438705364953,0.0001126434885231194
-0.47483874348763494,-0.47483874348763494,1.0001842306400526,0.00011048672987898584
-0.4747412775461271,-0.4747412775461271,1.0000619763889207,0.000111213977814545
-0.47466794737265444,-0.47466794737265444,0.9999431993519583,0.00011205124353090596
-0.47454365395678905,-0.47454365395678905,1.0000435614493475,0.0001124868911429159
-0.47440162129933017,-0.47440162129933017,0.9998799283690316,0.00011177769525694061
-0.4742835754455882,-0.4742835754455882,1.000033568357988,0.00011137941981548854
-0.47420710497390245,-0.47420710497390245,1.0000876969464598,0.00011210911276838985
-0.4740742928617692,-0.4740742928617692,1.0001394575801386,0.00011262875586537102
-0.47397095149426605,-0.47397095149426605,0.999997740095098,0.00011208781700294049
-0.47388214144375523,-0.47388214144375523,1.0001134823537683,0.00010973089741580788
-0.4737779788039916,-0.4737779788039916,0.9999334082307104,0.00010953147747051226
-0.473688745473919,-0.473688745473919,0.999956536783763,0.00011262912059720968
-0.47356616037432103,-0.47356616037432103,0.9998214083770123,0.00011219972060048152
-0.4734465460220235,-0.4734465460220235,1.0001316739784598,0.00011226102834631122
-0.4733727832375735,-0.4733727832375735,1.0002372122315788,0.00011290462388638175
-0.4732994895632146,-0.4732994895632146,0.9999330496003264,0.00011177183897753504
-0.4732482954786974,-0.4732482954786974,0.9998788601680895,0.00011108693031221503
-0.4731727428981685,-0.4731727428981685,0.999958814413654,0.00011137361603412903
-0.4729915214069479,-0.4729915214069479,0.9999965865081665,0.0001101443070547299
-0.472894716157316,-0.472894716157316,0.9999435965174541,0.00011028291587075886
-0.47284855344623794,-0.47284855344623794,1.0001612971454705,0.00011092983446177487
-0.472755152224272,-0.472755152224272,1.0000180144013502,0.00011095817654085518
-0.47262529366125816,-0.47262529366125816,1.0000622081063577,0.00011134529509216427
-0.4725314646748302,-0.4725314646748302,1.0003533946882617,0.000111342094399521
-0.4724765578925144,-0.4724765578925144,0.9999686650015939,0.00010991326115416145
-0.47241745232531684,-0.47241745232531684,0.999773152572309,0.00011324839964581088
-0.4723683714430081,-0.4723683714430081,1.000057713235407,0.00011190577428971675
-0.4722808674392581,-0.4722808674392581,1.0000675877505922,0.00011102098615876014
-0.4721375140114105,-0.4721375140114105,1.0000498921106238,0.0001138410771108876
-0.4720671556358866,-0.4720671556358866,1.000068918232273,0.00010995674198087395
-0.4720081873616436,-0.4720081873616436,0.9999124386287536,0.00011086906757571862
-0.47194469060123084,-0.47194469060123084,1.000067111345191,0.00011092036115550596
