time,time,flux,flux_err
-0.4992810055082373,-0.4992810055082373,0.9999344865496488,0.0001222659476416745
-0.49776671587581706,-0.49776671587581706,1.000008226526137,0.00012213879936404714
-0.4959100742677644,-0.4959100742677644,1.0000733748201118,0.00012231352466039042
-0.4932187718532077,-0.4932187718532077,0.9999532545656834,0.00012542845108783632
-0.4917284536764782,-0.4917284536764782,0.9999445433618396,0.00011153643861695482
-0.4900667992274975,-0.4900667992274975,0.9999840821255888,0.00011162462541699342
-0.48798865254793783,-0.48798865254793783,0.9999542144486139,0.00011165852562917745
-0.4851755663228687,-0.4851755663228687,1.000056496102474,0.00011164846444506707
-0.48353921501984587,-0.48353921501984587,0.9999345931534427,0.0001115682238313744
-0.4819234748676536,-0.4819234748676536,1.0000810734031131,0.00011165319936448802
-0.4795904926228104,-0.4795904926228104,0.9999608562119991,0.00011163595025577606
-0.4779891683698224,-0.4779891683698224,0.9998730313585267,0.00011136633512869913
-0.4766381470268243,-0.4766381470268243,1.0000694487773554,0.0001116097195092038
-0.4744336239920813,-0.4744336239920813,0.9999346361406619,0.00011179763057230683
-0.4726851762687147,-0.4726851762687147,0.9999590129611484,0.00011410291464868764
-0.4710678619609098,-0.4710678619609098,1.0001136204129146,0.00011163028534612271
-0.46911897742174913,-0.46911897742174913,1.0000413124579723,0.00011163862040067891
-0.4662023472308647,-0.4662023472308647,0.9998274350306495,0.0001116371340920146
-0.46449167151222354,-0.46449167151222354,1.0001046769459037,0.00011227719108703259
-0.46341572105011436,-0.46341572105011436,0.9999954568852125,0.00011157427245233882
-0.46148863019916464,-0.46148863019916464,1.0001986961864828,0.00011163127813696772
-0.45938655778154497,-0.45938655778154497,0.999896019975643,0.00011161444412554598
-0.45790442993093167,-0.45790442993093167,0.9998997249528447,0.00011138545687499195
-0.45635889957338804,-0.45635889957338804,0.9999637099032386,0.00011162657734772009
-0.45445468613397677,-0.45445468613397677,1.000027845370923,0.00011357224919040635
-0.45230155311946874,-0.45230155311946874,1.0000177676913933,0.00011157643784231197
-0.45031340547502624,-0.45031340547502624,1.0001121262202326,0.00011162721593281633
-0.44822695998518614,-0.44822695998518614,0.9998073769187155,0.00011167414889422208
-0.4454332419642014,-0.4454332419642014,0.9999230419445079,0.00011211126512156108
-0.4440318737448251,-0.4440318737448251,0.9998563222623341,0.00011159737314386776
-0.442531931452686,-0.442531931452686,0.9999521535752469,0.00011165414133982359
-0.4403766879149771,-0.4403766879149771,0.9998692821035992,0.00012231237181216124
-0.4387791397239198,-0.4387791397239198,0.9999347038940767,0.0001114614234692369
-0.43759203646477546,-0.43759203646477546,0.9999094434059879,0.00011160981155507784
-0.4357568792016536,-0.4357568792016536,1.0001091044811943,0.0001116150193933336
-0.4328529678285122,-0.4328529678285122,0.9998078123761154,0.0001129953911977333
-0.43043694871885235,-0.43043694871885235,0.9999888799426057,0.00011163801275641072
-0.4285952597208961,-0.4285952597208961,1.0000144269973574,0.00011167008151245612
-0.4259035103597853,-0.4259035103597853,1.0003657904638843,0.00011163092920399822
-0.4244771156678325,-0.4244771156678325,0.9998650142574939,0.00011155999884507109
-0.42336210948196823,-0.42336210948196823,0.9999138406272776,0.00011158132910239973
-0.4211596255139739,-0.4211596255139739,1.0000093684001625,0.0001116499986398758
-0.41953359249964706,-0.41953359249964706,0.9999840297279652,0.00011828200732119042
-0.4181564641665318,-0.4181564641665318,0.9998708232754596,0.0001114478877560217
-0.4166038723800739,-0.4166038723800739,1.0001051855586418,0.00011164349329302917
-0.414481277167215,-0.414481277167215,1.0000602611442972,0.0001127112534210018
-0.41203997542979776,-0.41203997542979776,0.9999519103793537,0.00011161980407498977
-0.4105379360131337,-0.4105379360131337,1.0001554169264442,0.00011162675865193707
-0.40911715811744215,-0.40911715811744215,0.9998059209293718,0.00011157364177023527
-0.4064891073066974,-0.4064891073066974,0.9996541565227274,0.00011160206099932436
-0.404851130998577,-0.404851130998577,0.9998825169201684,0.00011151836507402612
-0.40378185958979884,-0.40378185958979884,1.0000918085835244,0.00011161989714832287
-0.4017233565093193,-0.4017233565093193,1.0001708435254204,0.0001116390004351924
-0.3999305808094505,-0.3999305808094505,1.00015799593842,0.0001162199518775482
-0.3984986292569374,-0.3984986292569374,0.9999560618806507,0.00011150544077166858
-0.396865945647005,-0.396865945647005,0.9999088083798288,0.00011158727246614215
-0.39459102431792414,-0.39459102431792414,1.0000290807634387,0.00011242944346572689
-0.3920508270202845,-0.3920508270202845,0.9999397750670538,0.00011162966503323265
-0.3903329661967291,-0.3903329661967291,0.999919586727206,0.00011155462389881036
-0.38886623285361566,-0.38886623285361566,1.0000539641339918,0.0001116767464998039
-0.3866117718258465,-0.3866117718258465,1.0001380482717506,0.00011163397130774147
-0.3849674784767558,-0.3849674784767558,0.9999779576118314,0.00011151484986058611
-0.38390423382952577,-0.38390423382952577,1.0001178172684182,0.00011159307662923291
-0.38179315943925757,-0.38179315943925757,1.000052586181924,0.00011165554872884841
-0.3797646293853177,-0.3797646293853177,0.9999379914023792,0.00011493746190966503
-0.3784091783418262,-0.3784091783418262,0.9999988037517789,0.00011150367400793065
-0.3767471494233178,-0.3767471494233178,0.9999081293166661,0.00011163990963906712
-0.37466854286540185,-0.37466854286540185,0.999817550283183,0.00011166420256038976
-0.37185551925431354,-0.37185551925431354,1.0000367648536224,0.00011165154440711966
-0.37021947068787997,-0.37021947068787997,0.999887765282676,0.00011157522189138263
-0.3686028654869006,-0.3686028654869006,1.0000053190822773,0.00011167849876493813
-0.36627078840829197,-0.36627078840829197,0.9999577421776598,0.00011162808147696773
-0.3646699501739931,-0.3646699501739931,0.9999606725491823,0.00011137358107220476
-0.36331821697385747,-0.36331821697385747,0.999958688534029,0.00011162111861344954
-0.36102238703897455,-0.36102238703897455,0.9999734205444873,0.00011412903096663391
-0.3590558574811439,-0.3590558574811439,1.000142604141772,0.00011154065470029015
-0.3572827621588658,-0.3572827621588658,1.0001259514262233,0.00011164669041572647
-0.35548668452101995,-0.35548668452101995,1.0000085681572788,0.00011165947277411547
-0.3522929244296392,-0.3522929244296392,0.9998742805150223,0.00011162986672727158
-0.35090186869638273,-0.35090186869638273,1.0000812151639296,0.00011223265828868428
-0.34980076560605083,-0.34980076560605083,0.9998780583257032,0.00011159042650965077
-0.3477286558649212,-0.3477286558649212,1.0000060877537733,0.00011161229440944931
-0.3456991879022098,-0.3456991879022098,1.0001134223110102,0.0001114467055146652
-0.3443992429485661,-0.3443992429485661,0.9999667583664678,0.0001116098477382693
-0.34273738784904706,-0.34273738784904706,0.9999263870371266,0.00011178019856447377
-0.34113372872379844,-0.34113372872379844,0.999768075657455,0.00011349042335697696
-0.33898206288722577,-0.33898206288722577,1.000115249929268,0.00011154971607006876
-0.3369937903189566,-0.3369937903189566,0.9998926964147195,0.00011161347218756868
-0.3349068840390828,-0.3349068840390828,0.9999410443039791,0.00011168406658130794
-0.33211244686608554,-0.33211244686608554,0.9998419107292384,0.00011207626788905644
-0.33071262728553846,-0.33071262728553846,0.9999067727277833,0.0001115888547641001
-0.32921140596299664,-0.32921140596299664,1.0000043281022,0.0001116500424186857
-0.3270566678933392,-0.3270566678933392,1.0002956726093055,0.00012168337528252974
-0.325459170772956,-0.325459170772956,0.9999310384146087,0.00011146257399553694
-0.32427236446892493,-0.32427236446892493,0.9999127450872013,0.00011161818232323915
-0.32243705523214883,-0.32243705523214883,0.999906247704395,0.00011161048115495401
-0.31953314780985237,-0.31953314780985237,0.9999595190903025,0.00011295220453701384
-0.3171173518006981,-0.3171173518006981,1.000049958675687,0.00011162894843190557
-0.31527449987988804,-0.31527449987988804,0.9999751267401729,0.000111649828399544
-0.31258375234465346,-0.31258375234465346,0.9999555967423854,0.0001116163923043085
-0.3111573366819357,-0.3111573366819357,1.0001186972489589,0.00011158786552824613
-0.31004220496106427,-0.31004220496106427,1.00003413292479,0.00011162296171676812
-0.3078398526056844,-0.3078398526056844,1.0000117645009525,0.00011162773257493745
-0.30621308646004763,-0.30621308646004763,0.9998369954789373,0.00011799930781310623
-0.30483715235750425,-0.30483715235750425,0.9998850638024734,0.00011147278032777326
-0.3029741519363597,-0.3029741519363597,1.000005083960596,0.00011162219798979339
-0.30051462205519786,-0.30051462205519786,0.9999885490451005,0.00011268299832268155
-0.2982885697412712,-0.2982885697412712,0.9997640828582993,0.00011162417665605768
-0.2966553921549348,-0.2966553921549348,0.9998704030539225,0.00011155256774768246
-0.29495414456469005,-0.29495414456469005,0.9997949470956862,0.00011163329584357108
-0.29270603358381775,-0.29270603358381775,0.9997717621234052,0.00011160560988370864
-0.29127940484904685,-0.29127940484904685,1.0000343052435234,0.00011150462884306624
-0.2901631545813871,-0.2901631545813871,0.9999738485535682,0.00011159976130025585
-0.2879619876417564,-0.2879619876417564,0.9997850748416216,0.00011162070582386462
-0.2863285746621841,-0.2863285746621841,1.0000823006136488,0.0001160261663521214
-0.28496344272425633,-0.28496344272425633,0.9999768852173847,0.00011152318909852675
-0.28309880309097935,-0.28309880309097935,0.9999864544584076,0.00011161925760287278
-0.2810243078616622,-0.2810243078616622,0.9998423809602128,0.00011243552405441586
-0.27873092372028624,-0.27873092372028624,1.000115545739345,0.0001116517076413993
-0.27701366837209207,-0.27701366837209207,1.0000059611347871,0.0001115650275820231
-0.2755456614664581,-0.2755456614664581,1.000030668059552,0.00011166244914303823
-0.2732920779475535,-0.2732920779475535,1.0000312623551413,0.00011162226331249295
-0.27164708064301524,-0.27164708064301524,1.000047867113025,0.00011154727050565108
-0.27058450803669987,-0.27058450803669987,0.9999537050615561,0.00011158661914224005
-0.2684731588757131,-0.2684731588757131,0.9999030884951239,0.00011163313789606777
-0.2664441415807232,-0.2664441415807232,1.0000925055453636,0.00011483088410632101
-0.2650899045263941,-0.2650899045263941,1.0000260948970188,0.00011150562088142597
-0.2634275020463974,-0.2634275020463974,1.0000076952990382,0.00011162103736397886
-0.2613484343950404,-0.2613484343950404,0.9998623514353223,0.00011164061631511321
-0.25853547370279556,-0.25853547370279556,0.9998805191194029,0.00011159825114335493
-0.2568997278722236,-0.2568997278722236,1.000031662871999,0.00011155605375015117
-0.25528225732414284,-0.25528225732414284,1.0000591414996776,0.00011166969030181682
-0.25295108693680957,-0.25295108693680957,0.9999150983389505,0.0001116054397689285
-0.2513507328949345,-0.2513507328949345,1.0000063508761816,0.00011137818599728324
-0.2499982896610163,-0.2499982896610163,0.9998527919075169,0.00011160776416458207
-0.24770142021152425,-0.24770142021152425,0.9999517241899586,0.00011405939743425583
-0.24573661193353474,-0.24573661193353474,0.9999020603625766,0.00011152562117200838
-0.2439628418374923,-0.2439628418374923,0.9999064161711397,0.00011162288690164919
-0.24216649094232706,-0.24216649094232706,0.9998807435889605,0.00011166587894077687
-0.2389730645889358,-0.2389730645889358,1.0000081618741756,0.00011163934455249494
-0.23749466193257832,-0.23749466193257832,0.9997633779290152,0.00011217733784674474
-0.23614723950377084,-0.23614723950377084,0.999881365523627,0.000111598797287646
-0.23401445648123625,-0.23401445648123625,1.0000822307783068,0.000111631542227233
-0.23201897225662832,-0.23201897225662832,0.9999719890828416,0.00011143047377600223
-0.2308297960436903,-0.2308297960436903,0.999996943687918,0.00011161767165122352
-0.22910369140736292,-0.22910369140736292,1.0000593912719082,0.00011174956998592648
-0.2273905103938887,-0.2273905103938887,0.9999593752223298,0.00011345209706861187
-0.22526980458787876,-0.22526980458787876,1.0000192328873705,0.00011155457165819365
-0.22328979617595907,-0.22328979617595907,0.9999554224511493,0.00011162329230493092
-0.22093685049476336,-0.22093685049476336,0.999969926052167,0.00011166710789045226
-0.21819098316627789,-0.21819098316627789,1.000037765763071,0.000112064191570213
-0.21712856693411595,-0.21712856693411595,0.9999747448634976,0.00011115899255378676
-0.21551161638853955,-0.21551161638853955,1.000001148196172,0.00011165807472447095
-0.21371951386608998,-0.21371951386608998,1.0000136606183512,0.00012110601225826128
-0.2121392036373436,-0.2121392036373436,1.0000311729495075,0.00011146778891957092
-0.21095269521247245,-0.21095269521247245,0.9999163599103158,0.00011161207006993819
-0.2091172340005869,-0.2091172340005869,1.0000490214943472,0.00011163030583198311
-0.20621333052695262,-0.20621333052695262,1.0000908725441588,0.00011288584186398953
-0.20379775731926203,-0.20379775731926203,1.0000424340056873,0.00011163216083426929
-0.20195374034592534,-0.20195374034592534,0.9999724013008541,0.0001116386022828547
-0.19926399859105004,-0.19926399859105004,0.9999965196705831,0.00011162644998177996
-0.1978375604339817,-0.1978375604339817,0.9998881868126153,0.00011157036393878994
-0.19672230318101355,-0.19672230318101355,1.0000947956462678,0.00011160231136253807
-0.19452008213411318,-0.19452008213411318,0.9999137280084364,0.00011163412783210813
-0.19289258193966816,-0.19289258193966816,0.9999108137867028,0.0001177198546995278
-0.19151784327914356,-0.19151784327914356,1.0000869565493957,0.00011147876541291678
-0.18965466079462204,-0.18965466079462204,0.9999838000586623,0.00011161062595813718
-0.18719335583009525,-0.18719335583009525,0.9998903363131648,0.00011264284868487307
-0.1849692512441834,-0.1849692512441834,0.9999560696763078,0.00011161274850501066
-0.1833356165116129,-0.1833356165116129,0.9999974911615002,0.00011154282050529001
-0.18144836240317092,-0.18144836240317092,1.0000179697992335,0.0001116558021417407
-0.17906629118151612,-0.17906629118151612,0.9996452922304169,0.0001118514509432644
-0.1777777014329331,-0.1777777014329331,1.0003480264784308,0.00011128448139415325
-0.17643730992131168,-0.17643730992131168,1.000255938986932,0.00011162204272203162
-0.17438717228069436,-0.17438717228069436,0.9999505029450804,0.0001298033512149985
-0.17300807743522456,-0.17300807743522456,1.0000336624956294,0.00011587533267220448
-0.17164415158404153,-0.17164415158404153,0.9999839694783803,0.00011150766536952258
-0.16977933018279145,-0.16977933018279145,0.9999062144797138,0.00011160984926178628
-0.16770296047907324,-0.16770296047907324,0.999847010494404,0.00011239795382783009
-0.16541102345654507,-0.16541102345654507,0.9999983251506906,0.00011162880209431846
-0.16369437236717205,-0.16369437236717205,0.9999485325481329,0.00011155537679536373
-0.1622250900734798,-0.1622250900734798,1.0000662106089009,0.0001116721240530066
-0.15997238650452344,-0.15997238650452344,0.9999867548378528,0.00011162717408711367
-0.15832668372531772,-0.15832668372531772,1.0000078226751825,0.00011151212599324859
-0.1572647843750019,-0.1572647843750019,0.9999812059609227,0.00011161379992751861
-0.1551531604367483,-0.1551531604367483,1.000094978033848,0.00011164720550665168
-0.1531236543916748,-0.1531236543916748,0.9999959695541918,0.00011472750281028164
-0.15170240385195938,-0.15170240385195938,1.0000722919288907,0.00011152240484579249
-0.14972438511395011,-0.14972438511395011,0.9998923686819572,0.00011162332300416302
-0.1473804716777522,-0.1473804716777522,1.0002572836698653,0.00011168266974202203
-0.14485813860883354,-0.14485813860883354,1.0000482961132144,0.00011163106117791151
-0.14333455392625183,-0.14333455392625183,1.000029609141387,0.00011156812447688465
-0.14140668495965655,-0.14140668495965655,1.0000428781547446,0.00011164241075732321
-0.13930578245199285,-0.13930578245199285,0.999947750308247,0.00011161465912491149
-0.1378205667489965,-0.1378205667489965,0.9999721216321882,0.00011136246310891
-0.13624281068332494,-0.13624281068332494,0.9999504653473886,0.00011163842070041215
-0.1339571511191025,-0.1339571511191025,1.0000360635603192,0.0001139708699951527
-0.1321162125292176,-0.1321162125292176,0.9998089695689885,0.00011154436049509055
-0.1302311337873107,-0.1302311337873107,1.000071922302358,0.00011163414215180717
-0.12814745426585433,-0.12814745426585433,0.999938555386261,0.00011167561413132647
-0.12535805054940283,-0.12535805054940283,0.9999622921180009,0.0001121774198417032
-0.12394739079900319,-0.12394739079900319,1.0001370942415222,0.0001115883380393275
-0.1224551260471344,-0.1224551260471344,0.9999972648085249,0.00011163915350502585
-0.12021828757715411,-0.12021828757715411,0.9999856385054032,0.0001116102774271193
-0.11843075037540984,-0.11843075037540984,0.9997946644290534,0.00011143069837993435
-0.1173926990457403,-0.1173926990457403,0.9999777532266956,0.00011160614111590211
-0.11578383491578279,-0.11578383491578279,0.9998737225212612,0.00011173808123732868
-0.11406968642040738,-0.11406968642040738,1.0001102499553802,0.0001133960341908353
-0.11158986357040704,-0.11158986357040704,0.9998977684970887,0.00011161660932854896
-0.10970286507217679,-0.10970286507217679,1.000136320434687,0.0001116439930553415
-0.10733776516135549,-0.10733776516135549,1.0001505937869841,0.00011156975487200083
-0.10487033001627424,-0.10487033001627424,0.9999971425133808,0.00011205945531667426
-0.10380932442567428,-0.10380932442567428,0.9999927154884587,0.00011113080952044501
-0.10219104226562195,-0.10219104226562195,0.9999432445644949,0.00011165981206326826
-0.10039923792064656,-0.10039923792064656,0.9997618682174305,0.00012055705493042503
-0.09881923893699422,-0.09881923893699422,0.9999388237608162,0.00011145566769736191
-0.09763302625797224,-0.09763302625797224,1.0001225338234463,0.00011160961069575276
-0.09579741397610633,-0.09579741397610633,1.0000544663309339,0.00011162216530804324
-0.09289351354818791,-0.09289351354818791,0.9999694841907495,0.0001128588081418883
-0.09047816434758715,-0.09047816434758715,1.0000872361222304,0.00011163193601945562
-0.08863298385040252,-0.08863298385040252,1.000012054497248,0.00011163523670014901
-0.0859442445304012,-0.0859442445304012,1.0000735274444832,0.00011163251235157797
-0.08451778509625,-0.08451778509625,0.9999191650371276,0.00011156017002639743
-0.08340240261532017,-0.08340240261532017,1.0000195576673752,0.00011159794247109992
-0.0812003131803067,-0.0812003131803067,1.0000942053936455,0.00011164012750042625
-0.07957207742219907,-0.07957207742219907,1.0001621976678612,0.0001174797585491496
-0.07819853512119153,-0.07819853512119153,1.0000712054082972,0.00011148561939673947
-0.07633517238864443,-0.07633517238864443,1.0001446288041196,0.00011160225745742946
-0.0738720902147179,-0.0738720902147179,1.000114722947391,0.00011262757865337498
-0.07164993639380554,-0.07164993639380554,1.0001061414871475,0.00011163181384597522
-0.07001584238823852,-0.07001584238823852,1.0001706275825009,0.00011157111326247833
-0.06812827429675963,-0.06812827429675963,0.9997030412418961,0.00011165589806668627
-0.06574559517030139,-0.06574559517030139,0.9997091130095802,0.00011186660038867255
-0.06445845193593414,-0.06445845193593414,1.0000218807932666,0.00011129046980613558
-0.0631173534260597,-0.0631173534260597,0.9999658391581379,0.00011159016687245277
-0.06083700348972343,-0.06083700348972343,0.9999598312722396,0.00011574012334004177
-0.059060162190144185,-0.059060162190144185,1.0000450645832466,0.00011151953046104179
-0.057784321498184,-0.057784321498184,1.0002009076094425,0.000111605550037994
-0.05592939264024608,-0.05592939264024608,1.0000722350756441,0.00011163511493014991
-0.0536055691060028,-0.0536055691060028,0.9999404510468229,0.00011231298311637457
-0.05141893524050829,-0.05141893524050829,0.9999929527115183,0.00011165536167334343
