time,time,flux,flux_err
-0.4999510332214413,-0.4999510332214413,0.9999863104649667,4.213326544197211e-05
-0.4997915095977078,-0.4997915095977078,0.9999410696612699,4.1888168449507296e-05
-0.499651625349361,-0.499651625349361,1.0000169985539187,4.179087871649395e-05
-0.49958165094431023,-0.49958165094431023,1.0000651527816995,4.265956538711458e-05
-0.49943935921328375,-0.49943935921328375,1.0000154783516235,4.2692090867039964e-05
-0.49921050741759243,-0.49921050741759243,0.9999263521917102,4.209369538271298e-05
-0.49914612654029045,-0.49914612654029045,0.9999731653662695,4.25860807966585e-05
-0.49905700773524586,-0.49905700773524586,1.00002343728062,4.204003526443837e-05
-0.4989483451754495,-0.4989483451754495,0.9999839290167628,4.272007807780454e-05
-0.4987837054482952,-0.4987837054482952,1.0000161280655067,4.219107407374824e-05
-0.4986012761095481,-0.4986012761095481,0.9999632478623198,4.285797920600095e-05
-0.498479161447176,-0.498479161447176,0.9999738636618212,4.201576115654331e-05
-0.4984287011604465,-0.4984287011604465,1.0000397765821418,4.1980328804413575e-05
-0.4983497806133528,-0.4983497806133528,0.9999039911724535,4.289960278895102e-05
-0.4981312287287437,-0.4981312287287437,1.0000492069242868,4.241338016819578e-05
-0.4979979723124416,-0.4979979723124416,1.000060687083827,4.2455628128650756e-05
-0.4979408596998837,-0.4979408596998837,1.0000574669916649,4.224442817859235e-05
-0.4978498547221534,-0.4978498547221534,1.0000109521339229,4.2199144597050696e-05
-0.4977479351815418,-0.4977479351815418,1.0000613789969202,4.251835949868479e-05
-0.4975995494743984,-0.4975995494743984,1.000040404668044,4.2206282886806586e-05
-0.49746014171178105,-0.49746014171178105,1.0000176965867158,4.443350247679788e-05
-0.4973025093851902,-0.4973025093851902,0.9999667648363353,4.2005734422931556e-05
-0.49722596663123114,-0.49722596663123114,0.9999296888615931,4.242325241811362e-05
-0.4970880725093593,-0.4970880725093593,1.0000088972564107,4.2364411933229345e-05
-0.49691095499874793,-0.49691095499874793,1.0000466679322215,4.2707481678960555e-05
-0.4968191469706653,-0.4968191469706653,0.9999474393874657,4.217605472825507e-05
-0.49675095042039175,-0.49675095042039175,1.0000189068182124,4.21745000745435e-05
-0.4966855285631027,-0.4966855285631027,1.000020202338441,4.208887024659858e-05
-0.4966034278324514,-0.4966034278324514,1.000019801671549,4.2319987579094606e-05
-0.49647393398772693,-0.49647393398772693,1.0000482196342477,4.2342616467396e-05
-0.4963246889128641,-0.4963246889128641,0.9999867111456432,4.197766050011317e-05
-0.49617100123505226,-0.49617100123505226,1.000020837123905,4.5505726454370216e-05
-0.49606947696593123,-0.49606947696593123,1.000038496842645,4.2162994614298874e-05
-0.4959372097480809,-0.4959372097480809,0.9999856990670948,4.3011494886959536e-05
-0.49575664110452633,-0.49575664110452633,0.9999376991273902,4.2430060962312074e-05
-0.4956550113776757,-0.4956550113776757,0.9999740556082282,4.267554836069852e-05
-0.4955691735915025,-0.4955691735915025,0.9999614729454542,4.2257651672136005e-05
-0.4955310939476476,-0.4955310939476476,1.0000355933952079,4.198966678885321e-05
-0.49542980444821294,-0.49542980444821294,1.000021985864023,4.222848527371641e-05
-0.4953507211554097,-0.4953507211554097,0.9999493761459817,4.20882435271275e-05
-0.49521924148575636,-0.49521924148575636,0.9999357970180199,4.206646912772685e-05
-0.49507621760567416,-0.49507621760567416,1.0000338687109382,4.2019997986782514e-05
-0.49495241299300685,-0.49495241299300685,0.9999739824372222,4.232345069590803e-05
-0.4948620941628178,-0.4948620941628178,0.999882271878915,4.2432299095237966e-05
-0.4947606679808814,-0.4947606679808814,0.999954820665646,4.210154565436436e-05
-0.49461001234376456,-0.49461001234376456,1.000038236523814,4.210450700777668e-05
-0.4945042189079686,-0.4945042189079686,0.9999897532097,4.224200284634842e-05
-0.4944193703748169,-0.4944193703748169,1.0000080475237805,4.228775187458153e-05
-0.4943614181072917,-0.4943614181072917,1.0000984404235171,4.239645426412315e-05
-0.49426747111065195,-0.49426747111065195,1.0000295721232821,4.233576520419225e-05
-0.4941788472504413,-0.4941788472504413,0.9999786589126888,4.232500327504601e-05
-0.4940212512752623,-0.4940212512752623,0.9999602559468517,4.1924137251339235e-05
-0.49389560340641764,-0.49389560340641764,1.0000091201270904,4.185740825471979e-05
-0.4937923698766099,-0.4937923698766099,0.9998363494754254,4.2371622614159276e-05
-0.49369105354053316,-0.49369105354053316,1.0000952695688252,4.2484075734180946e-05
-0.49355958440719405,-0.49355958440719405,0.999970285587219,4.189340631538414e-05
-0.49338765561697073,-0.49338765561697073,1.0000740349146544,4.2734928567635836e-05
-0.4933032336382894,-0.4933032336382894,0.9998950077345171,4.172804700299291e-05
-0.49323716196158784,-0.49323716196158784,1.0000737857652626,4.216317911783395e-05
-0.4931807138367731,-0.4931807138367731,0.9999315957917378,4.246043330335916e-05
-0.4930696222851111,-0.4930696222851111,0.9999964533949045,4.2469422657864805e-05
-0.4929347220393538,-0.4929347220393538,0.9999676916231952,4.2137501436437985e-05
-0.49284278709528734,-0.49284278709528734,0.9999475299064986,4.193562422404198e-05
-0.492759771009878,-0.492759771009878,1.000001561161217,4.193394782294577e-05
-0.4926669006330485,-0.4926669006330485,1.0000783255135564,4.212828926867728e-05
-0.49257349945182793,-0.49257349945182793,1.0000109913453454,4.230941146336329e-05
-0.49246671431246797,-0.49246671431246797,1.0000210444169713,4.2481255340789896e-05
-0.49234293785630145,-0.49234293785630145,0.9999172657889026,4.2434866404030856e-05
-0.49214605095185104,-0.49214605095185104,0.9999343656131312,4.181337756777573e-05
-0.492088309693645,-0.492088309693645,1.0000047630087359,4.174532336937686e-05
-0.4920510250063671,-0.4920510250063671,1.0000781830044845,4.222079112163641e-05
-0.4919417800869269,-0.4919417800869269,1.000011010275788,4.215796843524387e-05
-0.49183772352698724,-0.49183772352698724,0.9999883990200218,4.25118647274469e-05
-0.49173075774815517,-0.49173075774815517,0.9999646744677921,4.207674884550803e-05
-0.49162489117370567,-0.49162489117370567,1.0000341924421403,4.199696546904262e-05
-0.49154762023099463,-0.49154762023099463,1.0000010367133667,4.185841554339099e-05
-0.491454585288011,-0.491454585288011,0.9999471725956965,4.221702709024129e-05
-0.4913165872094396,-0.4913165872094396,1.000030742039312,4.250916289622919e-05
-0.49121934921931826,-0.49121934921931826,1.0000176312398028,4.216864656339097e-05
-0.4911143897836155,-0.4911143897836155,0.9999626892029362,4.224975893668243e-05
-0.4909457476460375,-0.4909457476460375,1.0000722097408552,4.2138153722293096e-05
-0.49089669070599484,-0.49089669070599484,0.9999655392519508,4.2313593522490534e-05
-0.4908397138133296,-0.4908397138133296,1.0000315303923022,4.190645913982058e-05
-0.49072375139512586,-0.49072375139512586,1.000069241373168,4.262211818683785e-05
-0.49058338824252135,-0.49058338824252135,1.0000645522506426,4.184527778627847e-05
-0.49049160742215464,-0.49049160742215464,0.9999729814579364,4.1722072332122596e-05
-0.4904122992673365,-0.4904122992673365,1.0000159258227022,4.187126773586302e-05
-0.49032579503400486,-0.49032579503400486,0.9999904224277316,4.216423664790139e-05
-0.4902497276038048,-0.4902497276038048,1.0000025329867188,4.211770046793785e-05
-0.4901170521043241,-0.4901170521043241,1.000063984258916,4.2345304513342834e-05
-0.49002762795134913,-0.49002762795134913,1.0000118745195483,4.2097649776175e-05
-0.48996477327236787,-0.48996477327236787,0.9999977805778913,4.242009710357168e-05
-0.4897905143458047,-0.4897905143458047,1.0000466134469628,4.217593238298197e-05
-0.4897101372902398,-0.4897101372902398,1.0000007455182363,4.2174625409190574e-05
-0.4896272915902955,-0.4896272915902955,1.000003700708255,4.2098485586497196e-05
-0.4894992358793388,-0.4894992358793388,0.9999686537129342,4.239427540260948e-05
-0.48940031318416005,-0.48940031318416005,0.9999056289036625,4.1867715325326226e-05
-0.48930825015559093,-0.48930825015559093,1.0000469364812175,4.19705251451502e-05
-0.48919850749152827,-0.48919850749152827,1.0000823515637203,4.2234305365265615e-05
-0.4891105573726236,-0.4891105573726236,1.0000050047223883,4.174813320541983e-05
-0.4890185605829174,-0.4890185605829174,0.9999575816025679,4.19900215850447e-05
-0.4888907431937696,-0.4888907431937696,0.9999818364937354,4.2307570995463246e-05
-0.4887943716312293,-0.4887943716312293,0.9999463016276756,4.2462060838206395e-05
-0.4886598388700804,-0.4886598388700804,0.9999936186152345,4.185389982194785e-05
-0.4885520679446927,-0.4885520679446927,0.9999897975065671,4.2459764958245125e-05
-0.4884533513322822,-0.4884533513322822,1.000032905794232,4.2101036079580535e-05
-0.48834213018926675,-0.48834213018926675,1.0000031052011813,4.2604872815623935e-05
-0.488256969377835,-0.488256969377835,1.000099538591935,4.172906856996068e-05
-0.4881278532273427,-0.4881278532273427,0.9999601502091832,4.208892126160829e-05
-0.48802486896383923,-0.48802486896383923,1.0000416471805746,4.203270240238793e-05
-0.487932699459634,-0.487932699459634,1.0000457984991582,4.2095241370467405e-05
-0.4878389264835278,-0.4878389264835278,1.0000128676196218,4.189154317308493e-05
-0.4877012177013967,-0.4877012177013967,1.0000317015474054,4.28244623237959e-05
-0.4875783960604167,-0.4875783960604167,1.0000280309696692,4.180896061308099e-05
-0.4874736827077868,-0.4874736827077868,1.000005436153121,4.1954062454758994e-05
-0.4873591414558177,-0.4873591414558177,1.0000028236633374,4.1981638135521106e-05
-0.48725875494419596,-0.48725875494419596,0.9999281246049838,4.19522977800804e-05
-0.48717700185297874,-0.48717700185297874,0.9999991424079943,4.257876862702508e-05
-0.48709078951505946,-0.48709078951505946,1.0000293349911096,4.170967431507462e-05
-0.48697741630967356,-0.48697741630967356,1.0000334929852785,4.213253966802704e-05
-0.48685929349521756,-0.48685929349521756,1.000068123679019,4.2073153625331466e-05
-0.48674619016019277,-0.48674619016019277,1.0000261185276076,4.199170263694011e-05
-0.48665142400204786,-0.48665142400204786,1.0000121856101907,4.188699814697629e-05
-0.48650682443912957,-0.48650682443912957,0.9999933689602546,4.232649017210491e-05
-0.48639132324897216,-0.48639132324897216,0.9999342854889954,4.189431772045702e-05
-0.48633169106542484,-0.48633169106542484,1.000067913930075,4.19021702548471e-05
-0.4862293386519013,-0.4862293386519013,1.0000476487003749,4.18178450291097e-05
-0.4860722259072645,-0.4860722259072645,0.9999306033542557,4.219378520386743e-05
-0.4859882626216859,-0.4859882626216859,0.9999682750897912,4.247463644505376e-05
-0.485870529699605,-0.485870529699605,0.9999704579129152,4.187129319762599e-05
-0.4857125468566664,-0.4857125468566664,1.0000564461290191,4.24953074140579e-05
-0.48553538127744106,-0.48553538127744106,0.99999185432149,4.1922158473754806e-05
-0.4854365239058097,-0.4854365239058097,1.000004036109098,4.18041046038593e-05
-0.4852754585517687,-0.4852754585517687,1.000085923586234,4.260149700726897e-05
-0.48517896697594554,-0.48517896697594554,1.0000306194413842,4.212142901483636e-05
-0.48510655623686033,-0.48510655623686033,1.000030323617287,4.18328871876124e-05
-0.4849132056027884,-0.4849132056027884,0.999994697758682,4.217950190979505e-05
-0.484856634150492,-0.484856634150492,0.9998784178481139,4.217152633741433e-05
-0.4847585584037006,-0.4847585584037006,1.000034329720872,4.1888971168674535e-05
-0.48460885125314235,-0.48460885125314235,0.9999883884484397,4.2101504091471394e-05
-0.48440787144136266,-0.48440787144136266,1.0000502855972866,4.201111583327259e-05
-0.48428086232670464,-0.48428086232670464,1.0000165477560454,4.191375984678625e-05
-0.4841434100075276,-0.4841434100075276,1.0000064604267693,4.243026191104228e-05
-0.4840159829269396,-0.4840159829269396,1.0000521203600319,4.229787660758929e-05
-0.4839423098950647,-0.4839423098950647,0.9999632990002494,4.164079929500414e-05
-0.48376562429984915,-0.48376562429984915,0.9999714667620709,4.24414986396742e-05
-0.48366306903699297,-0.48366306903699297,1.0000064614155906,4.18215419390788e-05
-0.4835252946191758,-0.4835252946191758,0.9999926662336337,4.2215811218084834e-05
-0.4834157792502083,-0.4834157792502083,1.000029195714698,4.177123107919073e-05
-0.48329621448283433,-0.48329621448283433,1.0000610671936525,4.2282589582246e-05
-0.48312294426796143,-0.48312294426796143,1.0000598816788375,4.212543387251285e-05
-0.48300082785935955,-0.48300082785935955,1.0000546765914442,4.159905280514974e-05
-0.48291217702135325,-0.48291217702135325,1.000033213824929,4.269014315140119e-05
-0.4828063603519695,-0.4828063603519695,1.0000272583422936,4.231399534775915e-05
-0.48270818121673076,-0.48270818121673076,0.9999561852515957,4.157070257770482e-05
-0.48257588462147394,-0.48257588462147394,1.0000042989440214,4.250108990739831e-05
-0.4824536202613672,-0.4824536202613672,1.0000547414269227,4.1850557885436856e-05
-0.48232914755426465,-0.48232914755426465,1.0000485421376442,4.2308930673210944e-05
-0.48218874794256406,-0.48218874794256406,1.0000592514173428,4.20517909857416e-05
-0.4820877907899558,-0.4820877907899558,0.9999969660409226,4.202358831866041e-05
-0.4819389891672472,-0.4819389891672472,1.000016097482657,4.214325178093133e-05
-0.4818146821504342,-0.4818146821504342,1.00003357580601,4.20815598510956e-05
-0.48170066149396007,-0.48170066149396007,1.0000199523875035,4.277419903401029e-05
-0.48160720977393795,-0.48160720977393795,1.000020646885749,4.228546754812353e-05
-0.48152094331526313,-0.48152094331526313,1.0001093844374749,4.165412253306267e-05
-0.4814295852185751,-0.4814295852185751,0.9999827248878217,4.254317590266663e-05
-0.48129549162331386,-0.48129549162331386,1.000001731928433,4.2278197465020576e-05
-0.4811351726486464,-0.4811351726486464,1.0000288454630517,4.242805702601596e-05
-0.4809800543778692,-0.4809800543778692,1.00003407592837,4.253753120352e-05
-0.4807712917099707,-0.4807712917099707,0.9999795781716857,4.2000974641811056e-05
-0.48064867651555687,-0.48064867651555687,1.0000434728420864,4.167878640778536e-05
-0.48057721212026083,-0.48057721212026083,0.9999979720595377,4.272829565431779e-05
-0.48043496723403223,-0.48043496723403223,1.000066014938468,4.232188915900992e-05
-0.4803553334561002,-0.4803553334561002,0.999947919632438,4.162516807519284e-05
-0.4802763768057048,-0.4802763768057048,0.9999813139617576,4.2112214232752726e-05
-0.4801364157690841,-0.4801364157690841,1.0000803521569663,4.1956774264401924e-05
-0.4800081809458788,-0.4800081809458788,0.9999732701840106,4.227743907323103e-05
-0.47990832111099735,-0.47990832111099735,1.0000464772511422,4.2666064340480116e-05
-0.479770723816182,-0.479770723816182,1.0000302735694706,4.2478954637219185e-05
-0.47956758552682005,-0.47956758552682005,1.000015384803941,4.2034111614799344e-05
-0.4794579002504179,-0.4794579002504179,1.0000173098596665,4.2163556856937206e-05
-0.47940281174451227,-0.47940281174451227,1.0000631262607058,4.223953539583915e-05
-0.47927163514104903,-0.47927163514104903,1.0001204850204368,4.203250856027263e-05
-0.4791741734734387,-0.4791741734734387,0.9999915235520559,4.186077404161902e-05
-0.47909808609692844,-0.47909808609692844,1.0000965392796715,4.215456216303177e-05
-0.47901377351372504,-0.47901377351372504,0.9999722158689869,4.210969912525103e-05
-0.4788471243111417,-0.4788471243111417,1.0000498354608613,4.249354779476093e-05
-0.47872177945027944,-0.47872177945027944,1.000090779141716,4.1787511591919406e-05
-0.47861575697315856,-0.47861575697315856,1.0000127550466904,4.257589286711036e-05
-0.4784700608237472,-0.4784700608237472,0.9999842202279623,4.201704988680001e-05
-0.4783473586969194,-0.4783473586969194,1.0000201158900408,4.175687990486517e-05
-0.47827432252306606,-0.47827432252306606,0.9999406705917246,4.242192081357401e-05
-0.47821546878039956,-0.47821546878039956,0.9999856499600155,4.1852588569320755e-05
-0.478088812551141,-0.478088812551141,0.9998868870128806,4.228683125156233e-05
-0.4779524788042181,-0.4779524788042181,0.999957511173354,4.204814551796838e-05
-0.4778318034725089,-0.4778318034725089,1.0000507460997279,4.231676811653028e-05
-0.4776674187007302,-0.4776674187007302,1.0000044819569442,4.23282432951965e-05
-0.4775434347575356,-0.4775434347575356,0.9999232849938153,4.1907444124309564e-05
-0.4774038957119046,-0.4774038957119046,1.0000251798478312,4.2880368552741205e-05
-0.47724552412473714,-0.47724552412473714,0.9999606912390832,4.154545457246952e-05
-0.4771479910777998,-0.4771479910777998,1.000136805193757,4.2174111139301734e-05
-0.47708097243666997,-0.47708097243666997,0.9999697669130854,4.178061195607941e-05
-0.4769989820117189,-0.4769989820117189,0.9999960502644033,4.199675670286426e-05
-0.47687161620560803,-0.47687161620560803,0.9999562197318704,4.206584607767642e-05
-0.476743838639959,-0.476743838639959,0.9999584481642458,4.203985145647594e-05
-0.4765624044732249,-0.4765624044732249,1.0000095097424548,4.2431367704130654e-05
-0.4763610588728625,-0.4763610588728625,0.9999828670332164,4.222655841498082e-05
-0.47625993624387775,-0.47625993624387775,0.999994485208825,4.283150318097746e-05
-0.47613403936120446,-0.47613403936120446,1.0000202650064054,4.211764362527103e-05
-0.47601193064037944,-0.47601193064037944,0.9999690185746519,4.1870666631981676e-05
-0.47591208407247904,-0.47591208407247904,1.0000015877687136,4.1852310748275505e-05
-0.47583216320635985,-0.47583216320635985,1.0000092332665438,4.208871109337858e-05
-0.47577294801958486,-0.47577294801958486,1.0000774436658528,4.194522944235038e-05
-0.47563308411045,-0.47563308411045,1.0000734696304345,4.236264301071831e-05
-0.47542073830627485,-0.47542073830627485,0.9999599563642432,4.2028636829480254e-05
-0.4752392441034317,-0.4752392441034317,1.0000211967014476,4.199220100020799e-05
-0.47515010804272606,-0.47515010804272606,0.9999418004411161,4.249159015038139e-05
-0.47509699609145173,-0.47509699609145173,1.0000052459997673,4.2233605387400136e-05
-0.47496963327212144,-0.47496963327212144,1.0000956867230424,4.2929502308516886e-05
-0.4748360593046527,-0.4748360593046527,1.0000122187360714,4.1951313405655295e-05
-0.4747199121375161,-0.4747199121375161,0.9999838384702209,4.154241791693217e-05
-0.4746478498323995,-0.4746478498323995,0.9999500984422717,4.2392923506697374e-05
-0.47458935518880024,-0.47458935518880024,1.0000094347924553,4.1991572679629275e-05
-0.4744815371210279,-0.4744815371210279,0.9999676999599426,4.24416551175307e-05
-0.47433993872036806,-0.47433993872036806,0.9999995348227408,4.2241483628111325e-05
-0.47415827475342665,-0.47415827475342665,0.9999938252018945,4.300114608750703e-05
-0.473991584576288,-0.473991584576288,1.0000842326087864,4.269957789116524e-05
-0.47386505525792016,-0.47386505525792016,0.9999695645103248,4.2414837963098545e-05
-0.4737392876711965,-0.4737392876711965,1.0000083231181391,4.222472053060059e-05
-0.4736461077663989,-0.4736461077663989,0.9999981558807052,4.20445937354978e-05
-0.4735076601507899,-0.4735076601507899,0.9999831545640212,4.154703660384138e-05
-0.4734520946010889,-0.4734520946010889,1.0001279373130556,4.232656997352883e-05
-0.47336794435759655,-0.47336794435759655,0.9999981544387406,4.2125312622009755e-05
-0.4732021792231535,-0.4732021792231535,0.999978946742749,4.225976602523382e-05
-0.47302410632255487,-0.47302410632255487,1.0000232935515156,4.1856223058835644e-05
-0.47281483596525503,-0.47281483596525503,0.9999273951077654,4.2154853928132533e-05
-0.4727022700688394,-0.4727022700688394,0.9999167465638535,4.214538293326584e-05
-0.47259394082284417,-0.47259394082284417,0.9999666609458338,4.226081758647622e-05
-0.47248687224055175,-0.47248687224055175,0.9999281075138977,4.202180788650529e-05
-0.47235287010335014,-0.47235287010335014,0.9999621642491799,4.1779146835427126e-05
-0.4722427381988382,-0.4722427381988382,0.999994721970489,4.206394106203387e-05
-0.47215516479409414,-0.47215516479409414,1.0000715530061346,4.208600738726104e-05
-0.4720238972309744,-0.4720238972309744,0.9999746977843017,4.214279537241083e-05
-0.4718363828913425,-0.4718363828913425,1.0000454277340156,4.185724703985349e-05
