time,time,flux,flux_err
-0.4999116564667929,-0.4999116564667929,1.0002362304863812,0.00020183446248469615
-0.4998014822609548,-0.4998014822609548,1.0000099368443656,0.0001964547399026301
-0.49969421210626025,-0.49969421210626025,0.9998955121800455,0.00019032438676571778
-0.4995225715298147,-0.4995225715298147,0.999941684515013,0.00019581668540056955
-0.49934743538979093,-0.49934743538979093,0.999818863389177,0.0002121920123272088
-0.49916105870652244,-0.49916105870652244,1.0002135630792224,0.00018636234198594147
-0.49898272871505467,-0.49898272871505467,0.9999789258666187,0.00017922300208059015
-0.49887233142435433,-0.49887233142435433,1.000006820252118,0.00018514239997158004
-0.4987961903432733,-0.4987961903432733,0.9998826330518821,0.00017761315336371663
-0.4986996559702675,-0.4986996559702675,1.0000393147996154,0.00020354087818147867
-0.498590237712051,-0.498590237712051,0.999869243794128,0.00017793698722135958
-0.4984273376496276,-0.4984273376496276,1.000162693713511,0.00020349532074986128
-0.49822426637765604,-0.49822426637765604,0.999815900300432,0.00019537536773407728
-0.4981306067231344,-0.4981306067231344,1.000121943799777,0.00017768710956557492
-0.49803091134672284,-0.49803091134672284,1.0001530028046166,0.00017861587204620212
-0.4979560113424668,-0.4979560113424668,1.000020908856348,0.00017678088274103603
-0.4978696511599992,-0.4978696511599992,1.0002300215406819,0.00020042788636920667
-0.49779505224651077,-0.49779505224651077,1.0003566292994055,0.00017874754239151805
-0.49768826870349586,-0.49768826870349586,0.9999029880095586,0.00017659241857542589
-0.4975529299626942,-0.4975529299626942,0.9996491911536086,0.00020341746357714903
-0.4973884785649716,-0.4973884785649716,1.0001479380489153,0.00017394282261349274
-0.49729586138855664,-0.49729586138855664,1.0000988796544312,0.00019537844315404987
-0.49720234704655014,-0.49720234704655014,1.000203545415845,0.00017361055019970704
-0.4971209191979142,-0.4971209191979142,1.000091394314698,0.00019035142950538634
-0.49699651598566563,-0.49699651598566563,0.9997582198983883,0.0001793784408453514
-0.4969426031791954,-0.4969426031791954,0.9999351487369804,0.00017966468962306737
-0.4968745405865775,-0.4968745405865775,1.0001587618110115,0.0001779819696404855
-0.4967794739677629,-0.4967794739677629,1.000066113389213,0.00018042154961359923
-0.49672602544233085,-0.49672602544233085,0.9998671682599076,0.0002009403286220163
-0.4965865045771352,-0.4965865045771352,0.9999574077927503,0.00017885079330286235
-0.49645420322340217,-0.49645420322340217,0.9997893957176626,0.00020006081066122457
-0.4962671368084557,-0.4962671368084557,1.000250710521757,0.00019355585313998264
-0.49608645274929586,-0.49608645274929586,0.9999846176909537,0.00017654152671257452
-0.4959109072064166,-0.4959109072064166,0.9999751765985747,0.00018191529019586253
-0.4957974907600146,-0.4957974907600146,0.9996643475952404,0.000185337157409144
-0.49569362944239403,-0.49569362944239403,0.9999361414280449,0.0001795556707848197
-0.4956392294545367,-0.4956392294545367,1.0000442419199733,0.00017878772204572854
-0.49558256042219,-0.49558256042219,1.0000257559684027,0.00018076506724692355
-0.4954995154468634,-0.4954995154468634,0.9996940218089646,0.0001844786762155323
-0.49542125093066713,-0.49542125093066713,1.0002696429662876,0.00017915241810554484
-0.4952967661207367,-0.4952967661207367,0.9999634252118946,0.00021049348672574873
-0.49511542495092725,-0.49511542495092725,1.0001117428593245,0.00019551305311909712
-0.49500063755112933,-0.49500063755112933,1.0002193052411805,0.00018499610034515793
-0.4949110764217039,-0.4949110764217039,0.9999648914950985,0.00018350213373704752
-0.49482111344623264,-0.49482111344623264,0.9999153585546715,0.00017757208434049433
-0.4947456904053979,-0.4947456904053979,1.0000352839919018,0.00019852299523047626
-0.4946645411764621,-0.4946645411764621,0.9999089399808302,0.00018170185056025308
-0.4945260164720821,-0.4945260164720821,1.0002183338751869,0.00017724507490015327
-0.49438228376675397,-0.49438228376675397,0.9999779137788707,0.00019417503794676882
-0.4942105807356711,-0.4942105807356711,0.9999142529481879,0.00017577452491532428
-0.4940745220585086,-0.4940745220585086,0.999958758832115,0.0001933178957526555
-0.49388490862038453,-0.49388490862038453,1.0001004211617097,0.00017850180908203134
-0.4937804888773826,-0.4937804888773826,0.9999928644045759,0.00018429394335959398
-0.4937021363126405,-0.4937021363126405,0.999967245171522,0.00018176683614810728
-0.49359945247124415,-0.49359945247124415,0.9999094312418618,0.00017839982338952752
-0.4935476830374682,-0.4935476830374682,1.0002867039814523,0.00019791689742103188
-0.49343763551223674,-0.49343763551223674,0.9998454845061568,0.00018180201641227126
-0.4933457721126615,-0.4933457721126615,1.0000157623861459,0.00017729303455987292
-0.4932644948865345,-0.4932644948865345,1.000030438827244,0.00020494401448536477
-0.4931208785637864,-0.4931208785637864,1.0000065041805768,0.0001906784344186195
-0.4929850197950145,-0.4929850197950145,1.0001268384155142,0.00017721989344111723
-0.49282451483231854,-0.49282451483231854,0.9997134120763974,0.0001856061966621063
-0.4927129390889604,-0.4927129390889604,0.9999092375155106,0.0001787076205659951
-0.49264036915265025,-0.49264036915265025,0.9998176554096713,0.0001783008271580922
-0.49254487531725316,-0.49254487531725316,1.0002666867253656,0.00017803849839611327
-0.49247058512773945,-0.49247058512773945,1.0003478540532023,0.00017620075530515962
-0.4923625373892719,-0.4923625373892719,1.0000254349964353,0.0002054719405097246
-0.4922797560917388,-0.4922797560917388,0.9997721298401661,0.00018328558916312358
-0.4922027240041643,-0.4922027240041643,1.0001120389371805,0.0001996147450115404
-0.4920267686902662,-0.4920267686902662,1.0000596280181846,0.0001780218337641179
-0.4919115243152191,-0.4919115243152191,1.0001248971060526,0.00019547663471460204
-0.4918183830479393,-0.4918183830479393,1.0000853236361833,0.00020195598647283322
-0.49174823573048343,-0.49174823573048343,0.9999441511251049,0.00018048362373843398
-0.4916447916031757,-0.4916447916031757,1.0000995367805445,0.00017716673091539367
-0.49158382944369805,-0.49158382944369805,1.0001062587952767,0.00020243568326440956
-0.4915225576958619,-0.4915225576958619,1.0002904209349943,0.00018175433287991597
-0.4914119199238485,-0.4914119199238485,1.000036666134791,0.00017349473953644988
-0.49124334004736736,-0.49124334004736736,1.0000213365816426,0.00019927305866387842
-0.4910554080030124,-0.4910554080030124,1.0000966918004741,0.00017490923742251926
-0.49093845195602626,-0.49093845195602626,0.9999208746502323,0.00019462839622419803
-0.4908195663687366,-0.4908195663687366,1.0001195237382778,0.00019230339521166825
-0.49067307751174666,-0.49067307751174666,0.9999987167843398,0.00017880765351106008
-0.4906113426332013,-0.4906113426332013,0.9998691488790925,0.00018294957144698802
-0.4905391896543733,-0.4905391896543733,0.9999385084009476,0.00018326926451388438
-0.49042925019457473,-0.49042925019457473,1.000099006533059,0.0001971067408888734
-0.4903279112681048,-0.4903279112681048,1.00011414773374,0.00017848280018012617
-0.4902913494690438,-0.4902913494690438,1.000081187721765,0.00018203859758676965
-0.49016791942267446,-0.49016791942267446,0.9998840173529018,0.00017798159918120028
-0.4900664156964922,-0.4900664156964922,1.0004075162651678,0.00019825254750776335
-0.48991161127123634,-0.48991161127123634,1.0004803408929672,0.00023716027140563518
-0.48972319712192985,-0.48972319712192985,1.0000013427891328,0.000179167512905406
-0.4895415781829797,-0.4895415781829797,0.9999794106733916,0.00018477433963789899
-0.4894741215262911,-0.4894741215262911,0.9999647728432342,0.00019778879340609452
-0.48934453046967974,-0.48934453046967974,1.0003433087564984,0.00017602280342191183
-0.4892359632642183,-0.4892359632642183,1.000238175866261,0.00017814712807830689
-0.4891183802719752,-0.4891183802719752,1.0000542056966473,0.00018139445950336654
-0.48905378403505895,-0.48905378403505895,1.0003558987894685,0.00018256196900249904
-0.48889015076274517,-0.48889015076274517,1.0001417030818838,0.0001973140051425642
-0.48872394481659287,-0.48872394481659287,0.9998687161417872,0.00018232933965871555
-0.4886694545755745,-0.4886694545755745,0.999705389678313,0.00020305062859510894
-0.48857222640290277,-0.48857222640290277,0.9999550028684748,0.00017770369444657715
-0.48843498579008154,-0.48843498579008154,1.0001324960292002,0.0001991722571684881
-0.48834676569604196,-0.48834676569604196,1.0002247481250297,0.0001811451142090847
-0.48822330796829194,-0.48822330796829194,0.9996687065599895,0.00017678985157035566
-0.48799519332314956,-0.48799519332314956,1.000055586973191,0.0001967936401953581
-0.4878743694345758,-0.4878743694345758,0.9998893374964817,0.00019134714013370347
-0.4877374412084464,-0.4877374412084464,1.0001390566378883,0.00019623170671750561
-0.48763189800229156,-0.48763189800229156,0.9997296646001699,0.00017695828915240743
-0.48749283119323084,-0.48749283119323084,1.0002071515278668,0.00017842274818744014
-0.48738899049712925,-0.48738899049712925,0.9998349934392872,0.00018420610269981484
-0.4872777743548795,-0.4872777743548795,1.0000152037264842,0.00019082051821358868
-0.4871677686198382,-0.4871677686198382,0.9998954956600115,0.00017811449488305023
-0.48708023911167403,-0.48708023911167403,1.0000563612838969,0.00018315429948165423
-0.48700599147487084,-0.48700599147487084,1.0004002000289973,0.00019960485314491366
-0.48690441196013123,-0.48690441196013123,1.0001126511510705,0.0001952385695787513
-0.48673137935256816,-0.48673137935256816,0.9999558090857829,0.00018339414719549052
-0.486466996755189,-0.486466996755189,0.9998629089296761,0.0001780337252860163
-0.48632660992880117,-0.48632660992880117,1.000058324718339,0.00018191102302828402
-0.48625517984037286,-0.48625517984037286,1.0001317809157835,0.00017835261372125812
-0.48615458565036535,-0.48615458565036535,1.0000542665364542,0.0001786329358059193
-0.4860027700851788,-0.4860027700851788,0.9996098688521193,0.00018745276721361757
-0.48592412407451774,-0.48592412407451774,0.999946522945433,0.0001872284008755148
-0.4858428107647342,-0.4858428107647342,1.0001528757342704,0.00017910060768570266
-0.4857219170880853,-0.4857219170880853,0.9998770185171958,0.00019746942844862183
-0.4855244910759211,-0.4855244910759211,1.0000492399391785,0.0002033928253304021
-0.4854131503248936,-0.4854131503248936,0.9998066449957721,0.00017977803688406233
-0.48527136942575455,-0.48527136942575455,0.9999749260780673,0.00019544720222244597
-0.4852043599159515,-0.4852043599159515,1.0000596926193737,0.0001836544025406396
-0.4850656280104886,-0.4850656280104886,0.999756472326143,0.00018776023802414266
-0.48484690823970594,-0.48484690823970594,1.0002271477502591,0.00020933477913114164
-0.4846877618489088,-0.4846877618489088,1.0001032063230944,0.00017234440670275584
-0.4845048752089497,-0.4845048752089497,0.999654722558731,0.00020040909901310124
-0.48438517071044773,-0.48438517071044773,1.0001246880912489,0.00017362883284031554
-0.48427746856832526,-0.48427746856832526,0.9998520276256437,0.00017939164040557646
-0.4841607983813446,-0.4841607983813446,0.9998255999982012,0.00017629541389948926
-0.4840503406812786,-0.4840503406812786,0.9999588656820191,0.0002127169559512253
-0.4839231212594314,-0.4839231212594314,0.9997728669900601,0.00017651295791508502
-0.4838572136191942,-0.4838572136191942,0.9998669017012451,0.00018418554953458284
-0.48377634745047543,-0.48377634745047543,1.000258779741776,0.00021208190060233284
-0.4836757515280624,-0.4836757515280624,0.9999559730174512,0.00018274186274843535
-0.4834209080559958,-0.4834209080559958,1.0001210886328131,0.000180147310684818
-0.483237171817018,-0.483237171817018,1.0000597630091677,0.00018559078733440347
-0.48310257449993516,-0.48310257449993516,1.000113249175707,0.00017514273477443602
-0.4829786224574491,-0.4829786224574491,0.9999995924725325,0.0001779019462801017
-0.4827913284425449,-0.4827913284425449,1.0001265496148934,0.0001816891402615358
-0.48263695660571104,-0.48263695660571104,1.0001413668229973,0.0001848579065902803
-0.48254413567483423,-0.48254413567483423,0.9999931766934766,0.00019890513504836958
-0.48243231852466123,-0.48243231852466123,1.0000144016152825,0.0001746225565234416
-0.48229539061067045,-0.48229539061067045,1.0001904234065777,0.0001995738664454062
-0.4822113861053367,-0.4822113861053367,0.999933178650308,0.00019389699550571073
-0.4820961374978651,-0.4820961374978651,1.0001712184847236,0.00018070092209698357
-0.48197094353454306,-0.48197094353454306,1.000041323901311,0.00017687313115257258
-0.48183532808034213,-0.48183532808034213,1.0001755042880016,0.00019508153899016353
-0.48167700003177744,-0.48167700003177744,0.9999562797802453,0.00017183818681595821
-0.48148899448933663,-0.48148899448933663,1.0001280001486772,0.0001927338525000383
-0.4813095604928094,-0.4813095604928094,1.0002846629811462,0.0001798148268802381
-0.4812130547114066,-0.4812130547114066,1.0000282999849883,0.0001805719094931487
-0.48111654075983096,-0.48111654075983096,0.9998951797454427,0.00017528796085557261
-0.4810229817776417,-0.4810229817776417,1.0000105484823376,0.0001801524504745658
-0.4808949544749339,-0.4808949544749339,1.0000038536187144,0.00021582772508862467
-0.4807592693257902,-0.4807592693257902,1.000189303355533,0.00017798848282595808
-0.48067017073990426,-0.48067017073990426,1.0000920846058805,0.00019731992119448387
-0.4806068180638249,-0.4806068180638249,0.99981903811022,0.0001957018478911179
-0.48050555924128274,-0.48050555924128274,1.0000807381671115,0.00017773459272135797
-0.4803272151766578,-0.4803272151766578,0.9998971818736713,0.00019659113902978134
-0.48012560985807795,-0.48012560985807795,1.0003029009234552,0.00023691776133594693
-0.48001286050275666,-0.48001286050275666,0.9998290979488231,0.00019665834276146312
-0.47986773092052315,-0.47986773092052315,1.000286204277659,0.00017911940968946767
-0.4797419912785699,-0.4797419912785699,0.9997701616422654,0.00018575152842962545
-0.4796073140503722,-0.4796073140503722,0.9999827888923303,0.00017504984101579928
-0.47945855887664945,-0.47945855887664945,1.0000242168345994,0.00018470359063908992
-0.479347772555775,-0.479347772555775,0.9999277497225266,0.00019647292159018025
-0.47924477018023026,-0.47924477018023026,1.0000528348816027,0.00019616096595391426
-0.47914119625784224,-0.47914119625784224,1.0000302087439645,0.00018301027772057267
-0.47905985882680396,-0.47905985882680396,1.0001586445902348,0.0001817052542489953
-0.4789865575832664,-0.4789865575832664,0.9996577431575041,0.00019650367220030315
-0.47891269862302577,-0.47891269862302577,1.0000572776278085,0.00018595681674175087
-0.47877371429713095,-0.47877371429713095,1.0000386212268684,0.00017743448618695901
-0.4786481626157183,-0.4786481626157183,0.9999080856874343,0.0001951967158662383
-0.47858307141141265,-0.47858307141141265,1.0000671800342211,0.00019805084562394946
-0.4783690928692522,-0.4783690928692522,1.0000221195810841,0.00019135984858131323
-0.47818773688704824,-0.47818773688704824,0.9997805582368752,0.0001841567578494641
-0.4780402946591494,-0.4780402946591494,1.0000133646644631,0.00018127349580427385
-0.477983368182322,-0.477983368182322,1.000020275721938,0.00017308813448099834
-0.4779169957670092,-0.4779169957670092,0.9999463952939619,0.0001790100761761262
-0.4778095401394239,-0.4778095401394239,1.0003303760603466,0.00019961148472823114
-0.47765078071824973,-0.47765078071824973,0.999942076299597,0.00017850049369457787
-0.4775370311399456,-0.4775370311399456,0.9999626168212628,0.00017859897558153477
-0.47743329229269876,-0.47743329229269876,1.0002136677674158,0.00019666335402668172
-0.47735307532711885,-0.47735307532711885,1.0002193225485638,0.00018044873610597418
-0.4772082921786932,-0.4772082921786932,0.9999468424787323,0.00018455072413649628
-0.477073404758994,-0.477073404758994,1.0002268097633036,0.00019103856914721447
-0.4769933962576033,-0.4769933962576033,1.0000368239461639,0.00018230686694717835
-0.4769204493459256,-0.4769204493459256,1.0000487382129994,0.00019574916115584995
-0.47683658688256403,-0.47683658688256403,0.9998411898060379,0.00017873477922793695
-0.47666738665429875,-0.47666738665429875,1.0000358977224406,0.00020461544103190246
-0.47649372675587076,-0.47649372675587076,0.9999062214144393,0.00018471088281117964
-0.47639511758243314,-0.47639511758243314,1.0000185815138471,0.00017028895469473705
-0.47630184994341107,-0.47630184994341107,1.000022577936741,0.00020315471921357621
-0.47617849357557135,-0.47617849357557135,1.0002110966394437,0.00017643261293240667
-0.476103362905269,-0.476103362905269,1.0001232883996711,0.00017881897081772945
-0.476025339987973,-0.476025339987973,1.0001877750040116,0.00020149505338865905
-0.47596521326922814,-0.47596521326922814,0.9999615228118547,0.00018204268899957955
-0.4758775367408816,-0.4758775367408816,1.0001329774574794,0.00018040774180375262
-0.4758204584410123,-0.4758204584410123,1.0002528080165543,0.00019522696962970571
-0.4757193613470008,-0.4757193613470008,1.000074930274831,0.00018135915408705943
-0.4754729096930532,-0.4754729096930532,0.9998176792151753,0.0002127737732884565
-0.4753703461101395,-0.4753703461101395,0.9996418355421337,0.00017905704690256684
-0.4751650034078921,-0.4751650034078921,1.000100784964988,0.00018985893310892473
-0.475050352706603,-0.475050352706603,0.999936023847569,0.00018485282559111568
-0.47493188972293865,-0.47493188972293865,1.0000923283119838,0.00017912733838171927
-0.4748394568210642,-0.4748394568210642,1.0001771072750738,0.00018460711423311224
-0.4747513198562956,-0.4747513198562956,0.9998877782373283,0.00017632711994124015
-0.47470407130458625,-0.47470407130458625,1.0000036951177524,0.0001799822816519109
-0.4745715291770466,-0.4745715291770466,0.9998974763570887,0.00019436706205296783
-0.47446121871398644,-0.47446121871398644,0.9998171867946996,0.0001815089084627368
-0.47437743908303676,-0.47437743908303676,1.0001045142687404,0.00017748951100272765
-0.47425293834530746,-0.47425293834530746,1.0002238226399893,0.00019531889595103866
-0.4741821364143107,-0.4741821364143107,0.9998205959485624,0.00017341111446866523
-0.47403466089235735,-0.47403466089235735,0.9998848542591109,0.00018039051092473627
-0.4738669836602639,-0.4738669836602639,1.000093059056639,0.0001778690955086014
-0.473811127787485,-0.473811127787485,0.9997260354505564,0.0001759850685779498
-0.47373464903212154,-0.47373464903212154,1.0004702953060087,0.00019559402824384842
-0.47363577647774946,-0.47363577647774946,1.0001995804045944,0.00019951969571473829
-0.47349230575709955,-0.47349230575709955,0.999675574775388,0.00020067169624032587
-0.47334739413345234,-0.47334739413345234,0.9999069847255558,0.0001831673731666419
-0.47324132365756666,-0.47324132365756666,0.9998904443235471,0.00017425325073649407
-0.4731494188992656,-0.4731494188992656,0.9997784619186614,0.00019620196412627506
-0.4730005082950811,-0.4730005082950811,1.000050170857186,0.0001781002117128073
-0.4729057001815818,-0.4729057001815818,1.000159370991652,0.00017806957168539536
-0.47283953127625866,-0.47283953127625866,0.9997024357911511,0.000201508213319765
-0.47273518262591097,-0.47273518262591097,0.9999743306371283,0.00019739904031138323
-0.4726515671944071,-0.4726515671944071,1.0003021403117116,0.00018398756084773337
-0.47261652227462037,-0.47261652227462037,0.999890700636185,0.00018221747622466689
-0.47254311337164834,-0.47254311337164834,0.9999431982345145,0.00017951389851942148
-0.4723353674125974,-0.4723353674125974,1.000300031848358,0.00019410940470454606
-0.4722459906137374,-0.4722459906137374,0.9999788200596132,0.00019507247340675997
-0.47213339380905384,-0.47213339380905384,1.0001448740066834,0.00018362172413377578
-0.4719459957894287,-0.4719459957894287,1.000541247220681,0.00019885139172834223
-0.4718023372603056,-0.4718023372603056,1.000257320244152,0.00018192200164023257
-0.47164796702054446,-0.47164796702054446,0.9997104799730311,0.00018565114165756193
-0.4715895219669619,-0.4715895219669619,0.9999387388730577,0.00017466434413264308
