time,time,flux,flux_err
-0.4999294966031205,-0.4999294966031205,1.0000584857458448,0.000160200336246889
-0.49977400885836687,-0.49977400885836687,0.9998809524567859,0.0001601211144737979
-0.4995316238212884,-0.4995316238212884,0.999975833761944,0.00015889345382068853
-0.4993470868706936,-0.4993470868706936,1.00009752791067,0.00014373571637678404
-0.49919767143874194,-0.49919767143874194,0.9998542853750905,0.0001454311569101205
-0.4990905267666676,-0.4990905267666676,1.0003212892591944,0.00014326291574411908
-0.49896757708411316,-0.49896757708411316,0.9997753562710046,0.00014623378770817878
-0.4988839990182896,-0.4988839990182896,1.0001177525779557,0.0001399693161476065
-0.49874605113145665,-0.49874605113145665,1.000213836605387,0.0001458851966282115
-0.4986281043755298,-0.4986281043755298,1.0000025618923618,0.00014086496287133338
-0.49853583617077674,-0.49853583617077674,0.9998473847530406,0.00014086699520266522
-0.4984509434812935,-0.4984509434812935,1.0000279477297538,0.0001411176017336227
-0.4982350012964162,-0.4982350012964162,0.9999847400471278,0.00014339372450849493
-0.49812844214829965,-0.49812844214829965,0.9999653854465695,0.0001480712077034355
-0.4979737650821335,-0.4979737650821335,1.0004149681500372,0.0001447970940366894
-0.49776436933607326,-0.49776436933607326,1.000003696856765,0.00014503461037863267
-0.49755033939654825,-0.49755033939654825,1.0000601013077586,0.00014004940399290036
-0.4974189125394332,-0.4974189125394332,1.0000074968496715,0.00014363135485595185
-0.49716967571512216,-0.49716967571512216,1.0000674373115301,0.000145405939892082
-0.4970268667493656,-0.4970268667493656,0.999988279058799,0.00014607470652910822
-0.4967679376117303,-0.4967679376117303,0.9999972345457426,0.00014389195017006486
-0.49656402592227095,-0.49656402592227095,1.000062963047742,0.00014216207480475477
-0.49642297917744144,-0.49642297917744144,1.0002503214797793,0.00014573357802604537
-0.49620544883291584,-0.49620544883291584,0.999988472900478,0.00014096484756213906
-0.49601007862293045,-0.49601007862293045,1.0000917482164229,0.00014321413291115212
-0.4957654710531642,-0.4957654710531642,1.0000213035631422,0.00014204936138550387
-0.4955728877532238,-0.4955728877532238,1.0001604516716238,0.00014354113902233638
-0.49544689068134173,-0.49544689068134173,0.9999197127384024,0.00014093478397387955
-0.49514784275161217,-0.49514784275161217,0.9998750206992597,0.0001400516636086466
-0.49497036789543924,-0.49497036789543924,1.0000844465881724,0.0001469710719867335
-0.4947233111037349,-0.4947233111037349,1.0001121211587964,0.00014679897315816659
-0.49453095933276925,-0.49453095933276925,0.9999107445752433,0.0001412706882022867
-0.49436655206445723,-0.49436655206445723,0.999869508006914,0.00013915625300465703
-0.49416782762054934,-0.49416782762054934,1.0001711422020985,0.0001457520903746392
-0.49407276206402456,-0.49407276206402456,1.0001238085959052,0.00014911174016457327
-0.4939253610034939,-0.4939253610034939,1.0000987824537557,0.00014234695970751968
-0.49372840174255544,-0.49372840174255544,0.9999436335122567,0.0001410374890985301
-0.4935455953636847,-0.4935455953636847,1.0001046923184131,0.00014067888534282874
-0.4933714820210298,-0.4933714820210298,0.9998953325161724,0.0001483072439754663
-0.4931983020200278,-0.4931983020200278,1.0003001942046512,0.0001510176013934588
-0.492944099802844,-0.492944099802844,1.0001072133604403,0.00014492532894382228
-0.49276102898729734,-0.49276102898729734,1.0001080778517022,0.00014201563054388168
-0.49259846414570346,-0.49259846414570346,0.999924787432873,0.00014411537416072175
-0.4924336935320753,-0.4924336935320753,1.0000499313617315,0.00014628003432490914
-0.49223435724998127,-0.49223435724998127,0.9999818959130915,0.00014408447167642066
-0.4921020508867514,-0.4921020508867514,0.9999963209025259,0.00014234946384924542
-0.49191888959903735,-0.49191888959903735,1.000094405602501,0.00014151912760594992
-0.49169552006351297,-0.49169552006351297,1.0000714797616668,0.00014651182707845577
-0.49152644488567604,-0.49152644488567604,1.0001300040546253,0.00014749423718364961
-0.49137135655691966,-0.49137135655691966,0.9999677399516436,0.00014198567691408166
-0.49112787867852603,-0.49112787867852603,0.9998198213802698,0.00014977017436902624
-0.49089803204333293,-0.49089803204333293,1.0000268202753635,0.00014179771142536432
-0.49075920265240713,-0.49075920265240713,1.0001373522017623,0.0001448787421939767
-0.49059649811315464,-0.49059649811315464,0.9999671631936874,0.0001470560807102576
-0.4905099283423624,-0.4905099283423624,0.9999372433776731,0.00014374850117681218
-0.49041464741749224,-0.49041464741749224,1.0001068578811774,0.00014653658354048412
-0.4902366025453375,-0.4902366025453375,0.9999963866125512,0.00014060106996602653
-0.490034670705063,-0.490034670705063,0.9999390660035967,0.00014718204265220576
-0.48977559849154206,-0.48977559849154206,0.9998646418179351,0.0001500069117313584
-0.48958608449829627,-0.48958608449829627,1.00024314811139,0.00014104628630879523
-0.48935399040346966,-0.48935399040346966,1.0000674594193508,0.00014649581883845148
-0.48921502953380697,-0.48921502953380697,1.000031169765554,0.00014003836105211306
-0.4890536011967924,-0.4890536011967924,0.9996970463257231,0.0001502760756938529
-0.4888720396033023,-0.4888720396033023,0.9998620381730656,0.00014116100336046636
-0.4886697194117005,-0.4886697194117005,0.9998949862206897,0.00014182821907034502
-0.488480393950158,-0.488480393950158,1.0002132004658841,0.0001440379052653886
-0.4883306309144245,-0.4883306309144245,1.000133872136124,0.00014888672866184151
-0.48812437636879624,-0.48812437636879624,1.000079976732646,0.0001475446509125581
-0.4880060923882411,-0.4880060923882411,0.9999696686157137,0.00014966454728304672
-0.4878438709776674,-0.4878438709776674,0.9997577919736603,0.00014336903780329274
-0.48769901070336347,-0.48769901070336347,0.9999425024781287,0.0001436056022720632
-0.4875097421994724,-0.4875097421994724,1.0000330116048037,0.00015082645962444106
-0.48737991810485254,-0.48737991810485254,1.0001896774661703,0.00013909253984255562
-0.4872308378646267,-0.4872308378646267,0.9999701886013787,0.0001429643529724356
-0.4870937453175429,-0.4870937453175429,0.999868358571575,0.00014116714671266254
-0.4870041002017388,-0.4870041002017388,1.0001251887709253,0.0001404961425690518
-0.486827203266148,-0.486827203266148,0.9998385181378409,0.0001404862473222827
-0.4866856425658625,-0.4866856425658625,1.0000182130813626,0.00015358659456588734
-0.48651105981407455,-0.48651105981407455,1.0002074121252869,0.00014539050288554613
-0.48625494165607963,-0.48625494165607963,0.9999143217135208,0.00014513717669962056
-0.4860235509739141,-0.4860235509739141,0.9998245570109383,0.00014611820120990216
-0.4858068526460556,-0.4858068526460556,0.9999034962545601,0.00014142727786177294
-0.48566117426817074,-0.48566117426817074,0.9998662472245947,0.00014364276825631087
-0.4855347186930885,-0.4855347186930885,0.9999982416086421,0.0001429804182798127
-0.4853875097403943,-0.4853875097403943,1.0000484391760855,0.00014123961032326446
-0.48520971042235034,-0.48520971042235034,0.9998000350249399,0.0001398102186256895
-0.48503538631775883,-0.48503538631775883,0.9999478134321087,0.0001521622905054615
-0.4847169702814426,-0.4847169702814426,1.0001084044242132,0.00014861563820708164
-0.48444843933248194,-0.48444843933248194,1.0000239006619336,0.00014406362010207192
-0.4842647797151585,-0.4842647797151585,0.9999404262816369,0.00014416287286776866
-0.4840632826111687,-0.4840632826111687,0.9999035529182045,0.00014467783218323214
-0.48391494154639075,-0.48391494154639075,0.9999510042124562,0.00014853574977123385
-0.48381245618948016,-0.48381245618948016,1.0000304158872502,0.00014158503371543122
-0.48364362056454413,-0.48364362056454413,1.0001428926961125,0.00014248061898962613
-0.48340740541025295,-0.48340740541025295,1.0001000783907548,0.00015130340245587292
-0.4831810819952807,-0.4831810819952807,0.9999811859688748,0.0001427826283176469
-0.4829456448074779,-0.4829456448074779,1.000072491268456,0.00014435434786849664
-0.48262554215179987,-0.48262554215179987,1.0000421288506247,0.0001441589375183369
-0.4824421725374123,-0.4824421725374123,0.9999967082115632,0.00014561468963940563
-0.48228549975465285,-0.48228549975465285,1.000213369208042,0.00013992882738746553
-0.4821342018629366,-0.4821342018629366,1.00041632181935,0.00013974487947267494
-0.481904041593225,-0.481904041593225,0.9999512056367882,0.00014687005287818142
-0.4817761252037599,-0.4817761252037599,0.9998984051620058,0.00014569555282804454
-0.481526960071642,-0.481526960071642,0.9997372273153591,0.00014629359751550607
-0.4813389371032827,-0.4813389371032827,0.999863444194732,0.00014308660838344234
-0.48116658463623024,-0.48116658463623024,0.9999354599929511,0.00014430438050869
-0.4810790229450504,-0.4810790229450504,1.0000568083581576,0.00014067877773767085
-0.48096470272139413,-0.48096470272139413,1.0001557532331031,0.0001465193146179884
-0.4808623399338103,-0.4808623399338103,0.9999530295285115,0.00014751871682650586
-0.48073447508140815,-0.48073447508140815,1.0000707507932316,0.00014417252482997424
-0.48060545171247215,-0.48060545171247215,1.0000485783389035,0.00014231716717288772
-0.4804812511625641,-0.4804812511625641,0.9999324673484665,0.00014081338612944032
-0.48039158821920863,-0.48039158821920863,1.0001113252751268,0.00014148188087713905
-0.4802316476707347,-0.4802316476707347,0.9998836217610017,0.0001437935928568809
-0.48009008090157296,-0.48009008090157296,1.0000099437910386,0.00014445072569600547
-0.4799196537125681,-0.4799196537125681,0.9998424863386397,0.00014499326169619805
-0.4796488707368553,-0.4796488707368553,1.0000827127102214,0.00014512637640726024
-0.4794358471517626,-0.4794358471517626,1.000176547678926,0.00014109129876989016
-0.4792694577590737,-0.4792694577590737,1.0000525339897384,0.00014569189323270748
-0.47904492161833334,-0.47904492161833334,0.9999284017207547,0.0001448205396493835
-0.47893862161945433,-0.47893862161945433,0.9998185965245808,0.00014547824314625329
-0.47869915063129154,-0.47869915063129154,1.0001435456743661,0.00014397072441063707
-0.47845201163654566,-0.47845201163654566,1.0001492081882137,0.0001422942110124819
-0.4783030026388587,-0.4783030026388587,1.0001913021712703,0.0001467397569561531
-0.47808458337603954,-0.47808458337603954,0.9997924439154184,0.00013936152690242508
-0.47787885573707173,-0.47787885573707173,1.000104485578839,0.00014602838586082965
-0.4776286491047358,-0.4776286491047358,0.9999714686620778,0.00014615386179054284
-0.4774636748181365,-0.4774636748181365,1.0000748597475986,0.00014349921626982283
-0.47724818849310396,-0.47724818849310396,1.0000959728069727,0.000147109048069131
-0.47702989104291194,-0.47702989104291194,1.0001040004224175,0.00014217814995129066
-0.4768466981113306,-0.4768466981113306,1.0000229715202744,0.00015232537076695032
-0.47663854719139637,-0.47663854719139637,0.9998800330649699,0.00014332292092452103
-0.47645875203379545,-0.47645875203379545,1.0003084472758146,0.00014131133780289091
-0.4762392536089465,-0.4762392536089465,0.9999897642014902,0.00014486217427199277
-0.47607573094792316,-0.47607573094792316,0.9999595909624022,0.00014702681241592078
-0.4759821733197896,-0.4759821733197896,1.0001245878625897,0.00014106705432670417
-0.4758089042210486,-0.4758089042210486,1.0002150032517165,0.00014487673633418668
-0.47562764092799625,-0.47562764092799625,0.9999577546056774,0.0001406451396487264
-0.47540787554899,-0.47540787554899,0.9999979236099759,0.00014204407836383647
-0.47524584937418696,-0.47524584937418696,1.0002946574791274,0.00014749841066336248
-0.47502497134482835,-0.47502497134482835,0.9996360979202381,0.00015302401052080762
-0.47486811737617246,-0.47486811737617246,1.0001239447169195,0.0001462042068696974
-0.4746575101977214,-0.4746575101977214,1.0003149179917288,0.00013909873548893602
-0.4745285041404713,-0.4745285041404713,0.9999763628803864,0.00014409434284910167
-0.4743972163378203,-0.4743972163378203,1.0000645555464611,0.00014341553606256433
-0.47425043736366207,-0.47425043736366207,0.9999471322681103,0.0001384216956603368
-0.4741121970131644,-0.4741121970131644,0.9999540774241303,0.0001434901824282237
-0.4739540352042241,-0.4739540352042241,1.0000434021560003,0.00014400204335359484
-0.47377495141845427,-0.47377495141845427,0.9998484893439551,0.00014080900768817642
-0.47357851927517913,-0.47357851927517913,1.0001402287054835,0.000148428686744062
-0.4734551518136868,-0.4734551518136868,0.999871471728605,0.00014546068554226367
-0.47324462123433475,-0.47324462123433475,0.9999980642189901,0.00014560224398313322
-0.47300496622628996,-0.47300496622628996,0.9998288532150317,0.00014499969995070095
-0.4728248653045739,-0.4728248653045739,1.0000004842354966,0.00014109321344121423
-0.47275095186414545,-0.47275095186414545,1.000073803500174,0.00014567063308837364
-0.4726091378419369,-0.4726091378419369,1.0000701881150984,0.00014306967068626099
-0.4724745849911415,-0.4724745849911415,1.0000753743260151,0.00014673015826371867
-0.47239915458267207,-0.47239915458267207,0.9998946385535803,0.00014842528062304145
-0.47225098694034384,-0.47225098694034384,0.9998764091026515,0.00014138902308852866
-0.4721033173809701,-0.4721033173809701,0.9999946517226018,0.00014365310597108536
-0.4719048031925922,-0.4719048031925922,1.0000344642949615,0.00014290967770627989
-0.4716570449534629,-0.4716570449534629,0.9999964109274948,0.0001453995531409958
-0.4713640371694055,-0.4713640371694055,0.9999679978472965,0.00013934810419997658
-0.47121762038659654,-0.47121762038659654,1.0000001522256727,0.00014586346973594075
-0.47109794399730165,-0.47109794399730165,1.000244784794738,0.0001428203501564876
-0.4709476803996949,-0.4709476803996949,0.9998859178370868,0.00014980981090678358
-0.4708006843306066,-0.4708006843306066,0.9999982755241341,0.00014056661453628553
-0.4705991935923521,-0.4705991935923521,0.9999292519863449,0.00014178823703340587
-0.470414396221895,-0.470414396221895,1.000030017788744,0.00014290879843136068
-0.4703090649636579,-0.4703090649636579,1.0000981464229088,0.00014988590678548353
-0.4700683353927161,-0.4700683353927161,1.0000883302357078,0.00014460113134171965
-0.46995608954312046,-0.46995608954312046,1.0001446868364978,0.00014642692366182542
-0.46982988256786484,-0.46982988256786484,0.9999179472982155,0.00014912740400840853
-0.46966996177579856,-0.46966996177579856,1.0000444373724986,0.00014379978546694939
-0.4695196018757997,-0.4695196018757997,1.0000746145300674,0.00014626044476090408
-0.4693806429822871,-0.4693806429822871,1.000079160667672,0.00014297166191652418
-0.4692872242339945,-0.4692872242339945,0.9999158444807683,0.00013883923054502505
-0.4691273711316171,-0.4691273711316171,1.0000841679195074,0.00014658110762620153
-0.4689910214787233,-0.4689910214787233,1.0000593181880546,0.00014112668497915872
-0.46886086515442005,-0.46886086515442005,1.0000192517940287,0.00014059462031332487
-0.468654115145182,-0.468654115145182,0.9998619932738588,0.00014747496810657695
-0.4685492290496768,-0.4685492290496768,0.9999185713447571,0.00014737906232312116
-0.46834102764041746,-0.46834102764041746,1.000039209093818,0.00014758836998008862
-0.4681278117037436,-0.4681278117037436,0.9999512965523969,0.00014167601577232583
-0.46786798418761466,-0.46786798418761466,1.0000463568316338,0.00014694139313416185
-0.46761067608313167,-0.46761067608313167,0.9998851102983789,0.00014305062055805002
-0.4674645038197923,-0.4674645038197923,1.0001016965700618,0.00014304177773455224
-0.46733822438036443,-0.46733822438036443,0.9998823636804026,0.0001411560958397236
-0.46718206532896145,-0.46718206532896145,1.0000989331473888,0.00013855568627668409
-0.4670446433679899,-0.4670446433679899,0.9999513743873993,0.00014398111329293645
-0.4668849377623701,-0.4668849377623701,0.9999602221369948,0.00015264096273155604
-0.46664527725079097,-0.46664527725079097,1.0000804334974094,0.00014535647362747166
-0.4664213454321725,-0.4664213454321725,1.000069652085224,0.00014284277749206754
-0.4661979246950068,-0.4661979246950068,1.0000231417971652,0.00014312357186426554
-0.4660529996741388,-0.4660529996741388,0.9999620393197948,0.00014683661354286158
-0.4658649782162684,-0.4658649782162684,1.0002211975609032,0.00014939364089231575
-0.46574318265193143,-0.46574318265193143,1.000184883812402,0.00014076310000503056
-0.4655722575371328,-0.4655722575371328,1.0002745839127862,0.00014245323348267082
-0.4653686930163531,-0.4653686930163531,0.9999303155760989,0.0001464365216002634
-0.46514420507955945,-0.46514420507955945,1.0001023382800716,0.00014289850055175572
-0.4649946308403742,-0.4649946308403742,0.9999318167611937,0.00014131501866775306
-0.4646578163767117,-0.4646578163767117,0.9999852037323272,0.0001473235470752978
-0.4645136639010161,-0.4645136639010161,1.000102264783894,0.00014069222553548166
-0.46433137459898716,-0.46433137459898716,1.0000964191747688,0.0001449405869550164
-0.46421699899001395,-0.46421699899001395,1.0000490075816315,0.00014201143925019995
-0.4640635875715816,-0.4640635875715816,1.0003563175210926,0.00014084583396131131
-0.4638740469265031,-0.4638740469265031,1.0000459154810375,0.0001416359113464901
-0.4637591464248544,-0.4637591464248544,0.9998666440148332,0.00014551682405619881
-0.46350992382649564,-0.46350992382649564,1.0002057388057368,0.00015183626309823967
-0.4633575923216995,-0.4633575923216995,0.9999519141227365,0.00014317748132174196
-0.46320106297716845,-0.46320106297716845,0.9999516132877397,0.0001406458876577343
-0.4630583610691247,-0.4630583610691247,0.9999403912450754,0.00014520706075191251
-0.46293640998701446,-0.46293640998701446,1.0002103262618813,0.00014226067581055106
-0.4628194846496626,-0.4628194846496626,1.0001103306030656,0.0001474513309001465
-0.4627434627749608,-0.4627434627749608,1.0000441831133189,0.00014452394537637844
-0.4626122867455706,-0.4626122867455706,0.9999607756530946,0.0001426957500138697
-0.4625261800465523,-0.4625261800465523,0.9996223444507726,0.00014228102750802807
-0.46239873297236045,-0.46239873297236045,1.0003059484813352,0.00014186293687272713
-0.46230357675012784,-0.46230357675012784,0.999885800406874,0.00014398648600402408
-0.46213100596505685,-0.46213100596505685,1.0000855063681429,0.00014479433530998633
-0.4620040583140508,-0.4620040583140508,0.9999935169322338,0.0001480595700667713
-0.46175074956045137,-0.46175074956045137,1.0002019084684108,0.00014291714946401397
-0.4615347599436063,-0.4615347599436063,0.999917966610399,0.0001429522577765914
-0.46134118210684394,-0.46134118210684394,0.9999849932207059,0.0001405234380323697
-0.46122824469784973,-0.46122824469784973,0.9999775432932919,0.00014621953930152307
-0.4610447433427908,-0.4610447433427908,0.999876702551024,0.0001464307938559155
-0.46091918694583,-0.46091918694583,1.0001336535568537,0.00014440331970511658
-0.4607757819743711,-0.4607757819743711,0.9998289715943776,0.00014857902987325285
-0.4604783469469112,-0.4604783469469112,1.0000818732716918,0.00014331897208908604
-0.4603002163843485,-0.4603002163843485,0.9998614787756427,0.00014841141748067117
-0.46009644647419917,-0.46009644647419917,1.0002765382171563,0.00014050757310003214
-0.45995742499653713,-0.45995742499653713,0.9998244195749457,0.0001398215738647284
-0.45981220261746786,-0.45981220261746786,0.99972817260913,0.00014658968937238107
-0.45964194316329665,-0.45964194316329665,1.000142463250534,0.00014635734886963352
-0.4594885938226071,-0.4594885938226071,0.9998313892509254,0.00014674498948581374
-0.45933356006717074,-0.45933356006717074,0.9998157000234681,0.00014058269879105512
-0.4591028879651276,-0.4591028879651276,1.0000023271713787,0.00014221086845685155
-0.45885721250306233,-0.45885721250306233,1.0001714924219827,0.00014497798216247718
-0.45864169335982297,-0.45864169335982297,0.999792233516895,0.0001552335185141613
-0.4584431352261163,-0.4584431352261163,1.0000604814758263,0.00013991568279132105
-0.45826989546985714,-0.45826989546985714,1.0000331836692187,0.00014296030757604775
-0.4580827155834413,-0.4580827155834413,0.9998695642884258,0.00014327096190196777
