time,time,flux,flux_err
-0.4999159033613978,-0.4999159033613978,0.9986548237992686,0.0009997191680911816
-0.4997852397555107,-0.4997852397555107,1.0011153892584606,0.0012722579633279046
-0.4996187767406809,-0.4996187767406809,0.9992140346420006,0.0011131055047041733
-0.4995352605095832,-0.4995352605095832,1.0000702524400078,0.0009744027245622243
-0.4994398314171121,-0.4994398314171121,0.9994614347646553,0.0009350388860913276
-0.49936671691320955,-0.49936671691320955,1.0003803147475403,0.0009405480337874632
-0.4993268784157408,-0.4993268784157408,0.9993875703918474,0.0011801269843927905
-0.4992512525052007,-0.4992512525052007,0.9998678521448175,0.0011777497013539852
-0.49905159840200214,-0.49905159840200214,1.000257624212613,0.0009240823584213212
-0.4989400896265579,-0.4989400896265579,0.9997511660489528,0.0009532297759826276
-0.49883645921581776,-0.49883645921581776,0.999922013035096,0.0008957204228885833
-0.49863565257473963,-0.49863565257473963,1.0000384119069052,0.0007665526600291098
-0.49852667857849153,-0.49852667857849153,1.0010783265569059,0.0009008365506378388
-0.4982864122503088,-0.4982864122503088,0.9994132243799608,0.0011832344974964982
-0.4981444725483016,-0.4981444725483016,1.0006560386549792,0.0009482208146496829
-0.4979485703719547,-0.4979485703719547,0.9998557199913141,0.0009689414181132117
-0.49785427781534963,-0.49785427781534963,1.000708749275174,0.0009430949381651199
-0.4977398866940348,-0.4977398866940348,0.9999388661840294,0.0009572729256966249
-0.497580657164508,-0.497580657164508,1.0000118560509517,0.0011726825485558598
-0.49741921886088675,-0.49741921886088675,1.0001551959277384,0.001146159365794226
-0.4971654112079705,-0.4971654112079705,0.9991994482223998,0.0008980075899186473
-0.49697809739009247,-0.49697809739009247,0.9991864279022936,0.0013256739427702216
-0.4968678241122689,-0.4968678241122689,0.997949463871967,0.0010668938974944253
-0.4968050379837223,-0.4968050379837223,0.9997618053555539,0.0011381120991271981
-0.496705128121539,-0.496705128121539,0.999585374656039,0.0009060305438373568
-0.4964582624088507,-0.4964582624088507,0.9996352617223174,0.0011821943466374233
-0.49633991442169645,-0.49633991442169645,1.0004890038857226,0.001132620138359339
-0.4962206693824555,-0.4962206693824555,0.9994363713203853,0.0009685139637966164
-0.4961096975071996,-0.4961096975071996,1.0006846463564023,0.0009387485906725693
-0.4960147521138424,-0.4960147521138424,0.9992375252536159,0.0011743398361147679
-0.49593269160832276,-0.49593269160832276,0.999137933560365,0.0009172363880905844
-0.4958189953737019,-0.4958189953737019,1.0011571508427568,0.0008672274550581248
-0.4956930658852798,-0.4956930658852798,1.0004073555858215,0.0011052478716994814
-0.49559168523337577,-0.49559168523337577,1.0000261192373947,0.0008864909750574893
-0.4954250608658185,-0.4954250608658185,1.000589666750383,0.0009233125534417935
-0.495280378600728,-0.495280378600728,0.9995729999283192,0.0009445117863341462
-0.49515470635087694,-0.49515470635087694,0.9990985196962567,0.000858488245358647
-0.49499506329157156,-0.49499506329157156,1.0002698781690242,0.0009741782421195194
-0.494788574163249,-0.494788574163249,0.999700618941812,0.0008702013133668057
-0.49464848865318345,-0.49464848865318345,1.000014149543628,0.0009217495340031856
-0.49450476508136487,-0.49450476508136487,0.9988653833305374,0.0009044466700830521
-0.494323838238779,-0.494323838238779,0.9999844788780864,0.0009989637608698006
-0.49425182063059764,-0.49425182063059764,1.000115733275543,0.0009834386195906064
-0.4941052062888048,-0.4941052062888048,1.0004140308814653,0.0009556186806100625
-0.4938974751297792,-0.4938974751297792,1.0005322959717426,0.0011505474262497558
-0.49374785001200505,-0.49374785001200505,0.9994422455821619,0.0008770276047237521
-0.4936608232106664,-0.4936608232106664,0.999902231824841,0.000916758165595006
-0.4935646756828646,-0.4935646756828646,0.9991769511121598,0.0008397289985495838
-0.4935064715835324,-0.4935064715835324,0.9991291657372857,0.0011588523166014112
-0.4933666658012953,-0.4933666658012953,1.001416323959254,0.0012491298112476293
-0.4932693445312907,-0.4932693445312907,0.9996245951902253,0.0008610002122115571
-0.4930245665469556,-0.4930245665469556,1.0010542720090352,0.0013635486061867018
-0.4928161028685281,-0.4928161028685281,1.0009789505233655,0.0008922478173752392
-0.4927099719279795,-0.4927099719279795,0.9992460672476083,0.0011558950897735314
-0.4926112476081471,-0.4926112476081471,0.999742020466087,0.0008886811259560419
-0.4924508142801642,-0.4924508142801642,0.9997362816400642,0.0009173224839392258
-0.49229648668333537,-0.49229648668333537,0.9999185568349155,0.0009765032729502434
-0.4922333802031062,-0.4922333802031062,0.9992209476673655,0.0011091516981134287
-0.4920799108200299,-0.4920799108200299,1.0003241694375251,0.0011326986051822864
-0.4919209554740519,-0.4919209554740519,1.0004764449788959,0.0012037702640956597
-0.49179993572761305,-0.49179993572761305,0.9987908837639358,0.0012034044120576713
-0.4916722230707819,-0.4916722230707819,1.0000416543278616,0.0009183927239472575
-0.4915593900426757,-0.4915593900426757,0.9996917584355508,0.001155947781801349
-0.4913974558643531,-0.4913974558643531,1.0000070217436006,0.0009480483801077022
-0.49127992446374263,-0.49127992446374263,1.0012823539441373,0.0009502721057169097
-0.4911344027168525,-0.4911344027168525,1.0005950422236654,0.0011175625406124354
-0.49102732084284073,-0.49102732084284073,0.9991583677071963,0.0008954638618269117
-0.4909360920973995,-0.4909360920973995,1.000026524245857,0.0010094606185955392
-0.4908458811900346,-0.4908458811900346,1.0012883075669192,0.0009735636783758262
-0.49080074712182975,-0.49080074712182975,0.9999509836955452,0.0008961970086875668
-0.4907199086010223,-0.4907199086010223,1.0007173201086261,0.0008920841116035149
-0.49055948427994733,-0.49055948427994733,1.0009116796696316,0.0009548623705943558
-0.49034251985358424,-0.49034251985358424,1.000110510182777,0.0009302626369840329
-0.4900934193712601,-0.4900934193712601,1.000079938966909,0.0008913892060378248
-0.4899589275533799,-0.4899589275533799,0.9999538093981535,0.0010163864645229878
-0.4897983202805335,-0.4897983202805335,0.9991850982301467,0.0011353493073705933
-0.4897176588376169,-0.4897176588376169,1.001247363403626,0.0008689216888837876
-0.48957521878546684,-0.48957521878546684,1.000885477853178,0.0008752442534845645
-0.48941521780434416,-0.48941521780434416,0.9998377322625055,0.0011920698401593384
-0.4892827683557698,-0.4892827683557698,1.0008167896291429,0.0009314145758886705
-0.4891473625742947,-0.4891473625742947,1.0003563238204736,0.001161619957531767
-0.48898512426021623,-0.48898512426021623,0.9994184338313323,0.0008761951009635595
-0.4887058330059517,-0.4887058330059517,0.9988604597229838,0.0011252089781708385
-0.4885973554861266,-0.4885973554861266,1.0003968733097102,0.0008972889908648587
-0.48854713229447955,-0.48854713229447955,1.000643861605337,0.0011284837690811397
-0.48847831327293534,-0.48847831327293534,0.9990562745149415,0.0009151727133752481
-0.4883970178299933,-0.4883970178299933,0.9991054117888141,0.000978430155202862
-0.4881964939602767,-0.4881964939602767,0.9995972223874283,0.0011601074012428673
-0.4880249824025668,-0.4880249824025668,0.999330614725302,0.0011659314444267433
-0.4878657866938738,-0.4878657866938738,1.0002815177681685,0.0012026987896289294
-0.48776277811193725,-0.48776277811193725,1.0000254422758323,0.0009379318338012478
-0.4876742356253089,-0.4876742356253089,1.0004061905812667,0.0009341016235199396
-0.48756407643086275,-0.48756407643086275,0.9997086620069846,0.000995130648494659
-0.4875283435903839,-0.4875283435903839,1.0017435936422898,0.0010814117619603718
-0.4874930346995825,-0.4874930346995825,0.9998953778930465,0.0012590340021258635
-0.48736459564752294,-0.48736459564752294,0.9988735435887639,0.0009445010567038266
-0.4872055984138569,-0.4872055984138569,0.9995083206704629,0.0009289599916491604
-0.4871106817976397,-0.4871106817976397,0.9993076136506269,0.0009394283344457445
-0.48702290616347454,-0.48702290616347454,0.9999247294136318,0.0008682596695056882
-0.486817828315543,-0.486817828315543,1.000237151328662,0.0007658997354275199
-0.48675229766158734,-0.48675229766158734,1.0011648316968622,0.000854005688720944
-0.48662858792231417,-0.48662858792231417,0.999519541737681,0.0011458103639854877
-0.4864038399704441,-0.4864038399704441,0.9990390372931414,0.0009746840881559771
-0.48612310057214925,-0.48612310057214925,0.9994690201249151,0.0009554228283385266
-0.4859966715332121,-0.4859966715332121,1.0006080491383953,0.0009487350426505975
-0.48581235838137216,-0.48581235838137216,0.9995027355107453,0.0011742560105403848
-0.48564002882776547,-0.48564002882776547,0.998208055627486,0.0011567893387505039
-0.48536161468728095,-0.48536161468728095,0.9990850949949586,0.001140908244166018
-0.48516265387952445,-0.48516265387952445,1.0000033898729532,0.0013254539652572412
-0.4850223735338659,-0.4850223735338659,0.9982773120731849,0.0010408266523997858
-0.48496529940603067,-0.48496529940603067,0.9987811295937741,0.0011715747829899403
-0.48472101376100907,-0.48472101376100907,0.9983528654123701,0.0011848488899302493
-0.4845669132642797,-0.4845669132642797,0.9998045599384312,0.0008942933395049769
-0.48446101880326753,-0.48446101880326753,1.000719833587739,0.0011779620766078206
-0.4843194730754476,-0.4843194730754476,0.9997783099585662,0.0009404519336661572
-0.4842328386235749,-0.4842328386235749,1.0005973273370554,0.001181354357183944
-0.48414062385709256,-0.48414062385709256,0.9986482541664662,0.0009638622974100121
-0.4840475390912616,-0.4840475390912616,1.0005019614816384,0.0008618832515929403
-0.48392269403411775,-0.48392269403411775,1.0009660478932323,0.001128184563704318
-0.48380925729725277,-0.48380925729725277,1.0000321694089676,0.0008863636941590081
-0.4836806802253705,-0.4836806802253705,0.9996459893143321,0.0009339995177881243
-0.48351756915217264,-0.48351756915217264,0.9989117516842967,0.0009486368373813377
-0.48337275869125734,-0.48337275869125734,1.0004422241181001,0.0008327928094891848
-0.48314613302063664,-0.48314613302063664,1.0007533179423298,0.0009626255846534469
-0.48292623264569556,-0.48292623264569556,0.9988744875526955,0.0009266227296536218
-0.482786276362458,-0.482786276362458,0.9996503648077784,0.0008943966104337151
-0.48262656049919317,-0.48262656049919317,0.9991007073545581,0.0009536438497496087
-0.4824773246378754,-0.4824773246378754,0.999748513188389,0.000962328847970605
-0.4823291290354973,-0.4823291290354973,1.0004026624440323,0.001017539476581112
-0.482174843375833,-0.482174843375833,1.001439318657387,0.000919798547195869
-0.4819730721093947,-0.4819730721093947,0.9999278128340461,0.0011433797125840568
-0.4818514432939992,-0.4818514432939992,0.9998706872554971,0.0009097823588791286
-0.4817168827423302,-0.4817168827423302,0.9990719139394997,0.0008140137402979196
-0.4816389537329087,-0.4816389537329087,0.9996187175288279,0.0013574789990934582
-0.4815154145224369,-0.4815154145224369,1.0015198052884975,0.0009862358966366918
-0.48141151134623217,-0.48141151134623217,0.9997214018251721,0.0011252945565301377
-0.481178313633427,-0.481178313633427,0.9996211688339571,0.0011721717829038807
-0.4810360941941326,-0.4810360941941326,1.0005201185681543,0.000868818260417693
-0.4809437103380333,-0.4809437103380333,1.0004061297799134,0.001153150169816413
-0.4808523624946247,-0.4808523624946247,0.9987286211027474,0.000924896665722441
-0.48078035283106146,-0.48078035283106146,0.9982309014818715,0.0008603825227779426
-0.4806141208828194,-0.4806141208828194,0.9992430161866246,0.0009559244975736395
-0.4804831139044836,-0.4804831139044836,1.000985021067629,0.0009650666714898888
-0.4804261046323518,-0.4804261046323518,0.9997495965989807,0.0011110386560417276
-0.4802780428450205,-0.4802780428450205,1.0001287002533974,0.00110169432390223
-0.48014654042199256,-0.48014654042199256,0.999951175777921,0.0009658112025131491
-0.48002838381726176,-0.48002838381726176,0.9992448390240535,0.0011779714796833454
-0.47989089837428767,-0.47989089837428767,1.0000769901601725,0.0009674784172448395
-0.47979282459418754,-0.47979282459418754,0.9990845050458523,0.001164243867763724
-0.4796549986880564,-0.4796549986880564,0.9999272681138516,0.0008829421223750505
-0.47952190679789053,-0.47952190679789053,1.0007396075587143,0.000911579747638284
-0.479394604243862,-0.479394604243862,1.0002283970589272,0.000959356844146444
-0.47925597155772265,-0.47925597155772265,1.0001170485793316,0.0010858259286201616
-0.479144870716118,-0.479144870716118,1.0000547546486687,0.0009625100278768171
-0.4790197635877121,-0.4790197635877121,1.000767338810471,0.0009526712081511576
-0.47897083355419456,-0.47897083355419456,0.9997823063429212,0.0009195157420206502
-0.47888465924188495,-0.47888465924188495,1.0006245872006527,0.0009330739745054418
-0.47869024989340686,-0.47869024989340686,1.0002820913217694,0.0009423109335199107
-0.4784960665521794,-0.4784960665521794,1.0005042424210402,0.0011893570666346902
-0.4783165770873893,-0.4783165770873893,1.0007097842798092,0.0008252660634689936
-0.47819342067668913,-0.47819342067668913,1.001050914166929,0.0009774907678015395
-0.4780867152789142,-0.4780867152789142,1.0005154817577697,0.0008706190517758996
-0.4779648435920535,-0.4779648435920535,0.9994916204321477,0.0011259351312466416
-0.47782246319402477,-0.47782246319402477,0.9994367714126987,0.000907905230213453
-0.4776107565332495,-0.4776107565332495,0.9990252361644743,0.001130122035772624
-0.4774663109921676,-0.4774663109921676,0.9999460120256363,0.00096091818929581
-0.47728604035146416,-0.47728604035146416,1.000460099845538,0.0011066140969670645
-0.47709602700633696,-0.47709602700633696,0.9996020752172743,0.0009462661693287452
-0.476844565954525,-0.476844565954525,0.9990828322131133,0.0011369364732302396
-0.47676414156812824,-0.47676414156812824,1.0002221142872592,0.0011429380534967695
-0.47667797039393917,-0.47667797039393917,0.9991742317898742,0.0008900927305991377
-0.47663278026229816,-0.47663278026229816,0.9997200874296928,0.0009205398837159069
-0.47652392856034564,-0.47652392856034564,0.9989013648577714,0.001164654712976012
-0.4763967604398204,-0.4763967604398204,0.9997998695927415,0.0009315221465322754
-0.4762419134051015,-0.4762419134051015,0.9989169755916778,0.0011571639115233502
-0.47606727724632947,-0.47606727724632947,0.9982651186045579,0.0011199846817128187
-0.4759460897432291,-0.4759460897432291,0.9992686150508112,0.0009368618640682065
-0.47584738960067624,-0.47584738960067624,0.9989328531523756,0.0009347145532481551
-0.4757308257729164,-0.4757308257729164,1.0000938109651607,0.0011175632797859915
-0.4757199858526292,-0.4757199858526292,0.9999798288783707,0.0009685487502422263
-0.4756860179855721,-0.4756860179855721,1.0005610701454977,0.0011737233857469494
-0.47558077874200533,-0.47558077874200533,0.9995229574349752,0.0009489957072020504
-0.4753351381041284,-0.4753351381041284,1.0001905152367125,0.0009377460787009446
-0.47525234486165574,-0.47525234486165574,1.0008814695748187,0.000886847662940521
-0.4750965650746366,-0.4750965650746366,0.999136136010166,0.0008515073444297824
-0.47497973234567326,-0.47497973234567326,0.9999029763423252,0.0007808498490060067
-0.47492869655252434,-0.47492869655252434,1.0000273716327697,0.0009143359873705759
-0.4747762724597123,-0.4747762724597123,1.000521297967952,0.0011133720002569965
-0.47463134912686655,-0.47463134912686655,0.9998701377557545,0.0009429553693512182
-0.47439304695726603,-0.47439304695726603,0.9988740003862459,0.0012202330268738589
-0.47422213552345055,-0.47422213552345055,1.0002784538562008,0.0009395965725816051
-0.474113339548785,-0.474113339548785,0.9997416200845013,0.0011741220824842392
-0.4739181160766748,-0.4739181160766748,0.9997619859844227,0.0012275610282778367
-0.4736613344211946,-0.4736613344211946,1.0003936792406358,0.0010536220524962757
-0.47344114117440766,-0.47344114117440766,1.0000488053945338,0.0011399198289908838
-0.4733273607031151,-0.4733273607031151,0.9994393262750199,0.001133619285181142
-0.4732060327209183,-0.4732060327209183,1.0002634442768052,0.001120467824645795
-0.4731057906028582,-0.4731057906028582,1.000147499356374,0.0009248127899453739
-0.47286273319914474,-0.47286273319914474,1.000475157842725,0.0011685297991779113
-0.47273770874162435,-0.47273770874162435,0.9989760988856087,0.0008988307582392165
-0.4726552333107975,-0.4726552333107975,0.999777388212961,0.0011671641139820782
-0.4725003830033529,-0.4725003830033529,1.000556948806751,0.0009414934081551993
-0.4724086840440577,-0.4724086840440577,0.9990515189944343,0.001182163099312189
-0.4723219586616324,-0.4723219586616324,0.9992177305467976,0.0009818126775515486
-0.47223816126352175,-0.47223816126352175,1.0002873780758021,0.0008424693381593265
-0.47208493440411986,-0.47208493440411986,1.0010973551681221,0.001101599829709488
-0.47198309856175913,-0.47198309856175913,0.999292488363168,0.0009304447643103427
-0.4718235653519514,-0.4718235653519514,1.0008906801376083,0.0009488548068671785
-0.4716173854103545,-0.4716173854103545,0.9995811385290437,0.000908588842467171
-0.47145041974072227,-0.47145041974072227,1.0003531259275618,0.0009732222081954353
-0.47119411496678365,-0.47119411496678365,0.998973895263843,0.000855385968883296
-0.47105685163041927,-0.47105685163041927,1.0004237288746178,0.0008947858606038536
-0.4709510484281054,-0.4709510484281054,0.9989255022038265,0.0009454446297257151
-0.4707656749676971,-0.4707656749676971,1.0001306476052125,0.0009421102773701671
-0.4706249918221147,-0.4706249918221147,0.9999530527647877,0.0009855427812173175
-0.4704321276971314,-0.4704321276971314,0.9997966328138919,0.0009604876556660846
-0.4702784413704649,-0.4702784413704649,1.0002465963511624,0.001154951212850234
-0.4701114196919661,-0.4701114196919661,0.999668259671439,0.0008951416891216658
-0.4699766379555513,-0.4699766379555513,0.9998752902370661,0.0009315828997081088
-0.46988592810303087,-0.46988592810303087,0.9979006580235581,0.0008258640537773438
-0.4697976292052772,-0.4697976292052772,1.001866357745501,0.0013931414508843332
-0.46966418973897817,-0.46966418973897817,1.0011817742814775,0.0008899006433704295
-0.4695204561932769,-0.4695204561932769,0.9997947533475846,0.001167028374030329
-0.46931740622021606,-0.46931740622021606,1.0003858582367315,0.0011611722891677885
-0.46915781167699605,-0.46915781167699605,1.0007304297929216,0.0011622534497340113
-0.4690729575479054,-0.4690729575479054,0.9998949089636454,0.0009079949090246188
-0.46900544185555193,-0.46900544185555193,1.0003249992209091,0.0009056306422954135
-0.4688956551537558,-0.4688956551537558,1.000102716002482,0.0008893505733118574
-0.4686862697395554,-0.4686862697395554,0.9992999137329825,0.0009472588015295132
-0.4686187038911157,-0.4686187038911157,0.9997904416072517,0.0011349726685595286
-0.46847471909131855,-0.46847471909131855,1.000305345080118,0.001133822215697876
-0.46831506633097886,-0.46831506633097886,1.000219037885524,0.0009756650967943054
-0.46817844126344427,-0.46817844126344427,0.9995798854058,0.0011773145318712517
-0.4680243913695449,-0.4680243913695449,1.0001603664416612,0.0011985918744176944
-0.46791238224541304,-0.46791238224541304,0.9994664878460447,0.0009371539828003865
-0.4677287628619524,-0.4677287628619524,0.9995409326840562,0.0009252401718932801
-0.46757703772964304,-0.46757703772964304,0.9990806419328706,0.000914715990329752
-0.46747202773258323,-0.46747202773258323,1.0012483241164993,0.0010853670311551397
-0.4673138001533516,-0.4673138001533516,0.9993921005877151,0.001002808789960983
-0.46719414066756143,-0.46719414066756143,1.0000831406457589,0.0009795481317708976
-0.46713662732145167,-0.46713662732145167,1.0000819644243655,0.0009271600437775675
-0.46704667836020236,-0.46704667836020236,1.0004822859925009,0.0008549367957985698
-0.46687831207673297,-0.46687831207673297,0.9997233404634358,0.0009463506483381271
-0.4666910837753676,-0.4666910837753676,0.9995768090910107,0.001176461924517475
-0.46651322529796746,-0.46651322529796746,1.0002469419160294,0.0007693263095721783
