time,time,flux,flux_err
-0.4998240361619537,-0.4998240361619537,0.9997725861157482,0.00024255352722560232
-0.4996207936790597,-0.4996207936790597,1.0001592950096225,0.00022738409391511596
-0.4993637233746995,-0.4993637233746995,0.9999882377418956,0.00021893766418438227
-0.49916113265862805,-0.49916113265862805,0.9999685003379032,0.0002070196651775975
-0.4988872654765146,-0.4988872654765146,1.0004637949372137,0.0002276711899706284
-0.498760955977923,-0.498760955977923,1.0000754888337515,0.00020800421192694132
-0.498579399773007,-0.498579399773007,0.9998198210495233,0.00022932254629948588
-0.4983836679632077,-0.4983836679632077,0.9998340449197378,0.00019985403299888673
-0.49807115721851003,-0.49807115721851003,1.0001164415322685,0.00025373188234935877
-0.49781883458636,-0.49781883458636,1.000022028713817,0.0002287549876848898
-0.4976026193849975,-0.4976026193849975,0.999923815397687,0.00022720417205037221
-0.4973585088373511,-0.4973585088373511,1.000072609709742,0.00023528526945044222
-0.4972188910775003,-0.4972188910775003,0.9998087932368414,0.00022800305835648217
-0.49712093434209237,-0.49712093434209237,1.0001963488500067,0.0002189434626605899
-0.4968656474724412,-0.4968656474724412,1.0003258178846428,0.00022310665466593885
-0.4966982852645742,-0.4966982852645742,0.9998062426833899,0.00022729831642254633
-0.4965163327600749,-0.4965163327600749,0.9996731946163896,0.00019434083316594638
-0.4963901535840705,-0.4963901535840705,0.999797571534361,0.00022437476989285582
-0.49622780403806244,-0.49622780403806244,0.9997491226603419,0.00022422163851107957
-0.49596420756424775,-0.49596420756424775,1.0003041809353153,0.000211507583634154
-0.4958189732991741,-0.4958189732991741,1.0001011216526867,0.0002304004293990491
-0.49565788891268314,-0.49565788891268314,1.0000413231532055,0.00023361288167304795
-0.495427821247722,-0.495427821247722,0.9999939870892252,0.00020010546253975786
-0.49508966296925794,-0.49508966296925794,1.0000780408581746,0.000234372995826315
-0.49484351101200447,-0.49484351101200447,0.9999492859990291,0.0002464125719446175
-0.49460405488061954,-0.49460405488061954,0.9997271910722481,0.00020988492812862671
-0.4944612991246686,-0.4944612991246686,1.0000278128128988,0.0002048861951473014
-0.49432058706370297,-0.49432058706370297,0.9998722101619484,0.0002381762939928572
-0.4942385090369498,-0.4942385090369498,1.00028133171284,0.00022591615202696805
-0.4940132372372318,-0.4940132372372318,0.9996861634063683,0.0002130105982850442
-0.49385158346340174,-0.49385158346340174,0.9998321792183592,0.00024362062601284763
-0.4937277090444695,-0.4937277090444695,1.0000239157910875,0.00025936478972533893
-0.49350307266431626,-0.49350307266431626,0.9999467766220672,0.0002274215188777616
-0.49327614195499336,-0.49327614195499336,1.00009136082212,0.00020692027590047142
-0.4930189492282807,-0.4930189492282807,1.0002082438710016,0.000205572550815567
-0.4928891532952548,-0.4928891532952548,0.9996637051891593,0.0002351473144477952
-0.4927112971658062,-0.4927112971658062,0.9999504285108127,0.0002337477934518677
-0.4924761214329919,-0.4924761214329919,0.9997616991056804,0.0002013972660456854
-0.49214503456605596,-0.49214503456605596,0.9998279665233601,0.00021690758447564796
-0.4918516670273675,-0.4918516670273675,1.000108274600781,0.00025227955294168967
-0.49157726220146286,-0.49157726220146286,0.9994932571097188,0.0002064568433852854
-0.49147285258950435,-0.49147285258950435,0.999971252195764,0.00022211484512196116
-0.491358361163293,-0.491358361163293,0.999968653723265,0.00023836996509110517
-0.4912307566337404,-0.4912307566337404,0.9997510826565182,0.00023745090857616572
-0.4909523490772699,-0.4909523490772699,0.9999412014398168,0.000227494955275234
-0.4907893152187171,-0.4907893152187171,0.9996298272741786,0.00023939844944247888
-0.4905574368582165,-0.4905574368582165,0.9996440848997417,0.00023479237126986305
-0.4902434352552518,-0.4902434352552518,0.999642862215004,0.00020407619273856925
-0.49002462265852953,-0.49002462265852953,0.9998207608084491,0.00022381772308136216
-0.48987944702312236,-0.48987944702312236,1.0000482848097483,0.0002302507873526623
-0.4897161918313941,-0.4897161918313941,0.9998909028368106,0.00023323648252463722
-0.4894245678806328,-0.4894245678806328,0.9997939178339952,0.00022490814058396475
-0.48922379465802807,-0.48922379465802807,1.0002849268014427,0.0002342189715466471
-0.4889859300179523,-0.4889859300179523,1.0001539607425751,0.00024048398472404598
-0.4887409665636369,-0.4887409665636369,0.9995899637171511,0.00021476136890483487
-0.4886098715520347,-0.4886098715520347,0.9998218597405625,0.0002093123627069126
-0.48849045327006024,-0.48849045327006024,1.0002667619007894,0.0002278794579916745
-0.48837015531535144,-0.48837015531535144,0.9999998905115441,0.0002297362137598233
-0.48816243589753866,-0.48816243589753866,0.9998487512691818,0.00024457281482529976
-0.4879762578668306,-0.4879762578668306,0.9998621970083479,0.0002454325864371804
-0.4878055138171476,-0.4878055138171476,0.9997734712986347,0.0002444283669306397
-0.4874842846533284,-0.4874842846533284,1.0000319345931337,0.00021113522868188234
-0.48717115892577567,-0.48717115892577567,1.0001647762043901,0.00019924903321434613
-0.4870450734808401,-0.4870450734808401,1.0001775247764848,0.00022828554642293918
-0.486877302123321,-0.486877302123321,0.9998232493795307,0.00025038228123767513
-0.4866222760821984,-0.4866222760821984,0.9998412778943034,0.00022543010874138638
-0.48638320880781977,-0.48638320880781977,1.0000560244805212,0.00020043316987518935
-0.4861006305400224,-0.4861006305400224,0.999897377210346,0.00023294962347012146
-0.48585430761377213,-0.48585430761377213,0.9998505402658994,0.00026306243387978767
-0.4856802095710009,-0.4856802095710009,1.0001350945320948,0.0002074032298510537
-0.48557355854645723,-0.48557355854645723,0.9999581558390954,0.0002038542959122525
-0.4854497837208328,-0.4854497837208328,0.9998913669249141,0.00024060632880693083
-0.4852586415821861,-0.4852586415821861,1.0000683688929737,0.0002524906252271631
-0.48508661682062665,-0.48508661682062665,0.9995766353879205,0.00020374890528524828
-0.48491756824296317,-0.48491756824296317,1.0001988305111293,0.00025927776114100084
-0.4845792930536845,-0.4845792930536845,0.9999001299854372,0.00021630926702234472
-0.48426855340439945,-0.48426855340439945,0.999535689107803,0.00019940204016969106
-0.48407609439382215,-0.48407609439382215,1.0000668794198906,0.00024370848830697128
-0.4839433820146951,-0.4839433820146951,0.9995287347537175,0.00023216124008001746
-0.4837342847058608,-0.4837342847058608,0.9997403534724185,0.00021215724895053823
-0.4834458200712106,-0.4834458200712106,1.0002760014502825,0.00022312684472768334
-0.4831775174861832,-0.4831775174861832,1.00005911562409,0.00023172283597825972
-0.4829687861732964,-0.4829687861732964,0.9998373933452905,0.00024263574285314033
-0.4828425104358757,-0.4828425104358757,0.9998617458585123,0.0002411516775604401
-0.4826769830295234,-0.4826769830295234,0.99991848129466,0.0002022306632406395
-0.4825504987042223,-0.4825504987042223,0.9998565932818222,0.00022664295299898196
-0.4824218161724275,-0.4824218161724275,1.0000263575388266,0.00022966642465182893
-0.48224402990817905,-0.48224402990817905,0.999890224575225,0.00024064910462558704
-0.48204967408964877,-0.48204967408964877,0.9998376628900608,0.00024861838628947256
-0.4816837560254498,-0.4816837560254498,0.9997320506505176,0.0002257668124751434
-0.48140618129691576,-0.48140618129691576,0.9998348844331755,0.00021452769846689394
-0.481173042262526,-0.481173042262526,0.9996793014066508,0.0002244378956248824
-0.48100552273972424,-0.48100552273972424,1.000050472181441,0.00023607302977835654
-0.4807768342245254,-0.4807768342245254,0.9997593654484799,0.00021234986211946305
-0.4806079975969624,-0.4806079975969624,1.0000178823378858,0.00021398855848721912
-0.48044226503407117,-0.48044226503407117,0.9999751203182831,0.0002398347197670191
-0.48015390612272313,-0.48015390612272313,0.999824082180562,0.0002611185857919409
-0.47999227828840957,-0.47999227828840957,0.9996939113058636,0.0002244185426458337
-0.4798613330262015,-0.4798613330262015,1.000190938532365,0.00020580091680878982
-0.47964545306240325,-0.47964545306240325,0.9996332889142204,0.00022868877367741868
-0.4794640137726674,-0.4794640137726674,1.0002856555879578,0.00022527707689180067
-0.4793213207856752,-0.4793213207856752,1.000083009998416,0.00023687076133469502
-0.4791551394700946,-0.4791551394700946,1.0003231938579837,0.00023084035970648916
-0.4789009886211716,-0.4789009886211716,0.999907476256222,0.00026047730825475674
-0.4785854890651535,-0.4785854890651535,1.0000149739847264,0.00020645445702836251
-0.4783528871485032,-0.4783528871485032,1.000211316818508,0.00023001232652316775
-0.47817960680185934,-0.47817960680185934,0.9997940080241084,0.0001951041833216012
-0.4780752388855035,-0.4780752388855035,1.0000631726244449,0.00024126089016662995
-0.4778610734610993,-0.4778610734610993,1.0001868627688055,0.00021291448160038026
-0.4776026331906905,-0.4776026331906905,1.0004583967210916,0.0002390565696055016
-0.47739617110564725,-0.47739617110564725,0.9997830011621666,0.00021932101118325454
-0.4771178251663514,-0.4771178251663514,0.9996163833869552,0.000211617172568127
-0.47692372021410845,-0.47692372021410845,1.0000746592392185,0.0002183956872095587
-0.47669843973126264,-0.47669843973126264,0.9994924429701684,0.00022876883150333623
-0.47649288125903694,-0.47649288125903694,1.0000489551473613,0.00023357795618201074
-0.47633768550658717,-0.47633768550658717,0.9997474403959803,0.00022820364309235818
-0.47613019451964644,-0.47613019451964644,1.000189935294832,0.0002498043982651619
-0.4757297117699636,-0.4757297117699636,0.999834518468284,0.00023700199848237635
-0.4754081466875505,-0.4754081466875505,0.9997403940426468,0.0002443133770324877
-0.4752014613673964,-0.4752014613673964,0.9998307853352145,0.00020628143491453443
-0.47497826890830763,-0.47497826890830763,1.0000898842571087,0.0002346665976253036
-0.47475148775192794,-0.47475148775192794,1.0000701929042473,0.00022509650839176953
-0.47455394759454067,-0.47455394759454067,1.0001286181939686,0.0002177834754769127
-0.47438227449601983,-0.47438227449601983,0.999827089950816,0.0002249706402667329
-0.47418694172156395,-0.47418694172156395,1.000156040426528,0.00024053553420676417
-0.47405024264298845,-0.47405024264298845,1.000030175229735,0.00021971830800768602
-0.4738587035084493,-0.4738587035084493,0.9997194342188485,0.00023464361538766244
-0.47369061262434115,-0.47369061262434115,1.0002294723340337,0.0002498357950229618
-0.4734759902647056,-0.4734759902647056,1.0000080994129479,0.000253121122428787
-0.4733666679392627,-0.4733666679392627,0.9996992197552175,0.00022825314492306523
-0.4732119352913287,-0.4732119352913287,0.999977780047874,0.00024488555397854747
-0.4729204895782459,-0.4729204895782459,1.0002765378590783,0.0002459444848879117
-0.4725829385519319,-0.4725829385519319,0.9997685398996999,0.00023574756667883454
-0.4723603183199884,-0.4723603183199884,1.0001507176889401,0.00022925993476445003
-0.4722119957943505,-0.4722119957943505,0.9997401385788613,0.00022680523274332524
-0.47189309328605306,-0.47189309328605306,0.9997397776779382,0.0002374047739285902
-0.47160388295087613,-0.47160388295087613,0.999914105536815,0.0001994428184906792
-0.4713856764297816,-0.4713856764297816,0.9998417257302463,0.00023114126304245552
-0.4711899518617429,-0.4711899518617429,0.9999836727323158,0.000222048790901956
-0.4710521937769954,-0.4710521937769954,0.9998253808519317,0.00023834910573020777
-0.47082033510087057,-0.47082033510087057,0.9998390222071629,0.00023059781220334427
-0.4706617685878882,-0.4706617685878882,0.9999704181808424,0.00023531980783088866
-0.47044330991775496,-0.47044330991775496,1.000019451906579,0.00023493277842466967
-0.4703522224896005,-0.4703522224896005,1.0000298955965736,0.00023426091847776912
-0.47016464339467345,-0.47016464339467345,0.999863855921275,0.00027626927528914575
-0.46986071464270934,-0.46986071464270934,0.9999076770512637,0.00022048487942172645
-0.46962992168191703,-0.46962992168191703,1.0001808714726068,0.00023319362776128683
-0.46946265695951295,-0.46946265695951295,0.9997237404938971,0.0002536424949638344
-0.46923437658988404,-0.46923437658988404,1.0002731076630786,0.00022358567339836408
-0.46886946730446655,-0.46886946730446655,0.999847738282484,0.00022519545027066735
-0.46866563403746114,-0.46866563403746114,1.0002666410933816,0.00019955217653813971
-0.46847047993142044,-0.46847047993142044,1.0002136168417828,0.0002767291703430635
-0.4682365225911781,-0.4682365225911781,1.0002945566051886,0.00023709077758031705
-0.4680660095407802,-0.4680660095407802,0.9999206953273909,0.0002314987720238969
-0.4678292111319024,-0.4678292111319024,1.0000823125425993,0.00023098551195919448
-0.46755193991339183,-0.46755193991339183,1.0002771226911982,0.00026070509110408594
-0.467464595916681,-0.467464595916681,0.9998086778858152,0.00020601548880811582
-0.46736506394518074,-0.46736506394518074,0.9997785921891287,0.00023411931315613023
-0.4670930010426673,-0.4670930010426673,0.9996634032088872,0.0002572955841871014
-0.4668268254223221,-0.4668268254223221,1.0001741804229352,0.0002056321080106175
-0.466629150868539,-0.466629150868539,1.0000779851733308,0.00023555019075437245
-0.4664317023038166,-0.4664317023038166,1.000023083540888,0.00022953395953702376
-0.46611927693811595,-0.46611927693811595,0.9998272144064224,0.00022552879750302343
-0.46576988933593383,-0.46576988933593383,1.0000591283560814,0.00019910017403792905
-0.4655127723272017,-0.4655127723272017,0.9998679400347837,0.00026621774514270434
-0.46527803335120554,-0.46527803335120554,0.9999239478393347,0.00022060973992400068
-0.4650541755720042,-0.4650541755720042,0.9997930035226883,0.00024813205828069887
-0.46473290038848064,-0.46473290038848064,0.9996471993688457,0.00025054046923820623
-0.46450102148301087,-0.46450102148301087,1.0000736519876239,0.0002331619453650651
-0.4644124309095787,-0.4644124309095787,0.9999192534031657,0.00024409350546867746
-0.464083519551059,-0.464083519551059,1.0000329162273804,0.0002620923811327511
-0.4638419698581856,-0.4638419698581856,0.9999456197234343,0.00019778286368180988
-0.46367658957315144,-0.46367658957315144,0.9996418773271485,0.00023538259718705978
-0.46346292304515374,-0.46346292304515374,0.9998840096238236,0.0002349332157705962
-0.46306554949405837,-0.46306554949405837,0.999762589807974,0.00021911271393491974
-0.4627657491240825,-0.4627657491240825,0.9998934791865548,0.00020547591637470793
-0.46255510331247934,-0.46255510331247934,1.00021133853715,0.00025700968200316335
-0.46232336474276964,-0.46232336474276964,0.9997680410564211,0.00022061659980202297
-0.46216324766210165,-0.46216324766210165,1.000255500186769,0.00023207643584715072
-0.46193606289598393,-0.46193606289598393,1.0002866878617866,0.0002513803538422382
-0.46157097088871524,-0.46157097088871524,0.9997442817824904,0.00024123074765798678
-0.4614989850888378,-0.4614989850888378,1.0000374055853307,0.0002342989315323925
-0.46135224582103546,-0.46135224582103546,0.9998733295304882,0.0002579050756683477
-0.46099120764338297,-0.46099120764338297,1.0002878132583473,0.0002198588332554697
-0.46078568642551543,-0.46078568642551543,0.9998462726411639,0.00023305666527201983
-0.46060065412166296,-0.46060065412166296,0.9998462033948243,0.00023121925079149357
-0.4603110535063024,-0.4603110535063024,1.0002443683646163,0.00021859927844365486
-0.4599411154646077,-0.4599411154646077,0.9996885451265767,0.0002057828180602516
-0.4596509000446531,-0.4596509000446531,1.000153097224704,0.00024756260025855705
-0.459405736442568,-0.459405736442568,0.9998794011324964,0.00021865611855255294
-0.45925033368112056,-0.45925033368112056,1.0000165625396735,0.0002261928492731637
-0.4590771096212848,-0.4590771096212848,1.0001511438517592,0.00021094894983962378
-0.4589560947730206,-0.4589560947730206,1.0001103104219602,0.0002512375411221447
-0.45858989414118695,-0.45858989414118695,1.0000596458210262,0.0002452272594072432
-0.45850815412486556,-0.45850815412486556,1.000257307670566,0.0002303082889793384
-0.4583184950803115,-0.4583184950803115,0.999874963215818,0.0002471708830759595
-0.45802035937813346,-0.45802035937813346,0.9999540280725642,0.000198679923848416
-0.4577831778289692,-0.4577831778289692,1.0001367811833939,0.00023369654821737127
-0.45756844888892373,-0.45756844888892373,0.9999611907676442,0.0002352455895018763
-0.4573098325279716,-0.4573098325279716,0.9998829042755408,0.00023023618219684207
-0.4570090538887598,-0.4570090538887598,0.9996823644662095,0.0002069871946670646
-0.45673472982962265,-0.45673472982962265,1.0002451244357813,0.0002624295849002952
-0.4564562433290121,-0.4564562433290121,1.000236491123179,0.00022398161130179512
-0.4562984604985104,-0.4562984604985104,0.9996721955619592,0.00022108366504550164
-0.4561308514843404,-0.4561308514843404,1.0001454490425512,0.00025634802202341233
-0.4560083787320764,-0.4560083787320764,0.9999919667835453,0.00022869756370154956
-0.455656167910638,-0.455656167910638,0.9999314834572977,0.00025443345387835594
-0.4555755478795618,-0.4555755478795618,1.000026799136967,0.00024253309058993992
-0.45541452907491475,-0.45541452907491475,0.9998496286266858,0.0002580030303732246
-0.4551949607244751,-0.4551949607244751,0.9996839207542776,0.00020917489454256314
-0.45488778797807755,-0.45488778797807755,1.0001062817784567,0.0002335941397874608
-0.45472097954698254,-0.45472097954698254,0.9998439801717375,0.00022281559835474971
-0.45459257606053144,-0.45459257606053144,0.9998669131991041,0.00022956053331806814
-0.4543215640740527,-0.4543215640740527,0.9996627786829482,0.00023090493912126132
-0.45397037474176616,-0.45397037474176616,1.0000324987631655,0.00020666710771524762
-0.4537165395951888,-0.4537165395951888,1.0001393055855048,0.0002270000668114271
-0.4534418407696649,-0.4534418407696649,1.000096023243681,0.00021829142792174108
-0.45334096297083304,-0.45334096297083304,1.00017905493521,0.0002147514919421176
-0.45320462191011757,-0.45320462191011757,1.000095510043138,0.0002406376403016728
-0.45312472596924636,-0.45312472596924636,1.0003459578208855,0.00023058224465063217
-0.45278582114042365,-0.45278582114042365,0.999755917969442,0.00024057842442316916
-0.4526411080296384,-0.4526411080296384,0.9999167729297026,0.00023416965718195672
-0.4525186489612679,-0.4525186489612679,1.0003223935263263,0.0002636670492264083
-0.4521800151487696,-0.4521800151487696,0.9999982006072919,0.0002097952811299148
-0.45191913508460857,-0.45191913508460857,0.9998852539955572,0.00023347505742856936
-0.4517275191312365,-0.4517275191312365,1.0002827654744881,0.0002243492719157337
-0.45151535899494777,-0.45151535899494777,0.9999407431574585,0.0002061956964182011
-0.4511247346868913,-0.4511247346868913,1.000087095352173,0.00020932111941676367
-0.45088584362893014,-0.45088584362893014,1.000000241626315,0.00021126970382068884
-0.4505520084188902,-0.4505520084188902,1.0000219906023315,0.00022021260099915245
-0.4504366624132672,-0.4504366624132672,0.9995687267299918,0.00023231997759826304
-0.45031422182291864,-0.45031422182291864,1.000210655245221,0.00023781468887410065
-0.45021246994947434,-0.45021246994947434,1.0000959769050293,0.0002415261228449768
-0.4499916772016149,-0.4499916772016149,0.9998825153002426,0.00022214380443559377
-0.4497107750867144,-0.4497107750867144,0.9997801913494733,0.0002552939223703782
-0.4495680115091091,-0.4495680115091091,1.0000190267745084,0.00026387344321120225
-0.44935035856833566,-0.44935035856833566,1.0001674857929803,0.00022021970129008087
-0.449059130045498,-0.449059130045498,1.0002210358365193,0.00022545678388502397
-0.44884348756386316,-0.44884348756386316,0.999932894973924,0.00023200306568083086
-0.44872613351617474,-0.44872613351617474,0.9997988092141602,0.0002304756607991475
-0.4485442283046723,-0.4485442283046723,0.9999967295307863,0.00022771505661624525
-0.4482209684341797,-0.4482209684341797,1.0003415634518402,0.00021090900381957886
-0.4480312697036425,-0.4480312697036425,0.9994841160112541,0.00022885363491137404
