time,time,flux,flux_err
-0.4989915569161288,-0.4989915569161288,1.0004850170151132,0.0003372372532705879
-0.49810769840769353,-0.49810769840769353,1.000243389716669,0.00030946787483708874
-0.4970425154337136,-0.4970425154337136,0.9995835783232586,0.0003090799580870838
-0.4960651425164542,-0.4960651425164542,1.000227288312044,0.00030319174282630716
-0.4951858691063535,-0.4951858691063535,1.0003235540472615,0.00031949537589371897
-0.4941784914859454,-0.4941784914859454,0.9994132327081076,0.00030777166082656597
-0.49356243788206483,-0.49356243788206483,0.9999063297179382,0.0003030270308697169
-0.49228783953003585,-0.49228783953003585,0.9999578409067515,0.00031506805109109517
-0.49069509620167084,-0.49069509620167084,1.0000886903818864,0.0003046642407310405
-0.48872167591034665,-0.48872167591034665,0.9998772617152044,0.0003063713757464273
-0.4871088150306605,-0.4871088150306605,0.9996076451924955,0.0003068195919322785
-0.4860503866824729,-0.4860503866824729,1.0001027637495783,0.00030495645770136476
-0.484572398041928,-0.484572398041928,0.9999559741289602,0.0003189091218965601
-0.4838301543793932,-0.4838301543793932,0.9997816989659203,0.0003047984979067534
-0.4819590894054272,-0.4819590894054272,0.9999719140701793,0.0003135177249087995
-0.48018226864805913,-0.48018226864805913,1.0001786073592054,0.0003022220628024604
-0.4777966346198809,-0.4777966346198809,0.9999610217150232,0.0003041651949758847
-0.4762783058678906,-0.4762783058678906,0.999421429691641,0.0003030083440886121
-0.47450570763176075,-0.47450570763176075,1.0000449552589348,0.00031395748103416434
-0.4737247862714867,-0.4737247862714867,0.9996820469715871,0.0003085226253599159
-0.4723484456735605,-0.4723484456735605,1.000216611322061,0.0003120806603289586
-0.4711893257685006,-0.4711893257685006,1.0000500637843481,0.00030694983816486444
-0.47039742674678564,-0.47039742674678564,1.0002577983407546,0.0003050454613744117
-0.46911147586943114,-0.46911147586943114,0.999938079715319,0.00030957307972238933
-0.46768059734167766,-0.46768059734167766,1.0000833153080435,0.00030540662778615925
-0.4664090856742405,-0.4664090856742405,1.0001131621325676,0.00030703102933022123
-0.46526946057419993,-0.46526946057419993,0.9999528718148214,0.0003053948402542271
-0.4637547396843729,-0.4637547396843729,0.9998627569959208,0.0003044069356114802
-0.46220361829255124,-0.46220361829255124,0.999791862528658,0.00031596311014406005
-0.46115541473336635,-0.46115541473336635,1.000170401748705,0.000302972024185616
-0.4602703773496614,-0.4602703773496614,1.0000555098629758,0.0003160488074229698
-0.4592792487339466,-0.4592792487339466,0.9998870888543923,0.0003080563734362961
-0.45865253178199056,-0.45865253178199056,1.0002074352681087,0.0003031215807721073
-0.45773004814764134,-0.45773004814764134,0.9998095893622356,0.00031614974904043027
-0.45669471631626946,-0.45669471631626946,1.0003241013938557,0.00030897913175535356
-0.45538372441296815,-0.45538372441296815,0.9996852054234843,0.0003060026589984492
-0.4536087990491069,-0.4536087990491069,0.9994815301682838,0.00030592556709897116
-0.4522018112031219,-0.4522018112031219,1.0000008130280311,0.0003065525445745275
-0.451018037841277,-0.451018037841277,0.9999987642148671,0.000305759748554044
-0.4493092592965695,-0.4493092592965695,1.0000049440866638,0.0003098496252759338
-0.44863612563494826,-0.44863612563494826,0.9998939368180567,0.00030294423130944835
-0.4470947983310907,-0.4470947983310907,1.0002735607719302,0.0003223452683758083
-0.44614949310343943,-0.44614949310343943,1.000102515920171,0.0003038447392713469
-0.44378615578825703,-0.44378615578825703,0.9995321109020512,0.0003019793498007665
-0.4420851326212869,-0.4420851326212869,0.9993399732721653,0.0003058774294466062
-0.44086596608322,-0.44086596608322,0.9995520854808765,0.0003024915224455465
-0.43931553225993414,-0.43931553225993414,0.9999229347020322,0.0003083373521991632
-0.43804183646207095,-0.43804183646207095,0.9997958206813818,0.0003024554529511438
-0.43668260364429445,-0.43668260364429445,1.0001910134118561,0.0003119409924107866
-0.4361887809332984,-0.4361887809332984,0.9999536838375995,0.00031482187979352266
-0.43505629097708154,-0.43505629097708154,0.9999819632552439,0.0003025614901728009
-0.4340460049432295,-0.4340460049432295,0.9999685637290281,0.0003100567527131751
-0.4326985940882878,-0.4326985940882878,0.9997680663333153,0.0003106198464899603
-0.4313645147798525,-0.4313645147798525,0.9995991944320185,0.0003046582825431577
-0.4294426495609514,-0.4294426495609514,1.00024324032971,0.00030833372901007056
-0.42826317248691337,-0.42826317248691337,0.9997987982337957,0.0003018582645564337
-0.42650282923932537,-0.42650282923932537,1.0001526385987352,0.0003088369114049081
-0.42587730339801055,-0.42587730339801055,0.9997953908515225,0.0003132105357239052
-0.42493187588261205,-0.42493187588261205,1.0006757324855422,0.00030504015063597057
-0.4240747841053235,-0.4240747841053235,0.9997306078947762,0.00030769841337348846
-0.4234449443349149,-0.4234449443349149,0.999707376144278,0.0003104786256348841
-0.4220949280905188,-0.4220949280905188,1.0004101928172606,0.0003109560375838205
-0.42114997589451375,-0.42114997589451375,0.9998520955040938,0.00030405785572364466
-0.4193792263002251,-0.4193792263002251,0.9992639909403979,0.0003088370761255121
-0.4181605357523949,-0.4181605357523949,0.9998224940272152,0.0003051560684154234
-0.416629675324657,-0.416629675324657,0.9996840880374862,0.00031091027762269335
-0.41493744858526044,-0.41493744858526044,0.9997826295312875,0.00030679821208916627
-0.41345988343891804,-0.41345988343891804,1.0001130027989675,0.00030896648710047615
-0.4118409679780598,-0.4118409679780598,1.0000956223696342,0.00031625552787064193
-0.4107908586025587,-0.4107908586025587,0.9996510559249654,0.0003043082857413488
-0.4088754892378347,-0.4088754892378347,0.9995289874780774,0.0003023228721236886
-0.40698249265551567,-0.40698249265551567,1.0000305941211165,0.0003054543524609976
-0.4054762133542681,-0.4054762133542681,0.9998783928455028,0.00030428533174393566
-0.4039549474749947,-0.4039549474749947,0.9997035506645784,0.00030304915728680815
-0.40213120541156966,-0.40213120541156966,1.0003667460000423,0.00031290642114126975
-0.4013500195243978,-0.4013500195243978,0.9995334976437282,0.0003143808445102304
-0.4000724727899069,-0.4000724727899069,0.9998963110231734,0.00030749501035768197
-0.3990764004163793,-0.3990764004163793,0.99980505350894,0.0003119905596214434
-0.3980538504983997,-0.3980538504983997,0.9999944934710513,0.0003036111329581499
-0.3966205383723718,-0.3966205383723718,0.9998755402671407,0.0003090281671467282
-0.3949703014222905,-0.3949703014222905,0.999815041432977,0.0003082396269265636
-0.39396414565053417,-0.39396414565053417,0.9994088943933406,0.0003041141989742049
-0.3925644849718083,-0.3925644849718083,0.9996063377199415,0.000307664537908531
-0.39133612427176556,-0.39133612427176556,0.9997731650886881,0.00030299598598794317
-0.3905173594823282,-0.3905173594823282,0.9996193353377312,0.000315592314997513
-0.38954849696165184,-0.38954849696165184,1.0000478666223342,0.00030853279311529147
-0.3886924706523132,-0.3886924706523132,0.99977974552583,0.00031030466542124915
-0.38776149508994423,-0.38776149508994423,1.0001881041285992,0.00031289937561529863
-0.3867808956747467,-0.3867808956747467,0.9999994613421647,0.00030770352292712184
-0.3861934178923548,-0.3861934178923548,1.0001503163715468,0.00030330664858547844
-0.3852660328913771,-0.3852660328913771,1.000194458011781,0.00031290236220868047
-0.383731488288322,-0.383731488288322,0.9998240754102463,0.0003066925535949302
-0.381823761202395,-0.381823761202395,0.9996792156839621,0.00030633592321591146
-0.3802390937285963,-0.3802390937285963,0.9996911799821886,0.00030678165568740075
-0.37897784278102337,-0.37897784278102337,1.0001838273293686,0.00030514131564390206
-0.37765623921295627,-0.37765623921295627,0.9999866630968901,0.0003145738148067645
-0.37671861069611623,-0.37671861069611623,0.9996413009467942,0.0003094167504235334
-0.37556607817532495,-0.37556607817532495,1.0002567632046693,0.00031196186004830886
-0.373953195210197,-0.373953195210197,1.0001883349894078,0.0003042197807182803
-0.3713952927348146,-0.3713952927348146,0.9998310904412868,0.000303738232603234
-0.36997393822457525,-0.36997393822457525,0.9999237947675435,0.00030686633690070545
-0.36874494274306924,-0.36874494274306924,0.9996220251686381,0.00030302236172123935
-0.3669553512925631,-0.3669553512925631,1.0000373800199724,0.00031206252522742687
-0.36617167308868376,-0.36617167308868376,0.9999768853439885,0.00030896834587011446
-0.3644318215650856,-0.3644318215650856,1.0000659073113376,0.0003115571044690295
-0.36375466502722703,-0.36375466502722703,0.9997966700064899,0.0003071183975014443
-0.36279541419498856,-0.36279541419498856,0.9998685337934164,0.0003056735462907498
-0.3617167860931659,-0.3617167860931659,0.9997731145508887,0.00030954210643965857
-0.3600627554951643,-0.3600627554951643,0.9999937087414352,0.0003082169330588741
-0.35905593216593845,-0.35905593216593845,1.000204204089003,0.0003041404836199811
-0.35765735781387775,-0.35765735781387775,1.0002985528624884,0.0003078973543741134
-0.35621350568253546,-0.35621350568253546,0.9996442505124599,0.00030275137382906344
-0.35441665288381047,-0.35441665288381047,0.9996060954670327,0.0003074730595267202
-0.3535784857107501,-0.3535784857107501,0.9998793815283731,0.00030958245829474886
-0.3526852471892198,-0.3526852471892198,1.0002594190896779,0.00031003295949623427
-0.3517493373416073,-0.3517493373416073,1.000145865911358,0.0003077467229356687
-0.3511123416887131,-0.3511123416887131,1.0000774846606355,0.0003105433178648543
-0.3500765507014876,-0.3500765507014876,1.0001763615729842,0.000311914522546226
-0.3488277604636096,-0.3488277604636096,1.0001586303401926,0.00030657624446478053
-0.3469129965676984,-0.3469129965676984,1.0002315291327961,0.0003065147362800356
-0.34544750172353816,-0.34544750172353816,0.9999276869717825,0.0003068349320506305
-0.3440215889619139,-0.3440215889619139,1.000312502477086,0.00030483064736026296
-0.3423908997785475,-0.3423908997785475,0.999466713814925,0.0003186422001888787
-0.34155494636434014,-0.34155494636434014,0.9998664036648343,0.000302978978143829
-0.34029084929061354,-0.34029084929061354,1.0003133735187877,0.0003154226435792407
-0.33919711212947734,-0.33919711212947734,0.9997756596999533,0.00030618530280348167
-0.3376242655067472,-0.3376242655067472,0.9997072763992273,0.0003017899628801986
-0.33626141536369686,-0.33626141536369686,1.0002556601865868,0.000304728914381525
-0.3345776564856351,-0.3345776564856351,0.999368794768278,0.0003044939809578894
-0.3333219107487821,-0.3333219107487821,1.000103439039202,0.00030310272865125226
-0.33204072104563237,-0.33204072104563237,1.0000168466343904,0.00031367881605291064
-0.3308091845916351,-0.3308091845916351,1.000044024849578,0.00030257060196809196
-0.3293510005387361,-0.3293510005387361,0.9995697774084868,0.0003200755041585986
-0.32889094475031017,-0.32889094475031017,1.0005030357090166,0.0003078143943854561
-0.32782374178641477,-0.32782374178641477,0.9999189894927433,0.0003025827399476508
-0.3268130804121029,-0.3268130804121029,1.0002384639254513,0.0003098213646601909
-0.3255204877365031,-0.3255204877365031,0.9999753225056898,0.0003068664607384161
-0.3242914273760107,-0.3242914273760107,0.9999202484473659,0.0003082653113033456
-0.3226454442628892,-0.3226454442628892,1.0003143523213076,0.00030797974798146187
-0.32131750124899555,-0.32131750124899555,0.9996215228447196,0.00030211597329757073
-0.3195098394040542,-0.3195098394040542,0.9998928649315877,0.00030807529000989326
-0.3188086549882428,-0.3188086549882428,0.9999452449862888,0.00030914092575887154
-0.3178993485722458,-0.3178993485722458,1.0000371391241,0.00030916422381701517
-0.3169741156285454,-0.3169741156285454,0.9997933696416877,0.00030788646322391403
-0.31636435826294473,-0.31636435826294473,1.0002579289811846,0.0003098714498344236
-0.3151355147871072,-0.3151355147871072,0.9996607250304852,0.00030970467267348435
-0.31415377635130426,-0.31415377635130426,0.9997455983745211,0.0003055621408111299
-0.3124782249637065,-0.3124782249637065,1.0003453103116562,0.0003093736592831405
-0.3111382432252867,-0.3111382432252867,1.0002202508777531,0.0003045211431816593
-0.309498992326553,-0.309498992326553,0.9998000581513564,0.0003068143290950488
-0.3077039689560479,-0.3077039689560479,1.0000029257242968,0.0003069032483536197
-0.306161844968301,-0.306161844968301,0.999999467324475,0.0003116023639989665
-0.3044134353964182,-0.3044134353964182,1.0000816431750406,0.0003082454643108733
-0.3035053257874097,-0.3035053257874097,0.9999517578315327,0.00030381241825159794
-0.30164333666471066,-0.30164333666471066,1.000108031045691,0.00030220073466884234
-0.29966987063962736,-0.29966987063962736,1.0006571245290048,0.0003045247194555674
-0.2980740524537396,-0.2980740524537396,0.9998648809303475,0.00030474095878088976
-0.2968824291790952,-0.2968824291790952,0.9995146946900315,0.00030830830169641143
-0.29530276357982077,-0.29530276357982077,0.999810858785456,0.00031242487970781983
-0.2941790049415431,-0.2941790049415431,0.9998092353537116,0.000308533905777207
-0.2931872592649597,-0.2931872592649597,1.000208452043966,0.0003091516195775484
-0.2921235706337029,-0.2921235706337029,1.0003143123030505,0.000316508995619262
-0.29140756932465595,-0.29140756932465595,0.9998539305299647,0.000307696667983547
-0.29018697457795495,-0.29018697457795495,0.9998205003470095,0.0003110135663777845
-0.28891036104032536,-0.28891036104032536,0.9999797486162627,0.00030251642472320665
-0.2870291523358901,-0.2870291523358901,1.0000269406706728,0.00030768925198734287
-0.28609856727998706,-0.28609856727998706,1.0007273893787183,0.0003033205281309612
-0.28436404536041665,-0.28436404536041665,0.9999711023024908,0.0003090142320831965
-0.28364201519434573,-0.28364201519434573,0.9996828643636746,0.00030877052273816193
-0.2827177451006719,-0.2827177451006719,1.0001568005739054,0.00030835951366500476
-0.2817232764442451,-0.2817232764442451,1.0001237296436578,0.0003059927417299542
-0.28096481931352174,-0.28096481931352174,0.9997908374892732,0.0003173617872566602
-0.2798627087220666,-0.2798627087220666,1.0001155097400178,0.00030988627314762474
-0.27913194813518205,-0.27913194813518205,1.0000574028812925,0.000302819371018884
-0.27815338452201105,-0.27815338452201105,0.9998830854025467,0.0003129335237471437
-0.27649857152500773,-0.27649857152500773,1.0000768144578476,0.00030640675547518264
-0.2745916270359885,-0.2745916270359885,0.9999979832306402,0.00030638281504965354
-0.27300599806694664,-0.27300599806694664,1.0001385704308259,0.0003068503979142043
-0.27174500395340145,-0.27174500395340145,0.9998962103387731,0.0003051827887663377
-0.2702581969577295,-0.2702581969577295,1.0000019335007846,0.0003190680568881339
-0.26920952166983625,-0.26920952166983625,1.0001129909393078,0.00030314648205037066
-0.2668724980067054,-0.2668724980067054,0.999917886398579,0.00030605309842091045
-0.26522690322599374,-0.26522690322599374,1.0003522667080404,0.00030449441827773167
-0.2635766612183943,-0.2635766612183943,1.0000422015184143,0.00030461261686577054
-0.26205532051972114,-0.26205532051972114,1.0000927073237302,0.0003045390249399929
-0.2603962913242867,-0.2603962913242867,1.0000242154745718,0.000312621727586018
-0.25925895188192954,-0.25925895188192954,1.0002134708684491,0.0003088112629544567
-0.2585521883251204,-0.2585521883251204,0.9998195300480684,0.0003131606157420878
-0.2572164787859947,-0.2572164787859947,1.0001024277170607,0.0003159334470764323
-0.2566329107430647,-0.2566329107430647,0.99956982617505,0.00030748588735374303
-0.25584413824180957,-0.25584413824180957,1.000354259554739,0.0003051319291543515
-0.2546456857715384,-0.2546456857715384,1.0000968804239254,0.00030946730037911395
-0.2532151851635717,-0.2532151851635717,0.9999745400665507,0.00030555456791010765
-0.25194464506348596,-0.25194464506348596,0.9998757771496344,0.00030711196226602814
-0.2508039601001656,-0.2508039601001656,0.9998551969737856,0.0003053045566332925
-0.24929086452539195,-0.24929086452539195,1.0005568865906287,0.0003045723805671683
-0.24747703897373868,-0.24747703897373868,1.0002856277790557,0.0003077742604856527
-0.24651507334565395,-0.24651507334565395,1.0001061638822335,0.0003044723233419285
-0.24565188205597224,-0.24565188205597224,1.0001711521285939,0.00031522827704876606
-0.24464452546599205,-0.24464452546599205,1.0002644468057822,0.00030796490395763957
-0.244036307992792,-0.244036307992792,1.0001840405116826,0.0003099800390313005
-0.24289346554724034,-0.24289346554724034,0.999684800267689,0.0003118521527475886
-0.24159483823168557,-0.24159483823168557,1.0000841126980105,0.0003066699468772467
-0.23968085550368415,-0.23968085550368415,1.0002779761591065,0.000306634601955457
-0.23855100539512933,-0.23855100539512933,1.0002920986522963,0.00030657908360540387
-0.236932272798731,-0.236932272798731,1.0000957662019605,0.00030566339387932777
-0.23551389401618508,-0.23551389401618508,1.0002221050897384,0.00031786006287309784
-0.23445707001665142,-0.23445707001665142,0.9997703358757078,0.000304785815458387
-0.23268579378636786,-0.23268579378636786,1.0002319963438076,0.00031730443134590195
-0.23123545794878736,-0.23123545794878736,1.0002143057664998,0.00030233433867195086
-0.2292607922172465,-0.2292607922172465,0.9997971217885839,0.00030341928007592575
-0.2276199120002275,-0.2276199120002275,1.0003354666938322,0.00030579908088155676
-0.22640141273150222,-0.22640141273150222,1.0003284204094116,0.00030270672409321103
-0.22504283102971384,-0.22504283102971384,1.0002954433696618,0.0003124174267835823
-0.22389794505652388,-0.22389794505652388,0.999879840331803,0.000302605370352674
-0.2222956414698274,-0.2222956414698274,0.9997853856986584,0.0003120287882074508
-0.22172378661780384,-0.22172378661780384,1.0005613883203845,0.00031632008753146724
-0.22101953302626498,-0.22101953302626498,1.0000734342807787,0.0003035499835955551
-0.21990551364215208,-0.21990551364215208,1.0002240243968454,0.0003097588817603725
-0.21917789426952367,-0.21917789426952367,1.000319838749084,0.00030639262228038423
-0.21764113035897026,-0.21764113035897026,1.0000408995849592,0.0003088008640059667
-0.21688631781944423,-0.21688631781944423,0.9998575788350761,0.0003028526951075204
-0.21497761042337515,-0.21497761042337515,0.999561579795721,0.0003080743640586432
-0.21379794870154,-0.21379794870154,0.9999788627312846,0.0003019117408700402
-0.21203753268127912,-0.21203753268127912,1.0001343142691188,0.00030877664437057217
-0.21141058976500063,-0.21141058976500063,1.000028849729863,0.0003131818711885517
-0.21046525859565007,-0.21046525859565007,1.0002781954341977,0.000305041413379048
-0.2096096894631046,-0.2096096894631046,1.0000771875215289,0.0003078292663145301
-0.20897841793848784,-0.20897841793848784,1.0001592051519743,0.00031053509301350843
-0.207876203644264,-0.207876203644264,1.000110007561176,0.00031584846118035424
-0.2067158469777496,-0.2067158469777496,0.9998802413431452,0.0003072312268669247
-0.20512054668943164,-0.20512054668943164,1.0004375092621607,0.00030818523792017487
-0.20379418422453455,-0.20379418422453455,0.9997569504316342,0.00030519407973392894
-0.20226680869454866,-0.20226680869454866,1.0000427303783646,0.0003069103968462428
-0.20047048990236363,-0.20047048990236363,1.000003773192992,0.0003069015335486657
-0.19892944590974365,-0.19892944590974365,0.9999715498981765,0.00031168928002658913
-0.19704125610733172,-0.19704125610733172,1.0002143129597418,0.00030464355680922937
-0.1958487544732634,-0.1958487544732634,1.000430093821126,0.00030443232370000586
-0.19413035083489377,-0.19413035083489377,1.0000782103836314,0.0003029906351461918
-0.1920941240998218,-0.1920941240998218,0.9999825686013498,0.0003035135239863614
-0.1905210738244932,-0.1905210738244932,0.9996876215558895,0.00030457899846900486
-0.18964990299937198,-0.18964990299937198,1.000554546062207,0.0003083367565468726
-0.18837801267945906,-0.18837801267945906,1.0000119716148235,0.00031206184656609205
