time,time,flux,flux_err
-0.49991632451080176,-0.49991632451080176,0.9998647698653461,7.29855813976941e-05
-0.49973141840988927,-0.49973141840988927,1.0000173897170843,7.497495916058612e-05
-0.4996662504102763,-0.4996662504102763,1.0000700847704318,7.37821598290819e-05
-0.49954671075975055,-0.49954671075975055,1.0000505086260671,6.711346336695196e-05
-0.49940115634235555,-0.49940115634235555,1.0000152998081022,6.768081881516204e-05
-0.49929249480483123,-0.49929249480483123,1.0000088272319299,6.731663488191657e-05
-0.4992174511105986,-0.4992174511105986,1.0000502414918873,6.882849549720182e-05
-0.4991349054442253,-0.4991349054442253,0.9998724877830079,6.736189023812379e-05
-0.49904667466180397,-0.49904667466180397,1.00001634723514,6.799016262066789e-05
-0.49899086038931273,-0.49899086038931273,1.0000074434209654,6.733622962160066e-05
-0.498842270320165,-0.498842270320165,0.9999145849962734,6.719836013910792e-05
-0.498693942380487,-0.498693942380487,0.9999037434308828,6.728655416793513e-05
-0.4985858053172706,-0.4985858053172706,1.0000438918978531,6.911885113057669e-05
-0.4984502706007333,-0.4984502706007333,1.0000457259745203,6.98053245320355e-05
-0.49826289975608234,-0.49826289975608234,0.9999708151007362,6.778067324166305e-05
-0.4981322299601743,-0.4981322299601743,0.9999838977005864,6.933991778703835e-05
-0.49789521638012957,-0.49789521638012957,1.0001179099508384,6.754874768749725e-05
-0.49771488567930644,-0.49771488567930644,1.0000819888965786,6.715900863980846e-05
-0.49754427597217726,-0.49754427597217726,0.9999402751202021,6.732111521233291e-05
-0.49737684260471726,-0.49737684260471726,1.0000583238758303,6.66347684691201e-05
-0.4972618647036143,-0.4972618647036143,1.0000223863785207,6.859856444765483e-05
-0.4971231435221853,-0.4971231435221853,0.9999652437297154,6.795846374714187e-05
-0.4969673845684156,-0.4969673845684156,0.9999960091952076,6.851291153868068e-05
-0.49687305647530594,-0.49687305647530594,1.0000024655551083,6.73766757974635e-05
-0.49678303389518985,-0.49678303389518985,1.0001539363956464,6.815343310189664e-05
-0.49664609230821954,-0.49664609230821954,0.9999958828029605,6.781181762671048e-05
-0.4965253081114497,-0.4965253081114497,0.9998957722837989,6.84043987741813e-05
-0.4963991985307075,-0.4963991985307075,0.9999797756966109,6.763153669822635e-05
-0.49621026489476205,-0.49621026489476205,0.9999890223103322,6.767659848466288e-05
-0.4960061903722817,-0.4960061903722817,1.0001622827700194,6.755642188186289e-05
-0.49580682410742155,-0.49580682410742155,0.9999931908494343,6.819385901067364e-05
-0.49564374036563097,-0.49564374036563097,0.9999743510809991,6.755339238118063e-05
-0.4953983233892359,-0.4953983233892359,1.0001306218542574,6.713642816458479e-05
-0.49526063311786855,-0.49526063311786855,1.000014163559042,6.841480520542428e-05
-0.4951277250715066,-0.4951277250715066,0.9999536245511242,6.833140431819612e-05
-0.49500872955250086,-0.49500872955250086,1.0000318902948444,6.87918245956377e-05
-0.49484329489350787,-0.49484329489350787,1.0001380202962873,6.73207073375163e-05
-0.49475676548318004,-0.49475676548318004,0.9999336739066248,6.868780874062505e-05
-0.4946317197463941,-0.4946317197463941,0.9999277550608952,6.916995073544748e-05
-0.4945349781308323,-0.4945349781308323,1.0000088545685315,6.764182050852797e-05
-0.49443678169918714,-0.49443678169918714,0.999908173233489,6.710944526670094e-05
-0.494342572853202,-0.494342572853202,1.000037171732434,6.841467881651573e-05
-0.4942305279255379,-0.4942305279255379,1.000024509969244,6.793418537431981e-05
-0.4939672566775698,-0.4939672566775698,1.0000086843560392,6.77549817235083e-05
-0.4938036112638656,-0.4938036112638656,0.9999683744995025,6.800432672554445e-05
-0.4936576697800774,-0.4936576697800774,1.0001180553881586,6.715881880306356e-05
-0.49355394202575553,-0.49355394202575553,0.9999319619222901,6.731696988058363e-05
-0.4933768327173311,-0.4933768327173311,0.9999961333974664,6.773259118314277e-05
-0.4932126107014483,-0.4932126107014483,1.000060607926049,6.84179754595931e-05
-0.4930087790300604,-0.4930087790300604,0.999952750025719,6.764981488169671e-05
-0.49283614961605055,-0.49283614961605055,1.000092509764304,6.84335485169257e-05
-0.4927686021081172,-0.4927686021081172,1.0000824011941283,6.722158957228352e-05
-0.4927052290557185,-0.4927052290557185,1.0000140013666683,6.766060372027627e-05
-0.4926013406337006,-0.4926013406337006,1.0000891922319368,6.760538214476062e-05
-0.49246658198244403,-0.49246658198244403,1.0000531579553624,6.744564538942668e-05
-0.49233212881663346,-0.49233212881663346,1.0000186576779702,6.770068116227099e-05
-0.4922382207325427,-0.4922382207325427,1.0000499562729324,6.741048055628279e-05
-0.49216544585069644,-0.49216544585069644,0.9998916424711431,6.793152631642108e-05
-0.49204820872982963,-0.49204820872982963,0.9999049119833894,6.727950123401686e-05
-0.49196615934779403,-0.49196615934779403,0.9999444463765836,6.918523533863241e-05
-0.49185905790363904,-0.49185905790363904,1.000063334774687,6.737499930281176e-05
-0.4917424227140145,-0.4917424227140145,1.0000544032160679,6.891682685762995e-05
-0.4916408905759454,-0.4916408905759454,0.9999771411693666,6.818366607958613e-05
-0.49149899900367017,-0.49149899900367017,0.9999622851311585,6.777331946112112e-05
-0.49134542685060295,-0.49134542685060295,0.9999067313089112,6.780243895694313e-05
-0.49120752195012757,-0.49120752195012757,0.9999318222794742,6.856366501039087e-05
-0.491078459401615,-0.491078459401615,1.000188864293791,6.790383510386032e-05
-0.4909760175360134,-0.4909760175360134,0.9999749407979064,6.818923942791304e-05
-0.49080172860703897,-0.49080172860703897,0.9999704104686167,6.711728570020183e-05
-0.4905162457405822,-0.4905162457405822,0.9999813645024227,6.778949270521109e-05
-0.49032741256232837,-0.49032741256232837,0.9999854658987669,6.886272727803678e-05
-0.490179220205755,-0.490179220205755,0.999883909880079,6.852869128287097e-05
-0.48999515095783863,-0.48999515095783863,1.0000802578994796,6.824798980829396e-05
-0.48989370082854294,-0.48989370082854294,1.0000527567880357,6.90823876604028e-05
-0.4898251045611687,-0.4898251045611687,1.0000478155040349,6.789517363536352e-05
-0.48970778796356174,-0.48970778796356174,1.0001530873515783,6.828937588832772e-05
-0.4896309124975232,-0.4896309124975232,1.0000633059794901,6.794683211959684e-05
-0.4894778691115789,-0.4894778691115789,1.000136091180956,6.680006640401328e-05
-0.48928553602308966,-0.48928553602308966,0.9999743222086082,6.903764013768983e-05
-0.4890951825072989,-0.4890951825072989,0.9999766716724423,6.772877202068382e-05
-0.4888546929199947,-0.4888546929199947,1.0000418251346543,6.753844283650118e-05
-0.4886381978110876,-0.4886381978110876,1.0000191440776576,6.850889508199048e-05
-0.4884207705181325,-0.4884207705181325,1.0000485801599421,6.710443081574339e-05
-0.48824643532279877,-0.48824643532279877,0.9999982493570515,6.940641896395704e-05
-0.48811989407404327,-0.48811989407404327,0.9999637073790607,6.827394542278646e-05
-0.4879947893205099,-0.4879947893205099,1.0001516146659766,6.75767391635876e-05
-0.487885188285145,-0.487885188285145,0.9998122232026917,6.787699666339476e-05
-0.48776974325883204,-0.48776974325883204,1.0000084146651644,6.833061139994919e-05
-0.4876441840577172,-0.4876441840577172,1.0000102241683726,6.814092740572002e-05
-0.48755693722341675,-0.48755693722341675,1.0000650978687864,6.824189182377775e-05
-0.48749647427466697,-0.48749647427466697,0.999991955119896,6.669177986832689e-05
-0.4874325925047742,-0.4874325925047742,0.9999090941775914,6.736354399419116e-05
-0.4872276923735626,-0.4872276923735626,0.9999584126718668,6.846528066954155e-05
-0.4870883513736771,-0.4870883513736771,1.0000713213070225,6.655117991363768e-05
-0.4869919776334427,-0.4869919776334427,1.0001983266773238,6.755797710113109e-05
-0.4868008212011773,-0.4868008212011773,0.9999827090022494,6.795134943145557e-05
-0.48666549830813893,-0.48666549830813893,0.999983946974744,6.823558998430924e-05
-0.4864990417903755,-0.4864990417903755,1.0000894325839222,6.651102557095757e-05
-0.4863880921009695,-0.4863880921009695,1.0000347637829374,6.842405983620041e-05
-0.48617529844341334,-0.48617529844341334,0.9999855485428221,6.766199141683944e-05
-0.4859847590676509,-0.4859847590676509,0.9999743756230739,6.747149089908053e-05
-0.4858466513891472,-0.4858466513891472,1.0000063540078954,6.832311473144441e-05
-0.48575437836989294,-0.48575437836989294,0.9999726490443003,6.71315709076454e-05
-0.4856445895449724,-0.4856445895449724,1.0000406015162588,6.847708232032212e-05
-0.48551079728640617,-0.48551079728640617,0.9999944717658045,6.804610978354603e-05
-0.48545461023459213,-0.48545461023459213,0.9999009552378068,6.75526134304694e-05
-0.485326400649501,-0.485326400649501,1.000089245818945,6.703787776238769e-05
-0.48520315129717345,-0.48520315129717345,1.0000097268677277,6.863969807070552e-05
-0.4850276087032398,-0.4850276087032398,1.000106894312016,6.821717074235451e-05
-0.48488225956680253,-0.48488225956680253,1.0001263624909456,6.707096253434467e-05
-0.4847798664617585,-0.4847798664617585,1.00004021860524,6.698355369698216e-05
-0.4846547174063744,-0.4846547174063744,0.9999756907109209,6.762591602207693e-05
-0.48455163594335315,-0.48455163594335315,1.0000921845533395,6.896383613516151e-05
-0.484397930058185,-0.484397930058185,1.0000591775346528,6.74427742234376e-05
-0.48424342984217217,-0.48424342984217217,0.9999237384112565,6.928053983745997e-05
-0.4841363102896139,-0.4841363102896139,0.9999938314996747,6.774774421943045e-05
-0.48399340392497836,-0.48399340392497836,1.0000910858141638,6.821443965204171e-05
-0.4837304398359265,-0.4837304398359265,0.9998648459241262,6.729724021286818e-05
-0.4834088259056443,-0.4834088259056443,0.9998633112219137,6.738587249034395e-05
-0.4832883371243952,-0.4832883371243952,0.9999898959620677,6.838186859935701e-05
-0.48315980595361907,-0.48315980595361907,0.9999889314672583,6.905639034938965e-05
-0.4830615589627996,-0.4830615589627996,0.9999573178008315,6.811140351772521e-05
-0.4829156966152368,-0.4829156966152368,1.0000434770233462,6.866042387244799e-05
-0.48285757684207053,-0.48285757684207053,0.9999982529692352,6.774602177645949e-05
-0.4827432622521883,-0.4827432622521883,0.9999982438890183,6.799190775082792e-05
-0.4825681843503844,-0.4825681843503844,1.0001076587448412,6.692290793506583e-05
-0.4824283063440816,-0.4824283063440816,0.9999798854269635,6.809117872946158e-05
-0.4823083815921564,-0.4823083815921564,1.0000591384559905,6.745691329809884e-05
-0.48214266415161544,-0.48214266415161544,0.9999301535253228,6.838795882308077e-05
-0.48198298523784616,-0.48198298523784616,1.0001162620715882,6.772919584851955e-05
-0.4817587821657071,-0.4817587821657071,1.0001023308649817,6.789561304675057e-05
-0.4815591341757681,-0.4815591341757681,0.9999460037315908,6.755607790816279e-05
-0.48136167450575157,-0.48136167450575157,1.0000844738411743,7.066327907422849e-05
-0.4812099693284836,-0.4812099693284836,0.9999487192474644,6.88235436319262e-05
-0.4811583879898535,-0.4811583879898535,1.0000355296282628,6.858815673723357e-05
-0.4810597154399147,-0.4810597154399147,0.9999267161887501,6.746382011093218e-05
-0.4809155192808248,-0.4809155192808248,0.999924777726244,6.875127655541677e-05
-0.480761408561375,-0.480761408561375,0.9999677256251902,6.744397394518027e-05
-0.4806617312948219,-0.4806617312948219,0.9999910645455754,6.774087729882561e-05
-0.4805629542999668,-0.4805629542999668,1.0000170837529532,6.741968791729894e-05
-0.48043727861950175,-0.48043727861950175,1.000037640184317,6.758779615520448e-05
-0.4802550698019331,-0.4802550698019331,0.9999447433214949,6.826591024909337e-05
-0.4801114719681209,-0.4801114719681209,1.0000721659925045,6.746645890493323e-05
-0.48002494769752957,-0.48002494769752957,1.000070682286081,6.81826843373633e-05
-0.4797807755763642,-0.4797807755763642,1.0000580331504545,6.882573688321686e-05
-0.4796643530018628,-0.4796643530018628,0.9999567928067516,6.663666213957485e-05
-0.4794638467574259,-0.4794638467574259,0.9999411039734989,6.904205886615118e-05
-0.47924767424119635,-0.47924767424119635,1.0000738346495066,6.910247765373907e-05
-0.47905769587960095,-0.47905769587960095,0.9999895954185407,6.70808702784692e-05
-0.4789216356439283,-0.4789216356439283,1.0000143652170927,6.73467661446688e-05
-0.4788011576340068,-0.4788011576340068,0.9999606338500918,6.794682027474616e-05
-0.47869573821953965,-0.47869573821953965,0.9999390807304659,6.668328389773888e-05
-0.4785991354990983,-0.4785991354990983,0.9999552572676731,6.754179325305798e-05
-0.4785529945860617,-0.4785529945860617,1.0000122336064634,6.896283328612045e-05
-0.47844650294282476,-0.47844650294282476,1.0000204034475995,6.744256054794043e-05
-0.47831899326702115,-0.47831899326702115,0.9999115115326745,6.668870736598433e-05
-0.47821329172584226,-0.47821329172584226,0.9999350936221226,6.906217944458403e-05
-0.4781023351679323,-0.4781023351679323,1.000021510871146,6.650773754416969e-05
-0.47798334870603865,-0.47798334870603865,0.9999249905592642,6.798471977954635e-05
-0.4778412624233169,-0.4778412624233169,1.000007279052172,6.782578956519996e-05
-0.47774315170245246,-0.47774315170245246,1.0000384705775283,6.827816218415216e-05
-0.47766048140474593,-0.47766048140474593,1.0000181124521856,6.759675106501084e-05
-0.47747792046284304,-0.47747792046284304,1.0000440295708581,6.959489796213715e-05
-0.4772988429205725,-0.4772988429205725,1.0000201783435896,6.797466187746153e-05
-0.4772055789391743,-0.4772055789391743,0.9999194274448808,6.766582422318925e-05
-0.47705810608167665,-0.47705810608167665,1.0000054481772538,6.806525161883091e-05
-0.476891685515875,-0.476891685515875,1.0000056683307759,6.742514912979902e-05
-0.47664044487755747,-0.47664044487755747,1.000070503854874,6.766065417957746e-05
-0.4764648176729679,-0.4764648176729679,1.0000690961757943,6.777876601978721e-05
-0.4763253180950414,-0.4763253180950414,1.0000678579987927,6.749029334257101e-05
-0.4762393178592902,-0.4762393178592902,1.0000146178327873,6.898500848817549e-05
-0.47612674499396235,-0.47612674499396235,1.000044200806622,6.799394775610114e-05
-0.4760401606472442,-0.4760401606472442,1.0001759167618793,6.860336886003465e-05
-0.4758887800446246,-0.4758887800446246,0.9999168244019703,6.784945804206335e-05
-0.47577340677089525,-0.47577340677089525,1.0000953200580713,6.787062095899585e-05
-0.475650072391727,-0.475650072391727,1.0000771283163288,6.746663529553582e-05
-0.47552823648729825,-0.47552823648729825,1.0000505922116745,6.707198882371336e-05
-0.4753765885572648,-0.4753765885572648,0.9999613974298077,6.838486014586975e-05
-0.47513492637081073,-0.47513492637081073,1.000188907536922,6.885460420349908e-05
-0.47494265846617056,-0.47494265846617056,1.0000092537116874,6.723880890017207e-05
-0.4747536050854251,-0.4747536050854251,1.0000379200767044,6.811769492633555e-05
-0.4746115052519599,-0.4746115052519599,0.999885959516592,7.116777830153378e-05
-0.4744313013914507,-0.4744313013914507,0.9999478427783384,7.18748586534951e-05
-0.47433188325667286,-0.47433188325667286,1.0000777384429813,6.836528708170449e-05
-0.4742208996001864,-0.4742208996001864,0.999963932948613,6.840378317494258e-05
-0.4740999014000408,-0.4740999014000408,0.9999326516688678,6.850324893327742e-05
-0.4739536908513401,-0.4739536908513401,0.9999731680912488,6.792304437941045e-05
-0.4738534261763562,-0.4738534261763562,1.0000123807355152,6.767415023643312e-05
-0.4737445150676649,-0.4737445150676649,1.0000562013604166,6.774077946281019e-05
-0.47364730876579414,-0.47364730876579414,1.000006038042074,6.782958678116072e-05
-0.47357717181148473,-0.47357717181148473,0.9998888496310718,6.812524943451576e-05
-0.4734740360989235,-0.4734740360989235,1.0001836230090047,6.73418128283899e-05
-0.4732873912755167,-0.4732873912755167,1.0000785848682447,6.772780952018364e-05
-0.47318367203697564,-0.47318367203697564,1.0001837895020884,6.78344913910211e-05
-0.4731255312712165,-0.4731255312712165,1.000100585579591,6.824243682335054e-05
-0.4729661961231614,-0.4729661961231614,1.0000721640796495,6.769039619738332e-05
-0.4728023481788114,-0.4728023481788114,0.9998617769162393,6.832098850708007e-05
-0.47269031638570597,-0.47269031638570597,0.999950916709,6.775892234847829e-05
-0.4724982873740373,-0.4724982873740373,1.0000782010233238,6.973451475159457e-05
-0.47231710780470165,-0.47231710780470165,1.0000217197842187,6.825289999569158e-05
-0.47213445901579687,-0.47213445901579687,0.9999210502657441,6.761549464751274e-05
-0.4719974800915224,-0.4719974800915224,1.0000422868270387,6.670914153188853e-05
-0.4718661440332653,-0.4718661440332653,0.9998884113224118,6.791933487610112e-05
-0.4718157748458907,-0.4718157748458907,0.9999371395859914,6.721963447871388e-05
-0.4716772083280375,-0.4716772083280375,0.9999800364657387,6.795003669143008e-05
-0.4715603667020332,-0.4715603667020332,1.0000561931641818,6.724307670696772e-05
-0.4714798764180159,-0.4714798764180159,0.9999160144184813,6.746783410117651e-05
-0.47130594111222307,-0.47130594111222307,1.0000754630525284,6.759430405287597e-05
-0.47115288335189687,-0.47115288335189687,1.0000162654031715,6.830717802877928e-05
-0.4710560112347594,-0.4710560112347594,0.9999704597305816,6.760742896997527e-05
-0.4709200673183659,-0.4709200673183659,1.0000809921577483,6.761591850530264e-05
-0.47079638328868895,-0.47079638328868895,0.9999307362087334,6.785540554555883e-05
-0.4706026217463659,-0.4706026217463659,1.0000235935695725,6.873507236698523e-05
-0.4704667248268379,-0.4704667248268379,0.999980995203766,6.796385793724823e-05
-0.47035146852140314,-0.47035146852140314,1.000004347481864,6.858648848882495e-05
-0.47022674056643154,-0.47022674056643154,1.0000097127262948,6.888096125250639e-05
-0.47004321283602624,-0.47004321283602624,1.0000469479964025,6.751054151734511e-05
-0.46985052261443344,-0.46985052261443344,0.9999730930781414,6.74031438858784e-05
-0.4696938363864319,-0.4696938363864319,1.0000833359501806,6.747382249833235e-05
-0.46951156682916917,-0.46951156682916917,0.9999464749069968,6.73191014220362e-05
-0.4693781267647864,-0.4693781267647864,0.9999229910718619,6.854077662256616e-05
-0.46925765867054,-0.46925765867054,0.999925256422106,6.964638180598004e-05
-0.46914047744648996,-0.46914047744648996,0.9999685867938,6.79958988665601e-05
-0.4689740358066047,-0.4689740358066047,0.9999749901922534,6.6448516662835e-05
-0.46892821248911787,-0.46892821248911787,0.9999840319430279,6.79576959151117e-05
-0.46879939166537954,-0.46879939166537954,1.0000076129915798,6.772060994945681e-05
-0.46871290914423297,-0.46871290914423297,0.9999666460725052,6.777191943758588e-05
-0.4685822198545793,-0.4685822198545793,1.000073248752235,6.693642572101258e-05
-0.46840777896286456,-0.46840777896286456,1.000011522055718,6.830507440738599e-05
-0.4682276839652332,-0.4682276839652332,0.9999223678155458,6.743510049132513e-05
-0.46799917104362976,-0.46799917104362976,1.0001058874468285,6.74888575175714e-05
-0.46780149191617965,-0.46780149191617965,1.0001367897295077,7.805504647834232e-05
-0.46767668263055384,-0.46767668263055384,0.9998178869756214,6.732539129401706e-05
-0.46754457014612855,-0.46754457014612855,1.0001147674437143,6.790216388321736e-05
-0.4673851116152946,-0.4673851116152946,1.000008977697043,6.745441696958682e-05
-0.4672414795990335,-0.4672414795990335,1.0000517635371788,6.867839569769771e-05
-0.46714505747077056,-0.46714505747077056,0.9999385251005719,6.777729816235593e-05
-0.46702510762552263,-0.46702510762552263,0.9998963716964238,6.699739193543239e-05
-0.46690052946214566,-0.46690052946214566,1.0000597316196265,6.821431081561483e-05
-0.46675909783225505,-0.46675909783225505,1.0000808056877313,6.790018805512698e-05
-0.466684761075885,-0.466684761075885,0.9999981666268875,6.764647602820997e-05
-0.46661741277494,-0.46661741277494,1.0000619063495035,6.804784962745346e-05
-0.4665129390690709,-0.4665129390690709,0.9999025165352773,6.775393071377576e-05
-0.4663680009864038,-0.4663680009864038,1.0000559729345477,6.716296446775206e-05
-0.46622849293926266,-0.46622849293926266,0.9999762352188458,6.751279315324378e-05
