time,time,flux,flux_err
-0.4998393861494151,-0.4998393861494151,0.9998940572842596,0.00012778940896172655
-0.4995829860496087,-0.4995829860496087,1.00008606533108,0.00012966517065664574
-0.49942458174464266,-0.49942458174464266,0.9999550969618338,0.00012962528054164113
-0.49929342602004,-0.49929342602004,1.0000527312465906,0.00012790905117316445
-0.49912452761809617,-0.49912452761809617,0.9999771532604326,0.00012569579011396736
-0.49896648911626473,-0.49896648911626473,1.0001169268923011,0.00013810493626879595
-0.4987015536573381,-0.4987015536573381,0.999923688622523,0.00011972864088319126
-0.4985602976671544,-0.4985602976671544,1.0000957502378605,0.0001287688785288858
-0.4983778749739486,-0.4983778749739486,1.0001707163072049,0.00013567324940909545
-0.49817415271340904,-0.49817415271340904,1.0000747574179694,0.0001244239603144036
-0.49793814877816656,-0.49793814877816656,1.0000182735099723,0.00013041610488983237
-0.49758880377921744,-0.49758880377921744,0.9998354648013862,0.0001275163498983581
-0.49724384615869893,-0.49724384615869893,1.0000011660123875,0.00012713466719884058
-0.4970911076484299,-0.4970911076484299,1.000010952989943,0.00013508528967366115
-0.4968009304082443,-0.4968009304082443,1.00014023201858,0.0001238709529775413
-0.4964485394928488,-0.4964485394928488,1.000004986703136,0.00012211759115044732
-0.4960424163875814,-0.4960424163875814,0.9998754620757296,0.00012289357020357972
-0.49572200550460366,-0.49572200550460366,0.9997906624865129,0.00013059766849850702
-0.49541197688399735,-0.49541197688399735,1.000015201385482,0.00012185743617359108
-0.49517546503943777,-0.49517546503943777,0.999984036361172,0.0001264915185267236
-0.4948411067775851,-0.4948411067775851,0.9996944071549289,0.00014680574229736758
-0.49459390717447604,-0.49459390717447604,1.000115057767153,0.00013417636254670155
-0.4944484482817188,-0.4944484482817188,1.000137117542944,0.0001319188487831364
-0.49437102956590023,-0.49437102956590023,0.9999117372834482,0.00012121335543768728
-0.49420078532193656,-0.49420078532193656,1.00022213378995,0.0001317910522115922
-0.49392554373907843,-0.49392554373907843,1.00015953690547,0.00013032636486395426
-0.4935007731772657,-0.4935007731772657,0.9999972701992027,0.00012816784832607803
-0.49329321892737427,-0.49329321892737427,0.999962329295142,0.00013036714891093121
-0.4929825840396461,-0.4929825840396461,0.9999053468634544,0.00012941280045833888
-0.4926774591852336,-0.4926774591852336,1.0000218378130223,0.00012543160338295144
-0.49218798828542276,-0.49218798828542276,1.0001195486644723,0.00012427749226285174
-0.49198410268045334,-0.49198410268045334,1.0000627364328518,0.0001341292423870944
-0.49160223165945355,-0.49160223165945355,0.9999469464554904,0.00012467566115867214
-0.4914050304585089,-0.4914050304585089,0.9999780818916569,0.00012366093997597072
-0.4911744941295183,-0.4911744941295183,0.9999584530697204,0.0001285848982087176
-0.4908694193843985,-0.4908694193843985,0.9996924938360504,0.0001301227870358793
-0.4907370694646943,-0.4907370694646943,1.0000647270116834,0.0001295994296618249
-0.4905490507529976,-0.4905490507529976,1.0001023248078194,0.0001298018502346967
-0.4903956261121493,-0.4903956261121493,1.0000423699812058,0.00012506239477919268
-0.4902660606087011,-0.4902660606087011,0.9998921966149146,0.00013647177112718453
-0.49001779158975295,-0.49001779158975295,0.9998531417067745,0.0001206192119434921
-0.489852667970581,-0.489852667970581,0.9998140530921905,0.00012867612610854612
-0.4897199426078259,-0.4897199426078259,1.0001868517502914,0.0001336658103250695
-0.489542786158745,-0.489542786158745,0.9999732311780709,0.00012536139932220643
-0.48933279832863263,-0.48933279832863263,1.0000243419367678,0.00012952218924308946
-0.4889896546190357,-0.4889896546190357,1.0000137773136342,0.00012791219538781044
-0.4886722511290372,-0.4886722511290372,0.9998721584666616,0.0001218280639741454
-0.4884959733949472,-0.4884959733949472,0.9999383820951133,0.00013316762583900362
-0.48825457862931215,-0.48825457862931215,0.9999593664646482,0.0001304251318538644
-0.4879173890572474,-0.4879173890572474,1.000171095949778,0.00012226972173406335
-0.48758127492133096,-0.48758127492133096,0.9999943280927479,0.00012273166671291564
-0.48716445613022186,-0.48716445613022186,1.000010050270161,0.00013586296984194874
-0.4869193273818837,-0.4869193273818837,1.0000779582368682,0.00012468228841946286
-0.4866238108640573,-0.4866238108640573,1.0001180811243806,0.0001234683894450958
-0.48630371617305174,-0.48630371617305174,0.9997908240022026,0.00012345040353762987
-0.48608949225813375,-0.48608949225813375,1.0000592013051874,0.0001522334569461202
-0.48583647980758543,-0.48583647980758543,1.0000245305442028,0.00012900669129193464
-0.48576156550111593,-0.48576156550111593,1.0000786225498364,0.00012965953521919615
-0.485617934946913,-0.485617934946913,1.0001407923564074,0.00013098414765924456
-0.4853948234265772,-0.4853948234265772,0.9998557774806394,0.0001314923300862251
-0.4848616360881806,-0.4848616360881806,1.0001357136630804,0.00012940116707156079
-0.4846929539688972,-0.4846929539688972,0.9999656737689533,0.00013000581002206376
-0.48437203913740634,-0.48437203913740634,0.999914346321783,0.00012853051153357124
-0.48407702984918616,-0.48407702984918616,1.0001007161903366,0.00012649208636447603
-0.4834789383769021,-0.4834789383769021,1.0000120916767137,0.00013033764941952408
-0.48326202738035134,-0.48326202738035134,1.000060265812222,0.00012842611414221625
-0.4829132815421417,-0.4829132815421417,0.9998374126967502,0.0001233335622175825
-0.48274170862719074,-0.48274170862719074,1.0001590113152337,0.00012367064272168267
-0.48251112636389737,-0.48251112636389737,0.9999841829809084,0.0001286364594827066
-0.48220598881935073,-0.48220598881935073,0.9999244833973613,0.00013016893424724703
-0.48207364392314955,-0.48207364392314955,1.0001105630586702,0.0001295568810992655
-0.4818857048087466,-0.4818857048087466,0.9998591780137277,0.0001298583831233292
-0.48173225837467726,-0.48173225837467726,0.9998588067877288,0.00012505907695365738
-0.48160266367431176,-0.48160266367431176,1.0002536421455537,0.00013638894108017755
-0.4813945051144401,-0.4813945051144401,0.9999553793539893,0.00012091319430856221
-0.4812335766704564,-0.4812335766704564,1.000094969751278,0.00012870634126503367
-0.48108058943430476,-0.48108058943430476,1.0000479576186243,0.00013455704198675077
-0.48086278801411025,-0.48086278801411025,1.000223279930453,0.00012441117413538046
-0.48061135139869293,-0.48061135139869293,0.9999709375262984,0.0001304616366328187
-0.4802622447213253,-0.4802622447213253,0.9999042549591965,0.00012746579940352986
-0.4799490242468892,-0.4799490242468892,0.9999143630570224,0.0001257631336355869
-0.4798211719873507,-0.4798211719873507,1.0000460663666693,0.00012843308336975352
-0.47959479528130944,-0.47959479528130944,1.0002598524978936,0.00013039328829099125
-0.47932105460963614,-0.47932105460963614,1.0000527839901987,0.00012221963186917966
-0.47901403897799355,-0.47901403897799355,1.000129218271242,0.00012325248663673776
-0.47852297913154873,-0.47852297913154873,1.000119183673692,0.00013033142168299988
-0.47825592044673615,-0.47825592044673615,1.0000607838640225,0.00012466138402595137
-0.47796050435058535,-0.47796050435058535,0.9999650488504368,0.00012347665096046242
-0.47763768096197057,-0.47763768096197057,1.0000712008556705,0.00012356527818988892
-0.4774260808296731,-0.4774260808296731,0.9998186450305069,0.00015187441371709176
-0.4771730963821483,-0.4771730963821483,0.9999940172801594,0.00012911488087282775
-0.4770981864896385,-0.4770981864896385,0.9996893821281772,0.00012967450827511655
-0.4769545040286175,-0.4769545040286175,1.0001366871958661,0.00013095248657532988
-0.4767314447917215,-0.4767314447917215,0.9999378980433686,0.00013149788389859744
-0.47627168272379095,-0.47627168272379095,0.9999744785127813,0.00012193122306413347
-0.4760755791203337,-0.4760755791203337,1.0001018524008034,0.00013574971165998862
-0.47576730293180847,-0.47576730293180847,0.9999227748830544,0.00012979604044084024
-0.47541377976876903,-0.47541377976876903,0.9999227986549031,0.00012642432729926558
-0.4748155219005639,-0.4748155219005639,1.0000173642708448,0.00013034344415434063
-0.4745986599090884,-0.4745986599090884,0.9999577993477462,0.0001284258678138352
-0.4742499446892907,-0.4742499446892907,1.0000141148067976,0.00012334535737398546
-0.47407838681588144,-0.47407838681588144,0.9998695016801443,0.00012364862046566853
-0.47384775862719836,-0.47384775862719836,1.0001238108241082,0.00012859194570326077
-0.4735425583408414,-0.4735425583408414,1.0000744500586187,0.00013015200140630877
-0.47341021840538816,-0.47341021840538816,0.9999357398148365,0.0001296298610423913
-0.4731804233240382,-0.4731804233240382,1.00014169004044,0.0001301215867891673
-0.4730384045451956,-0.4730384045451956,0.9998854932100427,0.0001319302858005591
-0.4728882767906725,-0.4728882767906725,0.9999277579726739,0.00012982352424710481
-0.47266701438934433,-0.47266701438934433,1.0000039429844847,0.00012054000337421479
-0.47248848542208177,-0.47248848542208177,0.9998754260355497,0.00013532543665894717
-0.4723439338589742,-0.4723439338589742,0.9997409379328076,0.00012873776989196585
-0.4721140159459992,-0.4721140159459992,1.0001003988802815,0.00012387182770330624
-0.47187802715880023,-0.47187802715880023,1.0000273947684009,0.00012883690811020063
-0.4715179221319886,-0.4715179221319886,1.0000077142947406,0.00012766600716542065
-0.4712539935730547,-0.4712539935730547,0.9999108490497111,0.00012696285415786894
-0.47112210602326743,-0.47112210602326743,1.0000130975100125,0.00012974138703738327
-0.4708730624844975,-0.4708730624844975,0.9999988690526184,0.0001293556219102267
-0.4705315758707457,-0.4705315758707457,1.0001386202876263,0.00012334120476902466
-0.47025461641201216,-0.47025461641201216,0.9998302668701028,0.00012271125839519195
-0.46981622562361736,-0.46981622562361736,1.0000420521671205,0.00012941497177443979
-0.4695925135291418,-0.4695925135291418,0.9999212937740406,0.00012467940510957752
-0.46929719787181057,-0.46929719787181057,0.9998610738178026,0.00012347768282547743
-0.46896935507134,-0.46896935507134,1.0000656371417376,0.00013082227254926473
-0.4687078600217319,-0.4687078600217319,1.0001035448836677,0.00014933375456174818
-0.4685002184723544,-0.4685002184723544,1.0000472791779942,0.00012457848807872042
-0.468434807513313,-0.468434807513313,1.0000976154193446,0.00012967449011340183
-0.46829107316807494,-0.46829107316807494,0.9998882496246946,0.00013093518165290265
-0.4680680661685074,-0.4680680661685074,1.000004434195392,0.00013153530739401108
-0.46760844591913153,-0.46760844591913153,0.9999006279550289,0.00012195542855810146
-0.4674122481635095,-0.4674122481635095,1.0000475395582433,0.00013564917811721252
-0.4671038480981224,-0.4671038480981224,1.000005722071347,0.00012982110446806459
-0.46675086088962414,-0.46675086088962414,1.0000982597512031,0.00012563232565826224
-0.4662557328867479,-0.4662557328867479,0.999963763886317,0.0001239342069749923
-0.4659939204881994,-0.4659939204881994,0.9999226274693751,0.0001341588774298385
-0.4656347490606095,-0.4656347490606095,0.9999813463375988,0.00012338424879503276
-0.46544511342672196,-0.46544511342672196,0.9998966833706724,0.00012490286514423005
-0.46525018222578185,-0.46525018222578185,0.9998396260474095,0.00012784677371865542
-0.4649293946882608,-0.4649293946882608,0.9998370058223877,0.00012969416572574213
-0.464761578496109,-0.464761578496109,1.0000906360266062,0.0001305585089053257
-0.4645639519998895,-0.4645639519998895,0.999903546910115,0.00013011075976624684
-0.4644055229810874,-0.4644055229810874,1.0003591531652014,0.00012508895131388848
-0.4642758697651061,-0.4642758697651061,0.9999164205085946,0.0001364044755396218
-0.4640278302519164,-0.4640278302519164,1.000100797072325,0.00012063722623769479
-0.46386261230677517,-0.46386261230677517,1.0000396969974898,0.0001287510002633057
-0.4637199327870348,-0.4637199327870348,0.9999525034067579,0.00013494625090925197
-0.4634906696397138,-0.4634906696397138,0.9999914235794855,0.0001244427754296325
-0.46323403591377427,-0.46323403591377427,1.0000032910458911,0.0001291498583373605
-0.4629587473340052,-0.4629587473340052,1.000098304651277,0.00012743131221399232
-0.46262250777267583,-0.46262250777267583,1.0001180678132837,0.00012565524101030163
-0.4625009810505617,-0.4625009810505617,0.9999155769498509,0.00012954987398977537
-0.46232804450414733,-0.46232804450414733,0.999962850635842,0.0001294315029242459
-0.4619942561914286,-0.4619942561914286,1.000048570649073,0.00012222335389424518
-0.46174164062053935,-0.46174164062053935,1.0000529956339421,0.0001241953238647981
-0.4612854384513412,-0.4612854384513412,0.999940677704197,0.00012340429658960615
-0.4610635682777229,-0.4610635682777229,0.9998702273382832,0.00012922885137368222
-0.46070076461637655,-0.46070076461637655,1.000312825306794,0.0001234081744980894
-0.46045540077989244,-0.46045540077989244,0.9998838265909546,0.00012595577238743333
-0.4601421776286315,-0.4601421776286315,1.0002003594929407,0.00014521136884669816
-0.45989230503737416,-0.45989230503737416,0.9999446740823312,0.00013513924738984515
-0.4597837224975592,-0.4597837224975592,0.9999676154650011,0.00013061038858526444
-0.4596645804987475,-0.4596645804987475,1.0000466791337483,0.00012988054947851184
-0.4594650334943253,-0.4594650334943253,1.0002349042991103,0.00012584722660400276
-0.45902875076876626,-0.45902875076876626,0.9999759871234488,0.00012844742400732262
-0.45878466026342724,-0.45878466026342724,0.9999768468576524,0.00013523566244713758
-0.45850782175120913,-0.45850782175120913,1.0001160504999056,0.00012382859087134784
-0.45817191118421763,-0.45817191118421763,1.0000466761835658,0.0001325764050920997
-0.4576916112881463,-0.4576916112881463,0.9998388385176196,0.00012267268733725902
-0.45738101448000634,-0.45738101448000634,0.9999650926711772,0.00012839761977595862
-0.45700978117542945,-0.45700978117542945,1.0000805151824907,0.00013056656474147948
-0.45678177296235845,-0.45678177296235845,0.9999802460126762,0.0001249055223111029
-0.4565701904730304,-0.4565701904730304,1.0000213289243827,0.0001278455834630265
-0.4563091728370637,-0.4563091728370637,1.0000528431799312,0.0001283711044908485
-0.4561192740274237,-0.4561192740274237,0.9999957259862919,0.00013091294657958914
-0.45594243613245455,-0.45594243613245455,0.9998682122243746,0.00012974476017141773
-0.455779445821463,-0.455779445821463,0.9999099498016746,0.00012504032898785186
-0.45563130928289863,-0.45563130928289863,0.9999175259957381,0.00013007731212272673
-0.4554112272621751,-0.4554112272621751,0.9999939232829138,0.00012777946404158777
-0.45524349525089747,-0.45524349525089747,1.0001085955912101,0.00012872764929670947
-0.45509061778234355,-0.45509061778234355,0.9999504818793511,0.00013454065933680412
-0.4548726998249094,-0.4548726998249094,1.000029638754191,0.00012440457058535506
-0.45462115578548035,-0.45462115578548035,1.0000435221170252,0.00013039772895204158
-0.45424276009666753,-0.45424276009666753,0.9999205718466749,0.00012737020186121976
-0.4539274253627809,-0.4539274253627809,1.0000971373469094,0.00012684310660583515
-0.4537952635732836,-0.4537952635732836,1.0000843856747177,0.00012973613141176917
-0.4535796909734472,-0.4535796909734472,0.9999155599425134,0.0001291656827268001
-0.4532652684673849,-0.4532652684673849,1.0001278057681735,0.00012219184776864506
-0.45302400265045434,-0.45302400265045434,0.9999265014452414,0.0001232368051690731
-0.4525379093569427,-0.4525379093569427,1.0001282784245047,0.00012322006523408203
-0.45234184473952155,-0.45234184473952155,0.9998141093619042,0.00013062450580196466
-0.45199627796691855,-0.45199627796691855,0.9999334585386436,0.00012349740891552508
-0.45172335517577267,-0.45172335517577267,1.0001205613379152,0.00012486618496107042
-0.45143584689294586,-0.45143584689294586,0.9999960160724812,0.0001507537932560202
-0.45122307055889904,-0.45122307055889904,0.9998983694563881,0.00012825625636301864
-0.4511203643090539,-0.4511203643090539,0.9999770362184044,0.0001305848567684708
-0.4510011297044002,-0.4510011297044002,1.000156141403742,0.0001298237576609685
-0.45080168935087384,-0.45080168935087384,0.9999302947319041,0.00012583285987756372
-0.4503654489431483,-0.4503654489431483,0.9999217267542676,0.00012841091532647512
-0.45009981459556914,-0.45009981459556914,1.0001112035462638,0.00012952885496542708
-0.4497769385877291,-0.4497769385877291,1.0000174641684303,0.0001297911874390645
-0.44942436032501976,-0.44942436032501976,1.0000064660632282,0.00012549869537710755
-0.44897289669661405,-0.44897289669661405,0.9999919225858751,0.00012244734788501393
-0.44871764426966365,-0.44871764426966365,1.0001183145679293,0.00012842811588411978
-0.44837783896750805,-0.44837783896750805,1.0001283669334078,0.00012911615952625327
-0.4481557981779588,-0.4481557981779588,1.0001795194272074,0.000125664203397278
-0.44792392684212246,-0.44792392684212246,1.0001209833434783,0.00012859897548472197
-0.44760259939371283,-0.44760259939371283,0.9999058637178804,0.00012974874567205113
-0.44743475223681345,-0.44743475223681345,0.999957617863168,0.00013054051340456718
-0.4472371596481935,-0.4472371596481935,0.9999679852216747,0.00013015664847648966
-0.447048289153372,-0.447048289153372,0.9999517192891346,0.0001319157481217738
-0.4468980882041251,-0.4468980882041251,1.0001626761012337,0.00012975112526812297
-0.44667703562654426,-0.44667703562654426,1.0002068547663696,0.00012056364626753698
-0.4465265835482569,-0.4465265835482569,1.0001333380583972,0.00012789130071482098
-0.44642729400788994,-0.44642729400788994,0.9999268365926008,0.00013451780798421842
-0.44620933716341826,-0.44620933716341826,1.0000382132591366,0.00012441147222367376
-0.4459748175744608,-0.4459748175744608,1.0000122457493537,0.00012940533315431498
-0.44557947690541366,-0.44557947690541366,0.9999890871464535,0.0001273876032047326
-0.4452641413098263,-0.4452641413098263,0.9999840468460437,0.00012677161629162816
-0.44513184242969145,-0.44513184242969145,1.0000913039566826,0.00012975566144449293
-0.4448826947306316,-0.4448826947306316,1.000173367270855,0.00012939644346667781
-0.4445415351166503,-0.4445415351166503,1.0002160152749728,0.00012337030759493653
-0.4442646288223841,-0.4442646288223841,1.0000233210457221,0.0001227091067457853
-0.4438566228010131,-0.4438566228010131,0.999988855701359,0.00012238713738767085
-0.44367842625360937,-0.44367842625360937,1.0000424421372167,0.00013059020445999964
-0.44333294012453733,-0.44333294012453733,1.000056358948981,0.0001235093158182781
-0.4431002132930189,-0.4431002132930189,1.0001158415611773,0.00012552706210781998
-0.4428153477288106,-0.4428153477288106,1.000178638782486,0.00014445818323354935
-0.4426055908609669,-0.4426055908609669,1.0002234097268659,0.0001342236461183667
-0.4424680944404372,-0.4424680944404372,1.0003483693362099,0.00013193341068857745
-0.44237012207108817,-0.44237012207108817,0.9999722349793897,0.00012253241328255655
-0.44218033824163283,-0.44218033824163283,1.0000259997934389,0.0001317450113286116
-0.44180023361459464,-0.44180023361459464,1.0000413750716537,0.00012884454759010187
-0.44148180161027994,-0.44148180161027994,1.0000552020570168,0.00012908334187326903
-0.4411809822807754,-0.4411809822807754,1.0000819225869493,0.00012381799651795666
-0.4408453055893915,-0.4408453055893915,1.0001081875194877,0.00013241762218141426
-0.4403955965485693,-0.4403955965485693,1.0001962506132291,0.00012225719860079775
-0.440077151589594,-0.440077151589594,1.0001427127320617,0.000128815759602533
-0.4396829562759194,-0.4396829562759194,1.0002044960573442,0.00013054713710911975
-0.43945509214381673,-0.43945509214381673,0.9998393802091506,0.0001248630598090535
-0.4391942879884482,-0.4391942879884482,1.0000919244431015,0.0001286094912173521
-0.4388888369772303,-0.4388888369772303,1.000165537992899,0.00013021856847272498
-0.43875651656576337,-0.43875651656576337,1.0000666280279407,0.00012954269783691866
-0.4384967613679237,-0.4384967613679237,0.9999101917468319,0.00013246896097556814
