time,time,flux,flux_err
-0.4999141830618707,-0.4999141830618707,1.0000077086050878,0.00016500517100296228
-0.4998404275473149,-0.4998404275473149,0.9999643148672603,0.00013249069134940687
-0.49974173105511,-0.49974173105511,1.0001035059340766,0.00015341497287068702
-0.4996045516323647,-0.4996045516323647,0.9998279755115831,0.00014745505463123975
-0.49948444214169285,-0.49948444214169285,0.999909270446247,0.00013377619784494618
-0.49939867536304516,-0.49939867536304516,0.9997168620490686,0.0001536524465347007
-0.49927008504528203,-0.49927008504528203,1.0000631174500814,0.0001394159981447864
-0.49914627075995666,-0.49914627075995666,0.9998006837317706,0.00014866067633380607
-0.4990547494679049,-0.4990547494679049,1.000069645749526,0.00013681760234553913
-0.4988976124419423,-0.4988976124419423,1.000220283441405,0.00014851000031370178
-0.49873982741628425,-0.49873982741628425,1.0002662804842393,0.00015400710522101826
-0.49861611318774524,-0.49861611318774524,1.000023765861116,0.00013184239949673218
-0.4984794184769271,-0.4984794184769271,0.9999646620320878,0.00013619352128057963
-0.4983936227465165,-0.4983936227465165,0.9999126346638695,0.0001397948006969237
-0.49827540026744827,-0.49827540026744827,0.9999479362057,0.00014446274290641088
-0.49814638038369596,-0.49814638038369596,0.9999708337140539,0.00013285376239856417
-0.49800948611591594,-0.49800948611591594,0.9999346935161002,0.00013517990798813555
-0.49785787300425,-0.49785787300425,1.0003022016289198,0.00013825288645225384
-0.49776959512382746,-0.49776959512382746,1.0001297037888697,0.00014949772788538696
-0.497636766325013,-0.497636766325013,0.9999136001384681,0.00013210868633554038
-0.4974547418387374,-0.4974547418387374,0.9998971416645936,0.0001343875333659969
-0.4972852607672394,-0.4972852607672394,1.0000741076924693,0.00013498837954055263
-0.4972302368245437,-0.4972302368245437,1.0001066762610429,0.0001419113349758402
-0.49703390596696406,-0.49703390596696406,0.9998403082213981,0.00014142406782203978
-0.49695300499297446,-0.49695300499297446,0.9999518005648513,0.0001448155123885166
-0.49680907432630195,-0.49680907432630195,0.9999247398371335,0.00013263012458908133
-0.49676741052171564,-0.49676741052171564,0.9998492770173038,0.00013908479160660252
-0.49672037315176565,-0.49672037315176565,1.0000763015398104,0.00014341644844368954
-0.49659073789953256,-0.49659073789953256,0.9999815678684773,0.00013712196648041304
-0.4963856142872828,-0.4963856142872828,0.9999564137985558,0.0001374037845270862
-0.4962443639895355,-0.4962443639895355,0.9999935662147342,0.00013130471774087439
-0.4961217313837551,-0.4961217313837551,1.0001424908838719,0.0001401065013940099
-0.49593442837940527,-0.49593442837940527,1.0002242002382613,0.0001535988302924727
-0.49584365607079234,-0.49584365607079234,1.0000794511186477,0.0001335469833020325
-0.4956913325790083,-0.4956913325790083,1.000342562660966,0.00014499419777927732
-0.49564126985133045,-0.49564126985133045,1.0001748264945838,0.00015354972760336954
-0.49558223935091517,-0.49558223935091517,1.000022482418908,0.0001525314378624112
-0.495497377315769,-0.495497377315769,1.0002625392209956,0.00014905460035710797
-0.49543903535886785,-0.49543903535886785,1.000045666695501,0.00014492073756284233
-0.4953771364969725,-0.4953771364969725,1.0001359017317064,0.00013338591382464022
-0.4952536224409414,-0.4952536224409414,1.0000725579330125,0.0001334593135101571
-0.49509524336317556,-0.49509524336317556,1.000167239944065,0.0001401100191643168
-0.49497360032619325,-0.49497360032619325,1.0000235988896438,0.00014887031074546728
-0.49485755490095473,-0.49485755490095473,1.0001726205681585,0.0001399200654438495
-0.4947161135118222,-0.4947161135118222,1.0001703750328579,0.00015417320335010362
-0.4945694611087674,-0.4945694611087674,0.999844658252322,0.0001441219502389377
-0.4944527904081042,-0.4944527904081042,1.0001837658130508,0.00014929721410835922
-0.4942959712672746,-0.4942959712672746,1.0001451203114584,0.00014316253654607136
-0.4941281505889492,-0.4941281505889492,0.999997737308304,0.00013371552524154063
-0.4939905336534139,-0.4939905336534139,1.0000104429643821,0.00013683200194998112
-0.4938661327076261,-0.4938661327076261,0.9999427062770037,0.0001347435258670702
-0.49375057644647313,-0.49375057644647313,1.0000243650297935,0.00013814445691058292
-0.49362872487836285,-0.49362872487836285,1.0001135273737642,0.00013812477489237257
-0.4935000210403814,-0.4935000210403814,0.9997888653015281,0.00014527197299456755
-0.493366518876428,-0.493366518876428,0.9999139928153824,0.00013447961961217717
-0.49325087306278875,-0.49325087306278875,1.0001088948530938,0.0001338180947234145
-0.4932082426763372,-0.4932082426763372,1.0000318979791265,0.00015041622772958037
-0.49310716056206727,-0.49310716056206727,1.0000412883521732,0.00014490377017565122
-0.4929873137283721,-0.4929873137283721,1.0002584795781992,0.0001356749519099471
-0.4929108313866891,-0.4929108313866891,0.9999830183402606,0.00013625774253196824
-0.49273208393351525,-0.49273208393351525,1.0000524562811575,0.00013377541484387858
-0.49263236074184535,-0.49263236074184535,1.0000640750192136,0.00013887495129460284
-0.4925457165692933,-0.4925457165692933,1.0000445674930645,0.00013504977063393407
-0.49241312939921045,-0.49241312939921045,1.0000259635132969,0.00013500545819861235
-0.4922166082280455,-0.4922166082280455,1.0001471468950012,0.0001342536212490273
-0.4921273357162136,-0.4921273357162136,0.9999708366983302,0.00015280948280054928
-0.492010170823778,-0.492010170823778,1.0001625881735834,0.00013744409028279564
-0.49194604502554284,-0.49194604502554284,0.9998556718514425,0.00014628082082230839
-0.491878176809405,-0.491878176809405,0.9999876512239714,0.00014769548208487803
-0.49176496991785823,-0.49176496991785823,0.9997211162985111,0.00014453663447932516
-0.49163672410140863,-0.49163672410140863,1.0003434083781808,0.00014943845226000934
-0.49149098237103317,-0.49149098237103317,1.0004841576760688,0.00015715165973732612
-0.4913602496228123,-0.4913602496228123,0.9998135317998929,0.00015008783476261458
-0.4912066587530717,-0.4912066587530717,0.9998468191411003,0.0001356216963421878
-0.49104671243185294,-0.49104671243185294,1.0000089468573208,0.00013353903053327609
-0.4908940877088753,-0.4908940877088753,1.0001129352258815,0.00014415864900734735
-0.49083319408237003,-0.49083319408237003,1.0000702576928353,0.00014092234944525092
-0.4907398730814748,-0.4907398730814748,1.0000137740166763,0.00014856837102530392
-0.490638776931155,-0.490638776931155,0.9998401746948676,0.00014071542971980287
-0.49045709640267887,-0.49045709640267887,1.000061418482242,0.00013284798263835752
-0.4902821550684166,-0.4902821550684166,1.0000691664087678,0.0001335759165356292
-0.4901371867759735,-0.4901371867759735,1.0001008280801054,0.00014177172974486958
-0.4900072651944356,-0.4900072651944356,1.0002031872696078,0.00013270397895883226
-0.48984787356021114,-0.48984787356021114,1.0000903373552674,0.00013590145431819915
-0.48971644610937803,-0.48971644610937803,1.0002627925262368,0.00013976286825472951
-0.48960281366016717,-0.48960281366016717,0.9999387141239613,0.00013226301340383905
-0.48938854186344544,-0.48938854186344544,0.9999931228393244,0.00015228331428734966
-0.4892890587376314,-0.4892890587376314,1.0001507018190363,0.00013573077510132137
-0.48918660373383316,-0.48918660373383316,0.9999808497157204,0.00013959929923661234
-0.48906576310037053,-0.48906576310037053,0.999770558618895,0.00013919152509281828
-0.4889845051067823,-0.4889845051067823,0.9999323029348443,0.00014869887133787363
-0.4888642617464939,-0.4888642617464939,1.0000184352098853,0.00013294479343507515
-0.48876380376605083,-0.48876380376605083,0.9999622389331124,0.00014000754910177
-0.4886500627515488,-0.4886500627515488,0.9999927421864545,0.0001336219595614262
-0.4884649270192313,-0.4884649270192313,1.0001498965980786,0.00013967588250818726
-0.4883703850362508,-0.4883703850362508,1.0000442861971843,0.00013687093892949216
-0.48819428973292817,-0.48819428973292817,0.9999771665760516,0.00015631913436143735
-0.4880818545279908,-0.4880818545279908,0.9999920968798124,0.00013396513197134278
-0.48798741023128966,-0.48798741023128966,0.9997995724986122,0.00014715484883573145
-0.487848270037648,-0.487848270037648,0.9999799675887175,0.00015623971330817774
-0.487714142492041,-0.487714142492041,1.0000649004808184,0.00013471423259170056
-0.48762969657909705,-0.48762969657909705,1.0000077173468844,0.00015401716561640189
-0.4875309371695039,-0.4875309371695039,1.0000542265567096,0.00013748636534294457
-0.4873628600500524,-0.4873628600500524,1.0000530047174476,0.0001498507371201555
-0.4872813218869851,-0.4872813218869851,1.0001462710217242,0.00013404315023248374
-0.48712981888020296,-0.48712981888020296,0.9999866390532249,0.0001503488953515873
-0.4869640668366628,-0.4869640668366628,1.0000757273757657,0.00014784324000819107
-0.48688614908896855,-0.48688614908896855,0.9999857301274323,0.00014299301378138907
-0.4867296766773507,-0.4867296766773507,1.0000570600086809,0.00013836834110951527
-0.4866413906289381,-0.4866413906289381,0.9999247645149257,0.00013420186411019805
-0.48658939345841645,-0.48658939345841645,0.9998377226818587,0.00014880742540650962
-0.48648080971470337,-0.48648080971470337,1.0000402438968918,0.0001335642900104199
-0.4863641138806997,-0.4863641138806997,1.0002225081444043,0.00013299927129318612
-0.4862263369635912,-0.4862263369635912,1.0000684868463776,0.0001367287929195367
-0.48606516740255756,-0.48606516740255756,1.000029470129539,0.00013997948705555646
-0.48600881069432944,-0.48600881069432944,0.9999488812280175,0.00014981574867870478
-0.4858627323032124,-0.4858627323032124,1.0001178434469224,0.00013222005054767705
-0.48574610747382396,-0.48574610747382396,1.000162979307655,0.00013428279494019627
-0.4855480334321328,-0.4855480334321328,1.0000805818297283,0.0001357658043170974
-0.48547639110984164,-0.48547639110984164,0.9999725636901136,0.00013329604762142393
-0.4854111885142629,-0.4854111885142629,0.9999931414661628,0.00014437606316013388
-0.4851987368208938,-0.4851987368208938,0.9999569633574328,0.00014668682543496063
-0.485142539915978,-0.485142539915978,1.0000198001276106,0.00013341849205645618
-0.4850163645052817,-0.4850163645052817,0.9999086399506023,0.00013988767485948947
-0.484969438182452,-0.484969438182452,0.99993675997301,0.00013633939182471015
-0.48488248359499264,-0.48488248359499264,0.9999932444417172,0.00014318906625767833
-0.4847883642309171,-0.4847883642309171,1.0000726354674643,0.00013714955161262565
-0.4845902378881874,-0.4845902378881874,1.0001392449533166,0.0001351366497349051
-0.48446639098037847,-0.48446639098037847,0.9997797517965565,0.00013343553325822675
-0.4843546967465954,-0.4843546967465954,1.0000262768991948,0.00013569360195265863
-0.484176845564798,-0.484176845564798,1.0001561102334657,0.00015814684911910412
-0.48405748287405004,-0.48405748287405004,1.0001029956451195,0.0001336718365316381
-0.4839049985312158,-0.4839049985312158,0.9998549340795675,0.0001538432482860843
-0.48384145029922365,-0.48384145029922365,1.000137298910051,0.00015274047479517448
-0.48376227476765055,-0.48376227476765055,1.000179076793318,0.00014492353951980815
-0.4836999238206772,-0.4836999238206772,0.9998868426844719,0.000148376765911643
-0.48361111543490554,-0.48361111543490554,0.9998478729675819,0.00013912504447858808
-0.48349749070112014,-0.48349749070112014,1.0000719206198307,0.00013292470297243916
-0.4833738804925815,-0.4833738804925815,1.0001209861437528,0.00013416219736169234
-0.48330840043054196,-0.48330840043054196,0.9999673873565842,0.0001330592037843454
-0.48321973256970524,-0.48321973256970524,1.0000504635832497,0.0001449010430824056
-0.4831198425970797,-0.4831198425970797,0.9997848668234706,0.00014157035304609647
-0.48296677992912007,-0.48296677992912007,0.9998927936013648,0.00015039772225671665
-0.4828088306057907,-0.4828088306057907,0.9999593010734171,0.00014462728825613495
-0.4827056951995473,-0.4827056951995473,0.9999840125230344,0.0001477799580584006
-0.48257075407091177,-0.48257075407091177,0.9997950936724044,0.00014973340229828706
-0.4824287788535003,-0.4824287788535003,0.9999807612167986,0.00013640204497151153
-0.48224947229682585,-0.48224947229682585,1.0000978349406684,0.00013393586731676768
-0.4821614289743593,-0.4821614289743593,1.0000733133083393,0.00013545986732771924
-0.4820271062919346,-0.4820271062919346,1.000095914435324,0.0001345457411179106
-0.4819186796521535,-0.4819186796521535,1.0000284829948807,0.00013346624567351495
-0.48180939112280613,-0.48180939112280613,0.9998358795304865,0.00013355988021050474
-0.4816935906863364,-0.4816935906863364,0.9999988461944704,0.000147045047638118
-0.48154753479393547,-0.48154753479393547,0.9998781683131405,0.00013582213072456544
-0.481448923573771,-0.481448923573771,1.0002535873790372,0.00014349716522589828
-0.48140625740852555,-0.48140625740852555,1.0000934538469326,0.00013883344147825818
-0.48129995964700356,-0.48129995964700356,0.999973922744483,0.00014526628671614384
-0.48117373572385985,-0.48117373572385985,0.9995718795839379,0.00013627742927515226
-0.4810242346960877,-0.4810242346960877,0.9999043815334376,0.00013588479659583846
-0.4808788687325432,-0.4808788687325432,0.9999394207277129,0.00013650166902118863
-0.480796989807277,-0.480796989807277,1.0000555152217592,0.00013592501979411097
-0.4807048384092923,-0.4807048384092923,0.9999154467379396,0.000132321780870647
-0.4804577788039751,-0.4804577788039751,0.9998305410962501,0.00013755060829056864
-0.4803528482152615,-0.4803528482152615,0.9999876044343093,0.00013703629600546384
-0.480277329456294,-0.480277329456294,0.9999519936016226,0.0001543372043699628
-0.4802060867245018,-0.4802060867245018,1.0000520223680631,0.00014517791213960047
-0.48015427244463355,-0.48015427244463355,1.0001198581312845,0.0001366914473960905
-0.48007870875808295,-0.48007870875808295,0.9998352500051382,0.000156742102564876
-0.4799438521426055,-0.4799438521426055,0.9999267905396033,0.00014564647720755628
-0.47982981269669833,-0.47982981269669833,0.9999020838385155,0.00014135784524177316
-0.47970256348125984,-0.47970256348125984,1.0000570776724704,0.0001490431211917152
-0.4795663647266338,-0.4795663647266338,1.0000407240436349,0.00015175528443849514
-0.47945365073683205,-0.47945365073683205,0.9998059857099502,0.00014432644031223927
-0.4792842944400036,-0.4792842944400036,0.9998597466744412,0.00013455648249044295
-0.47918243009917205,-0.47918243009917205,0.9998415668882981,0.0001335777021586994
-0.47906199011413264,-0.47906199011413264,1.0002139268002352,0.00014658784941480043
-0.4790070910625218,-0.4790070910625218,1.000035751927373,0.0001534804961055594
-0.4789142328249,-0.4789142328249,0.9999902105781808,0.00014709234400684583
-0.4786982294419431,-0.4786982294419431,0.9999197277649918,0.00013316913303690846
-0.47848928939565666,-0.47848928939565666,1.0000108548120932,0.00013493558315361267
-0.4783448127709562,-0.4783448127709562,0.9999449963041489,0.00013668242337802134
-0.478202039613825,-0.478202039613825,1.0000664450702046,0.00013797333033687412
-0.4780760891553655,-0.4780760891553655,1.000001694300861,0.00013503547930210545
-0.47792054609381013,-0.47792054609381013,1.0001588366454297,0.00013713874724271478
-0.4777382763408241,-0.4777382763408241,1.0000201706236953,0.00014118601033217748
-0.4775862784561468,-0.4775862784561468,1.0000229254796769,0.0001446373079674219
-0.47751538701704704,-0.47751538701704704,1.0000715443977173,0.00013316828830117424
-0.47739365925081073,-0.47739365925081073,1.0001151076824555,0.00014110952795277722
-0.47725588593821155,-0.47725588593821155,0.9998370988052878,0.00013483220140850607
-0.4771730583575845,-0.4771730583575845,1.0001131846277231,0.00014691063748995683
-0.4770526325024548,-0.4770526325024548,1.0001418559069417,0.00013453913076154805
-0.47692437798177706,-0.47692437798177706,1.0000312336120265,0.00013406058712371382
-0.4768134628589905,-0.4768134628589905,0.9998871675277717,0.00013518251661725434
-0.47669249085593035,-0.47669249085593035,1.00022436932907,0.00013509322258389742
-0.47657191512844294,-0.47657191512844294,0.9999998191364758,0.00015157352567027687
-0.47644052843606916,-0.47644052843606916,1.0002839934769419,0.0001598556548776024
-0.4763026492575591,-0.4763026492575591,0.9999212766174989,0.0001331926725150402
-0.47619515161932213,-0.47619515161932213,0.9996584837945501,0.00014496760143743297
-0.47608388035732785,-0.47608388035732785,0.9999821164636679,0.00015183609520681178
-0.475954329650267,-0.475954329650267,1.0001128539869273,0.00014455281923160074
-0.4758713099829038,-0.4758713099829038,1.0001121998943225,0.00015654602643281788
-0.4757633528824954,-0.4757633528824954,0.9999457773558944,0.00013465231850828718
-0.47560213842589294,-0.47560213842589294,0.9999635521390324,0.00014672613479166114
-0.47549900291414815,-0.47549900291414815,1.000249899478606,0.0001378204514975712
-0.47537705340073444,-0.47537705340073444,1.0000555592233087,0.0001503160067170514
-0.4752043649656116,-0.4752043649656116,0.9999857015269299,0.0001451324319420214
-0.4751023227829137,-0.4751023227829137,1.0002012930878783,0.00014759608791590145
-0.474960752192419,-0.474960752192419,1.0001179332863166,0.00013949179297992507
-0.4748752570078068,-0.4748752570078068,1.0000219582439434,0.00013730896099532444
-0.47480448900387273,-0.47480448900387273,0.9999090245862086,0.00014970140804741147
-0.47468799414345997,-0.47468799414345997,0.9998812246741415,0.00013377489530463595
-0.47458056070681776,-0.47458056070681776,1.0001439077782255,0.00013158527521186486
-0.4745073744590627,-0.4745073744590627,1.0000104433807775,0.000134817843488663
-0.47427651472535215,-0.47427651472535215,1.0000700093356347,0.00013988203508137525
-0.474127040572057,-0.474127040572057,1.0001092675590086,0.00014637203239266177
-0.47396027416398284,-0.47396027416398284,1.0000120209177426,0.0001360135522291736
-0.4737099702746491,-0.4737099702746491,1.0002135241891341,0.00013583618724422722
-0.47359595651578273,-0.47359595651578273,0.9999779307334338,0.00015286265615992265
-0.47337257278850303,-0.47337257278850303,1.0000751592044976,0.00013753368446808373
-0.4732727556060127,-0.4732727556060127,0.999720393522732,0.000133537170050572
-0.473200688779616,-0.473200688779616,1.0001462977994384,0.0001354611870908253
-0.47313910233497153,-0.47313910233497153,0.9998573538790279,0.00014071713795392628
-0.4730536007729825,-0.4730536007729825,0.9999582657388583,0.00013655252716458013
-0.47292128881090323,-0.47292128881090323,1.0001532822885189,0.00013907564786325396
-0.4727273175303708,-0.4727273175303708,0.9999927613285919,0.0001344725628348522
-0.4726273374319135,-0.4726273374319135,1.0000258855488555,0.0001437284698534608
-0.4724731381815218,-0.4724731381815218,1.0002332981895397,0.00014975899905089648
-0.4723187787902134,-0.4723187787902134,1.0000412077057905,0.00014332577645536387
-0.47214775346874377,-0.47214775346874377,0.9998050891110573,0.00015730686592799295
-0.4720355780067621,-0.4720355780067621,1.0001642988535044,0.00015472148611468827
-0.4719660704780836,-0.4719660704780836,1.0001353794545205,0.00014454265567286098
-0.47191465109717684,-0.47191465109717684,1.0001350964774105,0.00014933741453668423
-0.47181054689572194,-0.47181054689572194,0.9999263893617917,0.00014432437552342405
-0.4716960586658388,-0.4716960586658388,1.0000043244579366,0.00013827820117143734
-0.4715845993050607,-0.4715845993050607,1.0000205322690898,0.0001454157259920636
-0.47150116097254796,-0.47150116097254796,0.9998664013072501,0.0001354799612107406
-0.4714185952754633,-0.4714185952754633,1.0000479757971514,0.00014916525020736292
-0.47129377511446363,-0.47129377511446363,0.9999208750018633,0.00013742961603659267
-0.4711392355122371,-0.4711392355122371,1.000137993983944,0.00013437479631641424
-0.47099988685804417,-0.47099988685804417,0.9997569394670938,0.0001433367970956918
-0.47086914781539235,-0.47086914781539235,0.9998678896503591,0.00015411549991309212
-0.47075440246189826,-0.47075440246189826,0.9998524991632104,0.00014667039183130411
