time,time,flux,flux_err
-0.49987171337751946,-0.49987171337751946,0.9999036006324001,0.00033397751919336766
-0.4996383245625197,-0.4996383245625197,1.0001372002577644,0.00032646937664454186
-0.499404935725023,-0.499404935725023,0.9998700328015939,0.0003208996613362819
-0.4991715468684082,-0.4991715468684082,0.9999869452686014,0.00031674351793775803
-0.4989576070690827,-0.4989576070690827,0.9999817017889775,0.00028589223931229957
-0.4987631163321261,-0.4987631163321261,1.000228630100814,0.0002821404485504567
-0.49856862558694176,-0.49856862558694176,0.9996919305367159,0.00027765225674981236
-0.4983741348346552,-0.4983741348346552,1.0001814384005523,0.0002724794077693543
-0.4981796440763905,-0.4981796440763905,1.0002977755504059,0.00026704382142903754
-0.4979851533130059,-0.4979851533130059,0.9999031081550758,0.00026208849378894284
-0.4977906625453702,-0.4977906625453702,1.0000934238743897,0.00025801126611489964
-0.49759617177425747,-0.49759617177425747,0.9999154213166719,0.00025507118477176245
-0.4973963908511994,-0.4973963908511994,0.9998721965137978,0.0002528658420308896
-0.4972381868641079,-0.4972381868641079,0.9997097705253252,0.0002395827464585256
-0.49704381797077735,-0.49704381797077735,1.0004130333124102,0.00024886230070632565
-0.49684932719183444,-0.49684932719183444,1.0002984304162825,0.00024632072374377895
-0.4966548364120566,-0.4966548364120566,1.0005139146274324,0.0002431964460517082
-0.49646034563185604,-0.49646034563185604,1.0006956231270558,0.0002398953740455427
-0.49626585485154956,-0.49626585485154956,0.9998065821646318,0.0002363334411771347
-0.4960727937202053,-0.4960727937202053,1.0001653645029809,0.00022487521801450492
-0.4959497488282471,-0.4959497488282471,1.0001558013058423,0.0002147981268680368
-0.4958500419434223,-0.4958500419434223,1.0001141421560222,0.00020549984683223985
-0.49575525656996894,-0.49575525656996894,0.9995414841404433,0.00021378296677845455
-0.4956555489377651,-0.4956555489377651,1.000173930854523,0.0002050079092570589
-0.4955564077083764,-0.4955564077083764,1.000430057565864,0.00021301797811815537
-0.49545794406477645,-0.49545794406477645,0.9999213609460573,0.00020433278239080405
-0.49535911476374483,-0.49535911476374483,1.0000621062444814,0.0002120407430880481
-0.4952603391776895,-0.4952603391776895,1.000120351831087,0.00020356658038568094
-0.4951624441809308,-0.4951624441809308,1.0001224628053833,0.0002108284938937898
-0.4950658461296543,-0.4950658461296543,0.9999742145419329,0.00020275160093901804
-0.4949679518866965,-0.4949679518866965,0.9997700668627081,0.0002096342651902514
-0.49487135306898794,-0.49487135306898794,1.0001812623967525,0.00020196950459389242
-0.4947700365473082,-0.4947700365473082,1.0000893001048823,0.00020850895366349644
-0.49467374814413245,-0.49467374814413245,0.9998368188563784,0.00020125859207896496
-0.49457336594182877,-0.49457336594182877,1.0004321824242748,0.00020747016157221984
-0.4944761432081705,-0.4944761432081705,1.0000907762984983,0.0002006168629560843
-0.4943751394037573,-0.4943751394037573,1.000192766452973,0.00020660512220076443
-0.49428165011402003,-0.49428165011402003,0.999827694534161,0.0002002403103395388
-0.4941806470824037,-0.4941806470824037,0.9998956068683793,0.00020632752968888376
-0.49408715701006845,-0.49408715701006845,1.0003274060322433,0.00020050802431293064
-0.49398615475547275,-0.49398615475547275,0.9997233755082261,0.0002064971250226255
-0.49389266389691516,-0.49389266389691516,1.0000536987575905,0.00020073418917829284
-0.49379166242341876,-0.49379166242341876,1.0006554562153365,0.00020655117077618217
-0.4936981707751812,-0.4936981707751812,1.0000507708885213,0.00020115825848056307
-0.4935971700866878,-0.4935971700866878,1.000124440640347,0.00020690282159467334
-0.4935036776454451,-0.4935036776454451,0.9999598673537207,0.00020154286285690217
-0.4934026777456541,-0.4934026777456541,1.0000970194438221,0.00020713202055120945
-0.4933091845082499,-0.4933091845082499,1.000595343034121,0.00020203707196699366
-0.49320818540070716,-0.49320818540070716,0.9999287137876884,0.00020754372272947552
-0.49311469136412284,-0.49311469136412284,1.0006121786273547,0.00020254777637277146
-0.4930136930522259,-0.4930136930522259,1.0001178661018137,0.0002079345840935793
-0.49292019821355326,-0.49292019821355326,0.9999820228163472,0.00020309795821207944
-0.4928192007005496,-0.4928192007005496,0.9999098247049194,0.0002081056062607373
-0.4927257050570429,-0.4927257050570429,1.0002759720762473,0.00020384546983687315
-0.4926247083460241,-0.4926247083460241,1.0000185139964237,0.00020876906474550215
-0.4925312118949908,-0.4925312118949908,0.9998842404071546,0.00020467417357700697
-0.4924302159889349,-0.4924302159889349,0.9996341015416524,0.0002092222759956029
-0.4923367187278439,-0.4923367187278439,1.0002328103194447,0.00020547271927409604
-0.4922357236295188,-0.4922357236295188,1.00005988510484,0.00020987941168805168
-0.4921422255560051,-0.4921422255560051,1.0000916467945233,0.00020640988948656807
-0.49204123126812077,-0.49204123126812077,1.000255135015387,0.00021044942018521993
-0.49194773237981443,-0.49194773237981443,1.0001705656088096,0.00020730622522071527
-0.4918467389049866,-0.4918467389049866,1.0004557298878154,0.00021104872461810567
-0.4917532391996334,-0.4917532391996334,0.9999161081280323,0.00020823704987106627
-0.49165224654034,-0.49165224654034,1.0000347501588822,0.00021160979284396997
-0.4915587460158191,-0.4915587460158191,0.9998701320180782,0.00020910636325627876
-0.4914577541744034,-0.4914577541744034,1.0000810603149657,0.00021221048035164006
-0.4913642528286809,-0.4913642528286809,1.0002454286544222,0.0002102316451850691
-0.4912632618074033,-0.4912632618074033,0.9997778483300644,0.00021286941711050688
-0.491169759638484,-0.491169759638484,1.0001364576127236,0.0002110807014662032
-0.4910687694395479,-0.4910687694395479,0.9997756644993816,0.000213479730422575
-0.49097526644553613,-0.49097526644553613,1.0002504536975794,0.00021178969706015684
-0.4908742770710024,-0.4908742770710024,0.999938991357349,0.00021372427685789147
-0.4907764165653827,-0.4907764165653827,1.0001197987546013,0.0002121018882045084
-0.4906766727842909,-0.4906766727842909,0.9999881820449366,0.00021392024968187518
-0.49058161217577767,-0.49058161217577767,0.9999015423825574,0.00021230946941209382
-0.4904821804147998,-0.4904821804147998,0.9999846964744121,0.00021404103579979726
-0.4903871189759295,-0.4903871189759295,1.000137291572441,0.0002124784944319491
-0.49028768804515843,-0.49028768804515843,0.9999567879903541,0.0002141932187193139
-0.4901926257742364,-0.4901926257742364,0.9999395503891566,0.00021281878696423868
-0.4900931956754585,-0.4900931956754585,0.9998634984556792,0.00021447772570576845
-0.4899981325709645,-0.4899981325709645,1.0000710928419294,0.00021341269704249155
-0.4898987033059091,-0.4898987033059091,0.9999466749829928,0.00021499844709494138
-0.4898036393663041,-0.4898036393663041,1.0002271355754568,0.00021429836621959068
-0.4897042109365744,-0.4897042109365744,0.9997063236980747,0.00021562997160662085
-0.4896091461604323,-0.4896091461604323,0.9999088774916224,0.00021539801507611944
-0.4895097185676107,-0.4895097185676107,1.0001384053278541,0.00021633366385171582
-0.4894146529535085,-0.4894146529535085,1.0001555538061315,0.00021612623670472
-0.4893152261991244,-0.4893152261991244,0.999823559836433,0.00021659292037650926
-0.4892201597457051,-0.4892201597457051,1.0001421455630854,0.00021646784004000075
-0.4891207338312169,-0.4891207338312169,0.9999375263681337,0.00021677411561715597
-0.4890256665371517,-0.4890256665371517,1.0000133524994836,0.00021669945215703744
-0.4889262414640278,-0.4889262414640278,0.9999844572837218,0.00021700789232554661
-0.4888268166423522,-0.4888268166423522,1.0002804423244644,0.0002170720548979184
-0.4887255252609052,-0.4887255252609052,0.9999690731572859,0.00021719476616188007
-0.48862267648572894,-0.48862267648572894,1.0000270400130693,0.00021734706309200743
-0.48852792097684006,-0.48852792097684006,0.9999343058290979,0.00021750909274023716
-0.4884281832756381,-0.4884281832756381,1.0002445543220277,0.00021822086145324482
-0.4883334286121356,-0.4883334286121356,0.9998465293654153,0.00021829529478585357
-0.488233690065336,-0.488233690065336,1.0000264318411252,0.00021925617867265081
-0.4881389362484745,-0.4881389362484745,1.0000985007594294,0.00021900269238043672
-0.48803919685497676,-0.48803919685497676,0.9999761663390251,0.00022034172013324984
-0.48794444388593555,-0.48794444388593555,0.9999268291375689,0.00021950181437395286
-0.4878447036446241,-0.4878447036446241,0.9999785192889583,0.00022084150354176432
-0.48774995152457484,-0.48774995152457484,1.0000668689646042,0.00021963294857093302
-0.48765021043441426,-0.48765021043441426,1.0000814303984606,0.00022081356346621833
-0.487555459164507,-0.487555459164507,0.9998895730719004,0.00021962998431981413
-0.4874557172244394,-0.4874557172244394,1.0002105226710032,0.0002209188907278596
-0.4873609668057556,-0.4873609668057556,1.0000491665445073,0.0002196386908091264
-0.48726122401475197,-0.48726122401475197,1.0001041627006175,0.000220964848490792
-0.487166474448367,-0.487166474448367,0.9997710361096088,0.00021967844877805978
-0.48706673080549445,-0.48706673080549445,0.9999146835796807,0.0002209557474067842
-0.4869719820924511,-0.4869719820924511,1.0003242940434578,0.00021963473917045137
-0.4868722375967319,-0.4868722375967319,0.9998266792941836,0.00022090645661266328
-0.486777489738018,-0.486777489738018,0.9998546211562986,0.00021953469450172318
-0.48667774438851163,-0.48667774438851163,1.0003808249135533,0.0002209316981753378
-0.4865829973851348,-0.4865829973851348,0.9998221450206994,0.00021974299053187742
-0.48648325118094904,-0.48648325118094904,0.9998980594861953,0.00022140713541355834
-0.4863885050338375,-0.4863885050338375,0.9999457221078334,0.00022023703578705683
-0.4862862684939445,-0.4862862684939445,1.000138945250495,0.00022232374982115739
-0.486187788949603,-0.486187788949603,1.0000298596909984,0.00022088290016364834
-0.4860864850397492,-0.4860864850397492,1.000162982458882,0.0002232466281104276
-0.4859917406423529,-0.4859917406423529,0.9996984600550787,0.0002215023784779076
-0.48589199183451565,-0.48589199183451565,0.9999279275137095,0.00022424181682365512
-0.48579724829616727,-0.48579724829616727,1.000186214915997,0.00022219245867357182
-0.4856974986301875,-0.4856974986301875,0.9999790430612876,0.00022527759542699289
-0.48560275595172975,-0.48560275595172975,0.9999091123856282,0.00022289138830730438
-0.4855030054267798,-0.4855030054267798,1.0001186779473212,0.00022643160457554612
-0.48540826360914446,-0.48540826360914446,0.999875049471941,0.00022360802122137815
-0.4853085122244007,-0.4853085122244007,1.000117503035924,0.00022709371240328325
-0.4852137712683634,-0.4852137712683634,1.0000076637608162,0.00022380712710452804
-0.4851140190230666,-0.4851140190230666,0.9999595806537078,0.0002270918477707425
-0.4850192789294425,-0.4850192789294425,0.9999127102002907,0.00022363905533065095
-0.4849192146309633,-0.4849192146309633,1.0003114860168485,0.00022659804514418201
-0.48482074109797735,-0.48482074109797735,0.9996282186568587,0.0002231201611262407
-0.4847146262206056,-0.4847146262206056,1.0000777251208348,0.00022288591161600193
-0.4846010427388146,-0.4846010427388146,1.0000301064936026,0.00022254887734996317
-0.48449630866465687,-0.48449630866465687,0.9998421382957323,0.0002249531394427616
-0.48439908180093205,-0.48439908180093205,1.0001679567221526,0.00022224835774391243
-0.4842971475900185,-0.4842971475900185,0.9999569858618166,0.0002246294394567954
-0.4842024111270142,-0.4842024111270142,0.9999305617208062,0.00022212494225006059
-0.48410265439489814,-0.48410265439489814,0.9999945414646614,0.00022466812647443246
-0.484007918798258,-0.484007918798258,0.9999294010866148,0.000222269949318609
-0.48390816120108243,-0.48390816120108243,1.0002780990063447,0.00022494019544496048
-0.48381342647153147,-0.48381342647153147,0.9998562718252437,0.00022229289715950572
-0.48371366800861465,-0.48371366800861465,0.9998809283702024,0.0002243581417836013
-0.48361644461182607,-0.48361644461182607,1.0002428851269887,0.00022146971968800785
-0.4835146864283228,-0.4835146864283228,0.9998558094964253,0.00022111548048626511
-0.48342115041644823,-0.48342115041644823,1.0001575864827668,0.00022274265904143775
-0.48332019410698257,-0.48332019410698257,1.000053069666171,0.0002205049061610796
-0.4832266572276341,-0.4832266572276341,0.9997975337134845,0.0002215434793633151
-0.4831255205614406,-0.4831255205614406,0.9999388021528395,0.0002206744383393783
-0.48300695753968625,-0.48300695753968625,1.0000885020768355,0.00022004189508247684
-0.482906314328935,-0.482906314328935,0.999920620491471,0.0002187901883873435
-0.48280810776499267,-0.48280810776499267,0.9999764508542388,0.00021961944646684044
-0.482711822014153,-0.482711822014153,1.0001080165256169,0.00021881249212247675
-0.48261361458079505,-0.48261361458079505,0.9998229481788826,0.0002200065719815997
-0.48251639612588876,-0.48251639612588876,1.0000588914103097,0.00021921184322770096
-0.4824144535199473,-0.4824144535199473,1.000072395996456,0.00022067766599431025
-0.4823197254722805,-0.4823197254722805,0.9997887757716686,0.0002196128594779584
-0.4822199603388862,-0.4822199603388862,0.9998664821869238,0.00022116182025606136
-0.4821252331640409,-0.4821252331640409,1.0003680014548981,0.00021967706585544143
-0.4820254671593968,-0.4820254671593968,1.0001224886371225,0.0002210111312072854
-0.48191599034572247,-0.48191599034572247,0.9999439570403554,0.00021825343497898896
-0.48179674322435434,-0.48179674322435434,1.0001533853842421,0.00022073504041864633
-0.48170046201246774,-0.48170046201246774,0.9997478153775798,0.00021923537204153904
-0.48160225004845714,-0.48160225004845714,1.0003038414583263,0.00022010124153698678
-0.48150596971133447,-0.48150596971133447,0.9999725128904734,0.0002187095570138445
-0.4814077568742164,-0.4814077568742164,0.9998576687396191,0.00021922217037153392
-0.481311477412458,-0.481311477412458,0.9998309409320075,0.00021819755155825962
-0.48121326370165785,-0.48121326370165785,1.0001773837496524,0.0002184851045436785
-0.4811169851158564,-0.4811169851158564,0.9998567231764873,0.00021773469465954476
-0.4810187705308282,-0.4810187705308282,1.0000097830243142,0.0002178577989558691
-0.48092249282149896,-0.48092249282149896,1.0001701681492468,0.00021744760946344478
-0.4808220990185902,-0.4808220990185902,0.9996554023106372,0.0002177360957094935
-0.480724888610723,-0.480724888610723,0.9997974250588584,0.00021755822338204552
-0.4806251163162546,-0.4806251163162546,1.0002387256641452,0.00021810174410170463
-0.4805303963209832,-0.4805303963209832,1.0001663445744036,0.00021799585353765092
-0.4804306231506546,-0.4804306231506546,0.9998531749309534,0.00021890826619827103
-0.48033590403353,-0.48033590403353,0.9999974749776739,0.00021841390357794848
-0.4802361299868071,-0.4802361299868071,1.0000190474561417,0.0002195480298455895
-0.48014141174845265,-0.48014141174845265,1.0000496345538752,0.00021895617997204483
-0.48004163682477435,-0.48004163682477435,0.9999161909201894,0.00022038527578657524
-0.4799469194656242,-0.4799469194656242,1.00000085160141,0.00021948613874826035
-0.4798471436645405,-0.4798471436645405,1.0001480841768953,0.00022120802506485175
-0.47975242718517475,-0.47975242718517475,0.999735619295838,0.0002200061645730114
-0.47965265050612016,-0.47965265050612016,1.0001617263011835,0.00022185115974749243
-0.4795579349070744,-0.4795579349070744,1.0000888698358514,0.00022040126423720696
-0.47945815734953057,-0.47945815734953057,0.9996803782560658,0.0002220607361586008
-0.4793634426313208,-0.4793634426313208,1.0002341823317535,0.00022033202251377058
-0.4792636641935072,-0.4792636641935072,1.0001091747325759,0.00022196534273120132
-0.4791689503537535,-0.4791689503537535,0.9998496712683316,0.00022018988011780557
-0.4790691710301573,-0.4790691710301573,0.9999298445268698,0.00022155898998410802
-0.47897445807543787,-0.47897445807543787,1.0001481294002137,0.00021985991211176623
-0.4788746778682086,-0.4788746778682086,0.9999532513994364,0.00022105698555168612
-0.4787799657995276,-0.4787799657995276,0.999965277162509,0.00021952344485911177
-0.478676962878194,-0.478676962878194,1.0001411675951501,0.00021944822326107772
-0.4785821603262729,-0.4785821603262729,0.9998444703885591,0.000220630589247315
-0.4784812258384822,-0.4784812258384822,0.9999816777413916,0.00021931739387905138
-0.4783876671691685,-0.4783876671691685,0.9999876343225717,0.000220517291369841
-0.47828673356869567,-0.47828673356869567,1.0001664671422144,0.00021930709461648258
-0.4781931740139358,-0.4781931740139358,0.9999226935375211,0.0002204269987789365
-0.4780922413013071,-0.4780922413013071,0.9999695417307404,0.00021914039637434295
-0.47799868086062675,-0.47799868086062675,1.0000001669726646,0.00022019041857448762
-0.4778977490363518,-0.4778977490363518,1.000167475176783,0.00021886139711464243
-0.4778041877092738,-0.4778041877092738,0.9999430367681887,0.0002194163657440835
-0.47770325677380987,-0.47770325677380987,0.9999820467969837,0.00021815080232742977
-0.4776096945598445,-0.4776096945598445,0.9999490079564884,0.00021816143165137326
-0.47750876451368,-0.47750876451368,1.0002930933849805,0.000217348232726302
-0.4774152014123844,-0.4774152014123844,0.9998677813269321,0.0002169615214233357
-0.477314272255977,-0.477314272255977,0.9998077763196773,0.00021655282007495866
-0.4772207082668741,-0.4772207082668741,1.0000067397007417,0.00021628183733696395
-0.47711978000071137,-0.47711978000071137,1.0001606491960242,0.00021639815579179306
-0.4770262151233268,-0.4770262151233268,1.0001621701926369,0.0002163910415932611
-0.47692528774788523,-0.47692528774788523,0.9998361951648482,0.00021654973478809275
-0.4768317219817554,-0.4768317219817554,0.9998828271026344,0.00021661670061262685
-0.4767307954975172,-0.4767307954975172,0.9999244275947913,0.00021687033526815338
-0.47663722884216675,-0.47663722884216675,1.0003745621240152,0.0002171846892360614
-0.4765363032495813,-0.4765363032495813,0.9998630873125078,0.00021715334043950654
-0.47644273570458556,-0.47644273570458556,1.0000053708852947,0.00021766095519034243
-0.47634181100409767,-0.47634181100409767,0.99979803427623,0.00021744714112506162
-0.47624824256899456,-0.47624824256899456,1.0000098645157482,0.00021778366117528418
-0.47614731876109245,-0.47614731876109245,1.0001452325519795,0.00021742730492327355
-0.4760537494354363,-0.4760537494354363,0.9999788522190626,0.00021749606155101918
-0.4759528265205251,-0.4759528265205251,1.0000772487868832,0.00021697571747912028
-0.47585925630386755,-0.47585925630386755,0.9998852098442143,0.00021680985729089107
-0.4757583342824619,-0.4757583342824619,1.0003520962360113,0.00021653859082592904
-0.47566476317434725,-0.47566476317434725,0.9997612816514735,0.00021603081121570196
-0.47556384204684365,-0.47556384204684365,0.9999118415616337,0.00021600654449047363
-0.47547027004684084,-0.47547027004684084,0.9999174306388559,0.00021536931493311304
-0.4753693498137432,-0.4753693498137432,1.0003260805894214,0.00021575735223941457
-0.4752757769213959,-0.4752757769213959,1.0000477682242817,0.00021506498121423413
-0.47517485758308825,-0.47517485758308825,1.0001452028435076,0.00021568194675430818
-0.475081283797998,-0.475081283797998,0.999658440730744,0.00021517379081575027
-0.4749803653549428,-0.4749803653549428,1.0002102693514199,0.00021579902783166316
-0.4748867906766471,-0.4748867906766471,0.9999064809068059,0.00021549120297829831
-0.4747858731292963,-0.4747858731292963,1.0000289338899229,0.00021612875348267364
-0.47469229755733766,-0.47469229755733766,0.9997949538870156,0.0002159251300849855
-0.47459138090616015,-0.47459138090616015,1.0000477887583188,0.00021635134976068075
-0.47449780444014794,-0.47449780444014794,1.0000059456547974,0.00021653553592198394
-0.47439377676699834,-0.47439377676699834,1.0001201685004169,0.00021695816720832483
-0.47429802106356594,-0.47429802106356594,0.9999080104912341,0.00021743750481189244
-0.4741930607119086,-0.4741930607119086,1.0000917479869713,0.00021757766828787054
