time,time,flux,flux_err
-0.4998221845611018,-0.4998221845611018,1.0000201864880423,0.00016939983566188727
-0.49961103020117054,-0.49961103020117054,1.0002261753671349,0.00017729443428174212
-0.49948733088967856,-0.49948733088967856,1.000037388301759,0.0001536912141587089
-0.4992891572008375,-0.4992891572008375,1.0003077251802446,0.0001640163189502583
-0.4990552816430863,-0.4990552816430863,1.0001118568467604,0.00016549872311254877
-0.4987903201195877,-0.4987903201195877,1.000222915983186,0.00016482651851598581
-0.49858309218325303,-0.49858309218325303,0.9998595044791777,0.0001691998750474323
-0.498345966656052,-0.498345966656052,1.000126392465744,0.00015398199620338013
-0.4981897505393135,-0.4981897505393135,0.9999166111256544,0.00015363638859571335
-0.4979915459516633,-0.4979915459516633,1.0001745442217505,0.0001549111389414108
-0.4978213001631957,-0.4978213001631957,0.9999542818277941,0.00015305445032096066
-0.4976632622194302,-0.4976632622194302,1.000182396115731,0.000164574161800796
-0.4974453409042326,-0.4974453409042326,1.0001798694434116,0.0001640973714828304
-0.49726390821597305,-0.49726390821597305,0.9997921127386775,0.00016544556618877274
-0.4971037068120495,-0.4971037068120495,0.999926238056888,0.0001672732713921824
-0.4969085200536938,-0.4969085200536938,1.0001422276013874,0.00015321263445074081
-0.49666225659602786,-0.49666225659602786,1.0003092239567304,0.00015840367249420913
-0.4964613706019009,-0.4964613706019009,0.9999301887006371,0.00015464963506010916
-0.49628052730695343,-0.49628052730695343,0.9999576517854898,0.00015494321610204272
-0.49613771422227726,-0.49613771422227726,0.9997498052586667,0.00016649706932826496
-0.4959638507665659,-0.4959638507665659,0.9999241787235512,0.00016275231751839878
-0.4957978899794398,-0.4957978899794398,1.0002639916449565,0.0001553557331772747
-0.49564360772274085,-0.49564360772274085,0.9999487906206364,0.00016360424878451998
-0.4954966308825533,-0.4954966308825533,0.9999194854201174,0.00016675067309135366
-0.4951852177699038,-0.4951852177699038,0.9999452787252701,0.00015716895508212367
-0.4950669677120459,-0.4950669677120459,1.0001292910109325,0.00015272566284382127
-0.4948944135365309,-0.4948944135365309,0.9999192578223266,0.0001506289576575868
-0.49473552129493326,-0.49473552129493326,1.0003899141277657,0.00018304498259379652
-0.4945428542443551,-0.4945428542443551,1.0000719181994377,0.00015470616948694608
-0.4943861862317135,-0.4943861862317135,0.9998633985964434,0.00015496042731966066
-0.4941752228216501,-0.4941752228216501,0.9999602296784877,0.00016427310787089602
-0.4940255478526524,-0.4940255478526524,1.000046121695372,0.00016353266787108285
-0.4937241718216683,-0.4937241718216683,1.000085642885099,0.00015232858429401098
-0.49354717893002087,-0.49354717893002087,1.0001298239808565,0.0001574025396192204
-0.4933725379378302,-0.4933725379378302,1.0000434651613936,0.00015621999257877628
-0.4932394575276703,-0.4932394575276703,1.0000256757866421,0.00016405136302987745
-0.4931084748874127,-0.4931084748874127,1.0000992595632128,0.0001530518100781727
-0.4928956188952725,-0.4928956188952725,1.0002075234324717,0.00015595543515943008
-0.4926910686437623,-0.4926910686437623,1.0001030074498818,0.00016126202787942624
-0.49252600157560666,-0.49252600157560666,1.000151526959715,0.00015120568067868886
-0.49231903246109143,-0.49231903246109143,1.0001250206562249,0.00016362574016678797
-0.49209168601082637,-0.49209168601082637,0.9999503497785682,0.00015712245391851933
-0.49195580901650826,-0.49195580901650826,1.0000665281906618,0.00015324234477515373
-0.4917597213483532,-0.4917597213483532,1.0000986644279561,0.00017731980374592843
-0.4915670944959857,-0.4915670944959857,1.0000871073098294,0.0001534927939830962
-0.49136218766943784,-0.49136218766943784,0.9999908747941862,0.0001483783097304402
-0.4912073400344525,-0.4912073400344525,0.9998820325297778,0.00015317860484380228
-0.49102961471435264,-0.49102961471435264,1.0002890284568529,0.00015176628571718747
-0.4907679030919098,-0.4907679030919098,1.0000718416164585,0.00016563959905949787
-0.49058089914396985,-0.49058089914396985,1.0000629617410601,0.0001555023176928445
-0.49034352171220236,-0.49034352171220236,0.9998741295396713,0.00016729837255622423
-0.4902091357718746,-0.4902091357718746,0.9998509523640298,0.00016646429200505957
-0.49009258595397115,-0.49009258595397115,0.9999538788052217,0.00015441721635329846
-0.48987000047636686,-0.48987000047636686,1.0000362502504458,0.00014891425686596948
-0.48965100183922916,-0.48965100183922916,1.0000323437880394,0.00015271541311790763
-0.4894431135537161,-0.4894431135537161,0.9998911820529575,0.00016063103952251425
-0.4891818724885525,-0.4891818724885525,1.000109667855823,0.0001680379419965615
-0.48902864595947904,-0.48902864595947904,1.0000939353413476,0.00015561553354335276
-0.4887371082797472,-0.4887371082797472,0.9999879123303824,0.00016612249214176256
-0.4885851054787054,-0.4885851054787054,1.0001074145633853,0.00015373747740193196
-0.48844704193179495,-0.48844704193179495,1.0000459754839621,0.00015029633143987857
-0.4882223907763546,-0.4882223907763546,1.0000380997959364,0.00016259433480901125
-0.48798736433745943,-0.48798736433745943,0.9997932896006455,0.0001524760138999083
-0.48784117931791116,-0.48784117931791116,0.99993748359747,0.00016573532673491573
-0.4876292328699492,-0.4876292328699492,1.0001683842873732,0.00016704584942401482
-0.48746526567192633,-0.48746526567192633,1.000126314047428,0.00015261127811670296
-0.48728417465972595,-0.48728417465972595,1.0002975377192262,0.00016787555266510536
-0.48706541885039767,-0.48706541885039767,1.0000529485062337,0.00015232789981657738
-0.4869111048348714,-0.4869111048348714,0.9997470872687565,0.0001521956674196215
-0.48669093777862144,-0.48669093777862144,1.0000968787795865,0.00016225987594352533
-0.48644466236291917,-0.48644466236291917,0.9998932049427338,0.00015497493685309317
-0.48622403490226135,-0.48622403490226135,0.9998921704505355,0.00017743952587660102
-0.48590122246459944,-0.48590122246459944,1.000142641709052,0.00015485558705364554
-0.48581996447901477,-0.48581996447901477,0.9999872233135602,0.00016371400446230536
-0.4856207013464882,-0.4856207013464882,1.000260469547115,0.00015193768176012515
-0.48549423214135456,-0.48549423214135456,1.000085193376218,0.00015217871256681457
-0.4852586698274536,-0.4852586698274536,0.9998037898036609,0.0001639484822675999
-0.4850110110543028,-0.4850110110543028,1.0000571088692378,0.0001516169774662338
-0.48477089665830136,-0.48477089665830136,0.9999891121017619,0.00018677383503512508
-0.4845523390489689,-0.4845523390489689,0.9997346274214098,0.00015754812581552358
-0.48429460664847285,-0.48429460664847285,1.0000264374621834,0.00015257099547149168
-0.4841398812553962,-0.4841398812553962,0.9998892652570118,0.0001504919295088772
-0.4839936932541605,-0.4839936932541605,1.0001374520836972,0.00016310256957206747
-0.48375751361818403,-0.48375751361818403,1.0001024661244564,0.00016469034311428844
-0.4835901412341627,-0.4835901412341627,1.0002157361519117,0.0001528490938364411
-0.48346474956415475,-0.48346474956415475,1.0000608461264962,0.00015791588793593448
-0.48324532938277115,-0.48324532938277115,1.000212073179964,0.00018455519426906883
-0.483001104813593,-0.483001104813593,1.000062184188555,0.0001545148997928633
-0.4827886654900794,-0.4827886654900794,1.0000274315396636,0.00015370121342034353
-0.48260179902863454,-0.48260179902863454,0.9999811424420029,0.00014961934833106268
-0.48246128029422836,-0.48246128029422836,1.0000460551280819,0.00016679839352487204
-0.48232965744173273,-0.48232965744173273,1.000156070623254,0.0001622012741490468
-0.48211645548726667,-0.48211645548726667,1.0003170694865653,0.00016618711832267716
-0.4819749466041685,-0.4819749466041685,1.0001347888401735,0.00015462758522676853
-0.4818255611600762,-0.4818255611600762,1.0002091157956203,0.00017624930436445672
-0.4815553051383176,-0.4815553051383176,0.9999063830265996,0.00016229107794166894
-0.48136090657062597,-0.48136090657062597,0.9999872647345528,0.00015619485713924046
-0.48117563673586117,-0.48117563673586117,1.0000763019465675,0.0001514563243745878
-0.48092466920716104,-0.48092466920716104,1.0001029317006467,0.0001630985532103248
-0.48078618690633446,-0.48078618690633446,0.9999864287546864,0.000176786064283663
-0.48060143405964484,-0.48060143405964484,1.0000617720051923,0.0001519780936000136
-0.48039156792874566,-0.48039156792874566,1.0000167094673498,0.00015703108302823614
-0.4802165480847179,-0.4802165480847179,1.0003235247616322,0.00015290488237252944
-0.4799266681890003,-0.4799266681890003,0.9998845220951399,0.0001561387540980628
-0.47975434391119054,-0.47975434391119054,0.999903560386306,0.0001564198371727935
-0.47956278691417537,-0.47956278691417537,0.99979405241653,0.00016402179804637059
-0.4792853663311689,-0.4792853663311689,0.999880432125161,0.00018514846530479098
-0.47905093068620774,-0.47905093068620774,0.9999951148491852,0.00015467022437140547
-0.47889903066898115,-0.47889903066898115,1.0000695202288368,0.00016637984448304157
-0.47873509640849077,-0.47873509640849077,0.9998639031098226,0.00016109646881949189
-0.4786661360289145,-0.4786661360289145,1.0001109600219915,0.0001512823379419121
-0.4785236863892351,-0.4785236863892351,0.9998329097594153,0.00015046668454694642
-0.4782623591388983,-0.4782623591388983,1.0001250808628483,0.0001571313155730964
-0.47805478634618337,-0.47805478634618337,1.0002531734616749,0.00015267620228794583
-0.47782255500278553,-0.47782255500278553,1.0000790478642805,0.00018304614216487936
-0.4776720050809672,-0.4776720050809672,1.0001463836204247,0.0001637523628685157
-0.4774241511971923,-0.4774241511971923,0.9998805444662502,0.00015380861004601245
-0.47718190608356964,-0.47718190608356964,1.0001676338426537,0.00015504511441559522
-0.47708905962063,-0.47708905962063,0.9999154281858338,0.00015129696011812412
-0.47692077724277626,-0.47692077724277626,1.0000434706793366,0.00016516622327565823
-0.47667980556434486,-0.47667980556434486,1.0000276285422651,0.00015499828291751894
-0.47639178896642986,-0.47639178896642986,1.0001035808933953,0.00017314101816935033
-0.476215693254926,-0.476215693254926,0.9999505570260954,0.00016964229690178965
-0.47600695701985385,-0.47600695701985385,1.0001617873873816,0.00015253098398833494
-0.4758872927865013,-0.4758872927865013,1.0002597401410527,0.00015570392289731834
-0.4756512505970022,-0.4756512505970022,1.0000501290693242,0.00015371714440177756
-0.4755204077140661,-0.4755204077140661,1.000095734418409,0.00015331610222423447
-0.47537271706023604,-0.47537271706023604,0.9997615267088393,0.00015143380632572721
-0.47520778445759787,-0.47520778445759787,1.0001763775729875,0.00017498332664178334
-0.47497268090810396,-0.47497268090810396,1.0000688748049018,0.00015514788459835264
-0.47478098011706604,-0.47478098011706604,1.0002603418878795,0.00017706899473309695
-0.47462391728331565,-0.47462391728331565,1.00001360084264,0.00015632624920960023
-0.47433188453505865,-0.47433188453505865,1.0000802165603737,0.00015713136620544178
-0.47417565536379697,-0.47417565536379697,0.9998782505758779,0.00015323911633509447
-0.47390266287548,-0.47390266287548,0.9999380621160523,0.0001571648140887973
-0.4737556435517035,-0.4737556435517035,0.9998042377427954,0.00016432001158197263
-0.47362487040445556,-0.47362487040445556,1.0001722634142447,0.00016015379559371716
-0.4734646509663435,-0.4734646509663435,0.9999337254475762,0.00015529817448673282
-0.4732648600307584,-0.4732648600307584,0.9999186679407062,0.00016276399469255848
-0.47308881120115986,-0.47308881120115986,0.9996095506146923,0.00016298424602642254
-0.4727768693075632,-0.4727768693075632,1.0000499506069251,0.00015679742393855301
-0.4726547840247804,-0.4726547840247804,0.9999315146647565,0.0001526894386099549
-0.4725022744874877,-0.4725022744874877,0.9998956433282403,0.00015134054529696004
-0.4722871280406252,-0.4722871280406252,1.0000106321911524,0.000166184659166511
-0.47210030110218215,-0.47210030110218215,0.9999504368117952,0.00015241726633026534
-0.4719243463172461,-0.4719243463172461,1.000031324718181,0.00015596605381394235
-0.4717294581612805,-0.4717294581612805,0.9999801034385726,0.00016098685891333028
-0.47158678492851325,-0.47158678492851325,1.000092275808256,0.00016251019926126907
-0.4713204991676321,-0.4713204991676321,1.000052668347934,0.000152320233547492
-0.4711207686654234,-0.4711207686654234,0.9997925026406336,0.00015438041750432638
-0.47093267034579184,-0.47093267034579184,0.9996830534402624,0.00015473800318526268
-0.47081700070411897,-0.47081700070411897,0.9999053041895285,0.0001756316915754257
-0.47068569071780075,-0.47068569071780075,1.0000573205675563,0.00015364100633611942
-0.4704850054833514,-0.4704850054833514,0.9998661001147781,0.00015599411550483599
-0.47027439043085906,-0.47027439043085906,0.9999614069117909,0.00016139614431489539
-0.47008342447807083,-0.47008342447807083,1.0001229726789305,0.00015202543874593641
-0.469850449632213,-0.469850449632213,0.9999566952544077,0.00016441502089437244
-0.4696497221601021,-0.4696497221601021,1.000004923921662,0.00015501536020277667
-0.46947034870827337,-0.46947034870827337,0.9998710667039136,0.00015681823423441908
-0.4693163407231623,-0.4693163407231623,1.0000176712838138,0.00017680432509486202
-0.4690749607449106,-0.4690749607449106,1.0000530158567817,0.00015238304232151114
-0.4688549526486895,-0.4688549526486895,1.0002514237431843,0.00015195362459024625
-0.46871648072992683,-0.46871648072992683,0.9998746935842743,0.0001508954817493739
-0.46857658764129156,-0.46857658764129156,1.0002173076138894,0.00016377738449365793
-0.4683222698586178,-0.4683222698586178,1.000173909287118,0.00015604373748002512
-0.4681283924757736,-0.4681283924757736,0.9999670235628819,0.00015510809702692072
-0.4678805541450856,-0.4678805541450856,0.9999379683360458,0.00016740597326874771
-0.46778593864291906,-0.46778593864291906,0.999942847931743,0.00016497066342102947
-0.467623022760381,-0.467623022760381,0.9999499579178055,0.00014954932358015918
-0.46739622426757704,-0.46739622426757704,1.0000125057852158,0.00015016951873522718
-0.46721151291712887,-0.46721151291712887,1.0001976162032846,0.0001513648985756297
-0.4669245219134609,-0.4669245219134609,1.000114398169193,0.00016671975087169966
-0.4667237940637278,-0.4667237940637278,0.9998806843337092,0.0001627148069096847
-0.46650056096696063,-0.46650056096696063,0.999712947766821,0.0001582229346325554
-0.4662589868836221,-0.4662589868836221,0.9998176670005151,0.00016464318559423973
-0.46613780233456054,-0.46613780233456054,1.0000733059445737,0.0001533310922037954
-0.46597923336084934,-0.46597923336084934,1.0001381572938168,0.00016205801700178057
-0.46576679177451297,-0.46576679177451297,0.9999446697629761,0.00014999350570034283
-0.46555923709674973,-0.46555923709674973,0.9997762634240985,0.00015033845746092518
-0.465431486844318,-0.465431486844318,0.9999617074851652,0.0001658188786831181
-0.46524353141867325,-0.46524353141867325,1.0001155178221635,0.0001686015205127972
-0.4650768900537514,-0.4650768900537514,1.0000073092188106,0.00015305757550452057
-0.46486399696150327,-0.46486399696150327,1.0001993144767285,0.00016771731203491874
-0.4646519415844523,-0.4646519415844523,0.9995116923769036,0.00015260756557421235
-0.4645133878788329,-0.4645133878788329,0.999878074307944,0.00015221138379062149
-0.46427475567907095,-0.46427475567907095,1.0000104697173788,0.0001626567434332891
-0.4640862547195866,-0.4640862547195866,1.0000339189329341,0.0001507990328111624
-0.4638994099244883,-0.4638994099244883,0.9999990030309138,0.0001671700708879604
-0.46364210827014174,-0.46364210827014174,1.0000903260572822,0.00016765033375552597
-0.46347565900578047,-0.46347565900578047,0.9998200829764821,0.00015559977994642244
-0.46332952332522837,-0.46332952332522837,1.000118620619626,0.00016252320766100195
-0.4631680847007374,-0.4631680847007374,1.0001796814352888,0.00015377103233206292
-0.46302226961779525,-0.46302226961779525,0.9999297765833518,0.0001529612272272335
-0.46282719376904424,-0.46282719376904424,0.9999204981236293,0.00016308449528087032
-0.46259638764458944,-0.46259638764458944,1.0000523030781503,0.0001515889612520495
-0.4623115599533776,-0.4623115599533776,1.000128875905567,0.00017767564748036923
-0.46209349963246493,-0.46209349963246493,1.0004205904005452,0.00015794684707921884
-0.4618879233588814,-0.4618879233588814,1.000191489570978,0.00015258693297553268
-0.46172885515770756,-0.46172885515770756,0.9999275906697462,0.00015394697581848048
-0.46158405088135623,-0.46158405088135623,1.0001122210397013,0.00016295301339977716
-0.4613454218779225,-0.4613454218779225,1.000073125608705,0.00016429442285857847
-0.46119417488735054,-0.46119417488735054,1.0000293007243193,0.00015260305754394732
-0.4610453853754734,-0.4610453853754734,1.0001411393750825,0.00015787718304716773
-0.46086492986796657,-0.46086492986796657,1.0000443359187603,0.00018289941408159037
-0.46063546147270246,-0.46063546147270246,1.0002284091660003,0.00015692453195340512
-0.46043433744998763,-0.46043433744998763,1.0000504441444076,0.0001522506928597395
-0.46024930654530183,-0.46024930654530183,1.0001543050743364,0.0001520708078368743
-0.4601132594609226,-0.4601132594609226,0.9999115202108243,0.00016410180055754101
-0.45993709155663964,-0.45993709155663964,1.0001301057278933,0.0001520706069809452
-0.45970460008174996,-0.45970460008174996,1.0000289370473432,0.00016383216935723298
-0.4595867762727721,-0.4595867762727721,1.0000639654752,0.00015624633192492618
-0.45949921581704983,-0.45949921581704983,1.0001578820380939,0.0001657716008791032
-0.45917184049467324,-0.45917184049467324,1.0000566539083378,0.00016439331084310994
-0.45894783248149906,-0.45894783248149906,1.000249095407418,0.0001561450107380405
-0.45876793999632354,-0.45876793999632354,1.0000022846680223,0.0001530853150252932
-0.4585650184242695,-0.4585650184242695,0.999885577475025,0.00016093917329454728
-0.45842909602288273,-0.45842909602288273,1.0000867382635341,0.00016582226878456604
-0.4581995954635204,-0.4581995954635204,0.9999458723899479,0.00015139183581810997
-0.45799007728128344,-0.45799007728128344,1.0002615951242493,0.00015719137497909828
-0.45783930636098374,-0.45783930636098374,1.000114444200533,0.00015308243265507008
-0.4576107319742732,-0.4576107319742732,1.0001103969660257,0.00016194392442110496
-0.4574270484292356,-0.4574270484292356,0.9999770293006959,0.0001569581084637129
-0.4572838387670345,-0.4572838387670345,1.000119402793174,0.00015482042519864687
-0.45703093729171085,-0.45703093729171085,0.9998519802193204,0.00016317562455125587
-0.4568220361150452,-0.4568220361150452,0.9997976511078861,0.0001856213791140459
-0.4566099053605285,-0.4566099053605285,0.9999882542507363,0.00015354587167414697
-0.4564686452933529,-0.4564686452933529,1.0001398274305369,0.0001550784561744119
-0.45634254691030945,-0.45634254691030945,1.0001318500394816,0.0001722138895805683
-0.45627182954121964,-0.45627182954121964,1.0000941143008357,0.00015317312520799097
-0.45604093662914236,-0.45604093662914236,0.9997658978048468,0.00015391874244545075
-0.45578067109672704,-0.45578067109672704,0.9998430218019788,0.0001548271706148306
-0.455540785480116,-0.455540785480116,1.0000867681282615,0.00016539850956650664
-0.4553355527816166,-0.4553355527816166,1.0002416546987685,0.0001802932083535468
-0.45517762311137633,-0.45517762311137633,0.9998995781365554,0.00016680399345123556
-0.45492534032382537,-0.45492534032382537,1.0002344418492102,0.0001704119979859898
-0.45474004651841826,-0.45474004651841826,0.9998296541378153,0.0001540482975385513
-0.45463756451645165,-0.45463756451645165,0.9998808681890189,0.0001522486090354569
-0.45448831006651746,-0.45448831006651746,1.0002089466429585,0.0001528220027146346
-0.45426993002765814,-0.45426993002765814,0.9998402427883738,0.0001648488730349895
-0.4539680568865151,-0.4539680568865151,0.9997942838303159,0.00017228667036587705
-0.4538433242283645,-0.4538433242283645,0.9998644523886128,0.00017352275969360111
-0.4536397238378413,-0.4536397238378413,1.0002398496241656,0.00015355689039696092
