time,time,flux,flux_err
-0.49997851502970053,-0.49997851502970053,0.9999798072141589,0.0024106301235689446
-0.49989842062980944,-0.49989842062980944,0.9992214526823301,0.0023658553355986943
-0.49973137790463323,-0.49973137790463323,0.9993154280418312,0.002970848198599315
-0.49962669106510776,-0.49962669106510776,0.9992051029766955,0.0030000156741822885
-0.4994870623195311,-0.4994870623195311,0.9995027703668427,0.002692727255837591
-0.49937386688689,-0.49937386688689,0.9966709066709634,0.002449468409167006
-0.4993060280598002,-0.4993060280598002,0.9982154935924304,0.0022005154191736312
-0.4992674515087856,-0.4992674515087856,0.9986140223411315,0.001846095738774241
-0.49918178725492907,-0.49918178725492907,0.9984548596302367,0.0019795830406236932
-0.49901183049951214,-0.49901183049951214,1.0008880290332534,0.0030391836429512543
-0.49876310180843575,-0.49876310180843575,0.9986997279094314,0.002850462297191022
-0.4986650198174175,-0.4986650198174175,0.9984750861748551,0.0022262956783593445
-0.4985963420098415,-0.4985963420098415,0.9966453186529399,0.002342204667448199
-0.49846656293520936,-0.49846656293520936,0.9977736968826083,0.0026922656796904477
-0.4983634145464748,-0.4983634145464748,0.9987785252973149,0.0027414638801452115
-0.4982524160601315,-0.4982524160601315,0.9984797670919328,0.00315376887163519
-0.4981334994561621,-0.4981334994561621,1.0007846433811343,0.0025368076593345673
-0.49802760081074665,-0.49802760081074665,0.9990382852097867,0.0023488494952981416
-0.497974818770308,-0.497974818770308,1.0000671145026616,0.0022692090295914125
-0.4978924591370742,-0.4978924591370742,1.0009695698612562,0.0022663868310022353
-0.49783256790833547,-0.49783256790833547,0.9988007749971837,0.002541829055019635
-0.49775044789130335,-0.49775044789130335,0.9993738118193086,0.00284043576641572
-0.49765571835596345,-0.49765571835596345,1.0002465670715508,0.0028151740775262486
-0.49756783828197515,-0.49756783828197515,0.9986884303285717,0.002001035037464309
-0.49745479798293674,-0.49745479798293674,1.0017296428890068,0.002197422570349764
-0.49735248916986163,-0.49735248916986163,0.9994095264958516,0.0021784704963592823
-0.4972714974966948,-0.4972714974966948,0.9994341984940256,0.0021275428441241855
-0.49715621934155935,-0.49715621934155935,0.9988547687838543,0.0025742389970919034
-0.4970423339080298,-0.4970423339080298,0.9995523472454149,0.0025834794784452076
-0.4968960749523831,-0.4968960749523831,0.9973012830395925,0.0025503736510219454
-0.49673562016396317,-0.49673562016396317,0.9975957355035764,0.0023472453759443715
-0.4966129560722038,-0.4966129560722038,0.9996107377249357,0.002766394067633448
-0.49649199517443776,-0.49649199517443776,1.001139908852515,0.002364981195690296
-0.4964170310384361,-0.4964170310384361,1.002737400126908,0.0020051545916058636
-0.49634666868369093,-0.49634666868369093,0.9985769891608898,0.0020752664560907443
-0.4962776765649323,-0.4962776765649323,0.9988593844027553,0.002885922828051166
-0.49613819812511795,-0.49613819812511795,0.9975959694520748,0.002194581812479707
-0.49602990093262633,-0.49602990093262633,0.999454569014655,0.0020724702854829514
-0.4958629164335434,-0.4958629164335434,1.000913734599482,0.0027472558179833712
-0.495717582256475,-0.495717582256475,0.9978808639676021,0.0024403970672923375
-0.4955411360147991,-0.4955411360147991,0.997981883403534,0.0021080558121354858
-0.4954440963163506,-0.4954440963163506,1.0015751134726336,0.002138615724659986
-0.4953572516562417,-0.4953572516562417,1.0015969589068863,0.0021581328192875676
-0.49508072121971053,-0.49508072121971053,1.0011163125988989,0.0023866665894991305
-0.49499667042691725,-0.49499667042691725,0.9993476011542741,0.002221551776301747
-0.49489347604103384,-0.49489347604103384,0.9980150505733623,0.0021953760068249076
-0.49471976774802895,-0.49471976774802895,1.0000089653280702,0.0018993292731154117
-0.4944916771535645,-0.4944916771535645,1.0004487098351382,0.0019953138041601728
-0.494352448360587,-0.494352448360587,0.9993166380087868,0.001979621173222056
-0.4942906997472164,-0.4942906997472164,1.0030553433382736,0.0019238631068300178
-0.49418695201165974,-0.49418695201165974,0.9996479813465132,0.0020602293894107417
-0.49400261099508497,-0.49400261099508497,1.000232197409232,0.0020277661113172656
-0.4939419588932651,-0.4939419588932651,1.0002677422983177,0.0021178385435205232
-0.4938211006403435,-0.4938211006403435,0.9990214951107547,0.001985394602484879
-0.49367671977961436,-0.49367671977961436,0.999102473258638,0.0018720183061455304
-0.49358432794397233,-0.49358432794397233,1.0020787179187212,0.002503389197030546
-0.49342327551275955,-0.49342327551275955,1.0009238654732786,0.002598116573517643
-0.49332767905143554,-0.49332767905143554,1.0016733419892625,0.0027678244802769366
-0.49323023191827814,-0.49323023191827814,1.0003430788725103,0.0025708166886384363
-0.4931442700937623,-0.4931442700937623,1.0001485985605796,0.0021273285681250647
-0.49307721597288034,-0.49307721597288034,1.0009170726841459,0.002563141019951161
-0.4929733514392865,-0.4929733514392865,1.0009681687603273,0.0020608636623644207
-0.49285230485984355,-0.49285230485984355,0.9979805397565554,0.002186084433997772
-0.4925751325950841,-0.4925751325950841,1.0004436072196365,0.0021537060218590944
-0.4924975939531578,-0.4924975939531578,1.001841879977909,0.003273092164199797
-0.49226889097189996,-0.49226889097189996,1.0010864397325052,0.002611095040304321
-0.49214351788978095,-0.49214351788978095,0.9994722694580739,0.0023175590767195646
-0.4920654499248485,-0.4920654499248485,1.0025650078548118,0.0020769060148456775
-0.49198758340935456,-0.49198758340935456,0.9975671732212701,0.0019907830008563565
-0.49189648118335755,-0.49189648118335755,1.0017963826198142,0.0027384551830952866
-0.4917793354499736,-0.4917793354499736,1.00030633620657,0.002842895833119442
-0.4916897769042407,-0.4916897769042407,1.0032278168354876,0.002797344055726322
-0.4915853793179849,-0.4915853793179849,0.9975490850597192,0.002857198145678902
-0.4914827907079598,-0.4914827907079598,0.9998769226004441,0.0026801296655247974
-0.49140293587552153,-0.49140293587552153,0.9992093992400498,0.0019645361177319694
-0.4913064225926064,-0.4913064225926064,0.9984253084902891,0.0022701932556076837
-0.4912006898826803,-0.4912006898826803,0.9985800205144473,0.002356008982897513
-0.49097108630812725,-0.49097108630812725,0.9989714331457428,0.0029985676012818435
-0.4908265439938987,-0.4908265439938987,0.9994909943259852,0.0024356707545902445
-0.49073237093834904,-0.49073237093834904,1.00065590489087,0.002511320346911366
-0.49067139434919227,-0.49067139434919227,0.9982542590194073,0.00502984582896291
-0.4905524662215612,-0.4905524662215612,0.9976114104119655,0.003269205135565467
-0.4904604889496113,-0.4904604889496113,1.0011909628484978,0.00231377397068154
-0.4903462225352996,-0.4903462225352996,0.9982026159693849,0.003143919807211424
-0.49024276105774334,-0.49024276105774334,0.9989142220023609,0.002302075265210004
-0.49015904253028564,-0.49015904253028564,0.9973903992038112,0.002574277395827773
-0.4900735285074916,-0.4900735285074916,0.9987313054600392,0.002459655682001952
-0.49000002248358215,-0.49000002248358215,1.0031037332497383,0.001859311164312968
-0.4899479856336256,-0.4899479856336256,1.001834562698813,0.002552031473505433
-0.48983563000219876,-0.48983563000219876,1.0004478083455148,0.00248746620333959
-0.4897650432656519,-0.4897650432656519,0.9991321866422075,0.0029769296708817934
-0.48968017191218677,-0.48968017191218677,1.0016544730500332,0.0020372842968164836
-0.48954619887226725,-0.48954619887226725,1.000396335447097,0.0021655583185329116
-0.4893989587639226,-0.4893989587639226,0.9999953556199364,0.002289790320734072
-0.4893464113745722,-0.4893464113745722,0.999593804365626,0.0023361871678844763
-0.48925251298060174,-0.48925251298060174,1.000561040909322,0.002604050235618729
-0.4891138673498062,-0.4891138673498062,1.000939033965493,0.0025587740945412535
-0.48897018275165466,-0.48897018275165466,1.0002109922301743,0.0023261992406608347
-0.48883714729017813,-0.48883714729017813,0.9992132196783133,0.0022047213552994506
-0.48878634803259047,-0.48878634803259047,1.001049633471082,0.0027585779034903007
-0.48870247055019717,-0.48870247055019717,0.9998411205706861,0.002885449095645815
-0.4886234558580327,-0.4886234558580327,0.9992265974012545,0.00228396911638817
-0.4885378976978245,-0.4885378976978245,0.9991193747911765,0.0020914341562494
-0.4884407620469574,-0.4884407620469574,0.9986296249543258,0.0019685798745534815
-0.4883153709306498,-0.4883153709306498,1.0007128886216201,0.0028328479281373637
-0.4881208469829289,-0.4881208469829289,0.9973330198341384,0.0017981918519565313
-0.4880363462885725,-0.4880363462885725,0.9986861973362628,0.00233440150043014
-0.48790045737696347,-0.48790045737696347,1.000118647738345,0.0030688157704959586
-0.48770192687370584,-0.48770192687370584,1.001159745594681,0.0020434245916290516
-0.48759387225145473,-0.48759387225145473,0.9988304327700869,0.001854177137802382
-0.48750594124867347,-0.48750594124867347,1.000267840257342,0.002355158071146346
-0.487371388025349,-0.487371388025349,1.0008742767669765,0.002121000242243041
-0.48716315922065406,-0.48716315922065406,0.9990310210111527,0.0025394971967615063
-0.48705200212134514,-0.48705200212134514,0.9990410706438801,0.0022545384070250364
-0.48693772642145633,-0.48693772642145633,1.0003566429270179,0.0018937454484248641
-0.4867235239638831,-0.4867235239638831,1.0007813736165496,0.0022234290894054703
-0.48646389524510597,-0.48646389524510597,0.9995411187971237,0.0021554421405324533
-0.48637811599182895,-0.48637811599182895,0.9997037277680858,0.002261763471734078
-0.4863194243691396,-0.4863194243691396,0.9990110342361103,0.0018233982077330523
-0.48619649894535544,-0.48619649894535544,1.000721526158981,0.002554106406662996
-0.4860657372206333,-0.4860657372206333,0.9986830791443531,0.0019727598262428837
-0.4859290379055892,-0.4859290379055892,0.9999305566792476,0.002093807005814209
-0.4857782858976861,-0.4857782858976861,0.9990050219549833,0.002149386341987453
-0.4855863437114749,-0.4855863437114749,0.999517236740588,0.0025749501605556286
-0.4854421498879674,-0.4854421498879674,0.9993255630512978,0.002743291525296964
-0.48534646665648323,-0.48534646665648323,1.001249400017241,0.002429548491686444
-0.4852437739202287,-0.4852437739202287,1.0011584522687393,0.0026635679860544724
-0.48515197842934865,-0.48515197842934865,1.0016558962709379,0.002123892960698873
-0.4850134914900991,-0.4850134914900991,1.0008113280075217,0.0021898209513788675
-0.48485903699765914,-0.48485903699765914,0.9999680702753061,0.0022940424062489976
-0.48463587903679584,-0.48463587903679584,0.9994890326212825,0.0026248689402965223
-0.4845061973348493,-0.4845061973348493,0.9947010377102435,0.0026664976639840625
-0.48434963707550194,-0.48434963707550194,0.9981529934495834,0.002612229354863138
-0.48426212349149866,-0.48426212349149866,0.9971028303857506,0.0022467714699855885
-0.4841343844047515,-0.4841343844047515,1.0007151368661902,0.0022546946886664926
-0.48403855771466625,-0.48403855771466625,0.9956273933439034,0.002618006110878407
-0.48399135313229635,-0.48399135313229635,1.0017197546390921,0.002275549635185435
-0.4839194506901549,-0.4839194506901549,1.0017598806809709,0.002684661975131803
-0.4838109200063627,-0.4838109200063627,1.0009046433163697,0.002223023232990823
-0.48370528564119014,-0.48370528564119014,1.0027262720610461,0.002925939675752079
-0.4835994587789173,-0.4835994587789173,0.9980189739993941,0.0026250912657826515
-0.4834726334476727,-0.4834726334476727,0.9998912636146005,0.002296474445701569
-0.4833603946259245,-0.4833603946259245,0.9980783502731848,0.0019274469027369362
-0.4832523917852086,-0.4832523917852086,1.0011116637533166,0.0023566169429197295
-0.4829951691484894,-0.4829951691484894,0.9967600296011618,0.0029396594042858147
-0.48289858868374724,-0.48289858868374724,0.9977858983735824,0.00252120477358203
-0.48281233522866385,-0.48281233522866385,0.9980019473583773,0.0024787251372764972
-0.4827282989572268,-0.4827282989572268,0.9957448506453621,0.004719069058266594
-0.482616192457499,-0.482616192457499,0.9997980219353586,0.0026636465034751105
-0.48255595238297244,-0.48255595238297244,0.9999386724286751,0.002316487546029869
-0.48243294808489734,-0.48243294808489734,0.9997126616394189,0.003315400417614556
-0.4823459291204927,-0.4823459291204927,0.9988944155946694,0.0019511807697891342
-0.48230346821947023,-0.48230346821947023,0.9997138993727488,0.0025931807817571872
-0.48220864398754204,-0.48220864398754204,0.9983809181409002,0.0025153045565779204
-0.4821224102459382,-0.4821224102459382,1.0000900024645167,0.0021354693814893493
-0.48205774404486873,-0.48205774404486873,0.9995061729922974,0.0024863435519931008
-0.48198327946447533,-0.48198327946447533,0.9996752082157861,0.0025777176979348473
-0.48189952171378536,-0.48189952171378536,0.9987119439521388,0.0026975238071352227
-0.4818003815962584,-0.4818003815962584,0.9990516360050503,0.002611649562443514
-0.4816823949891841,-0.4816823949891841,1.0003174806587927,0.0022111586790781127
-0.48153131169819974,-0.48153131169819974,1.0000681415774098,0.002475747561092992
-0.48142067284934453,-0.48142067284934453,0.9993658130501588,0.002445451154480645
-0.4813111124181887,-0.4813111124181887,0.9980231246188831,0.00307500620212718
-0.48117628738109486,-0.48117628738109486,1.0027445650165816,0.0019289385539781102
-0.48100410795304926,-0.48100410795304926,0.9990759486762535,0.002206615022653894
-0.48090907538571626,-0.48090907538571626,1.0010792728340046,0.0026220927778210544
-0.48087012030009646,-0.48087012030009646,0.999042553980653,0.0019736406080719934
-0.48081472256453706,-0.48081472256453706,0.9987893660389318,0.0026624154551800967
-0.48074608643510147,-0.48074608643510147,0.998173545422808,0.002240825995617992
-0.4806844948325306,-0.4806844948325306,0.9975122548056874,0.0021938353997897997
-0.48059868915588594,-0.48059868915588594,1.0017517518390764,0.0019465331090844564
-0.48048671769938667,-0.48048671769938667,1.0022318758910636,0.002723685704967207
-0.48042301001987653,-0.48042301001987653,1.000777602227176,0.002436976381603436
-0.4802384559472557,-0.4802384559472557,1.0032652121173562,0.00217663621506981
-0.4801379277705564,-0.4801379277705564,0.9998395047653442,0.002093517227695729
-0.4800178495119326,-0.4800178495119326,1.0003531085480268,0.003194041418022078
-0.4798686463735066,-0.4798686463735066,1.0006259429815125,0.0020067116800438906
-0.47973645104793833,-0.47973645104793833,0.9994495650345211,0.0020325314437115204
-0.4796439370154985,-0.4796439370154985,0.9997663826250551,0.002014110629836412
-0.47953825264266925,-0.47953825264266925,0.998135607309765,0.002347446168962441
-0.47935400684946217,-0.47935400684946217,1.00024444794258,0.0019189482847197605
-0.4792442294332432,-0.4792442294332432,1.0007118724200443,0.002454471673308614
-0.47912424407113574,-0.47912424407113574,1.001764943381939,0.0022525767719429406
-0.47899171563476556,-0.47899171563476556,0.999860404031554,0.0018288056179283942
-0.4787692536745453,-0.4787692536745453,0.9997519144653786,0.002207550972273137
-0.47851286759396316,-0.47851286759396316,1.003504917063393,0.0023831613467184785
-0.47841477294714424,-0.47841477294714424,0.9997235224186032,0.002014409508704045
-0.4783005369448802,-0.4783005369448802,1.0010548439675007,0.00180165843501634
-0.47814776886079924,-0.47814776886079924,1.0015086436789988,0.0021393580511007712
-0.4779979861938045,-0.4779979861938045,1.00166219536109,0.0017561466075051934
-0.47793943892611424,-0.47793943892611424,0.9985908401199989,0.001970900465276395
-0.4778496092607384,-0.4778496092607384,1.0002537195980419,0.0024169528709882537
-0.47759863078827036,-0.47759863078827036,0.9990609491046205,0.0021839347055430053
-0.477516503118386,-0.477516503118386,0.9995764221425031,0.002859459765218026
-0.47738308028056053,-0.47738308028056053,0.9989336372503876,0.0029231426314640955
-0.47726151528913763,-0.47726151528913763,1.0024511472402882,0.0019467886333887259
-0.4771505372831598,-0.4771505372831598,0.999591285389069,0.0018561457070274475
-0.47699974093702624,-0.47699974093702624,0.9967849775016081,0.002274594976035808
-0.47678985832462784,-0.47678985832462784,0.9998463318974069,0.0029056649544866985
-0.47661841459776044,-0.47661841459776044,1.0004387616351438,0.0021822305576083734
-0.4764697557882755,-0.4764697557882755,0.9999599650981097,0.0035308283505092993
-0.4763829383999109,-0.4763829383999109,0.9991248304068744,0.0020070950598800917
-0.4762666313603404,-0.4762666313603404,0.998047368215178,0.0022723651198631187
-0.4761577202021726,-0.4761577202021726,0.9998321307542672,0.0025099243089389137
-0.4760860179303563,-0.4760860179303563,1.000149777345952,0.002457922249285956
-0.47600276121520435,-0.47600276121520435,1.0000542287393845,0.0026550579938319687
-0.47592484997003337,-0.47592484997003337,0.9999541687054222,0.0021866707534294308
-0.4758035843537073,-0.4758035843537073,0.9980849304174182,0.0025610535152090852
-0.475736166095885,-0.475736166095885,0.9997606395377122,0.002346681071482281
-0.47559405267966215,-0.47559405267966215,1.0009378039628274,0.0023017326765454498
-0.47544955904595554,-0.47544955904595554,0.9993874748182396,0.002487468344576993
-0.4753085964897764,-0.4753085964897764,0.9983110656429292,0.0023863866034456492
-0.4750608269139775,-0.4750608269139775,1.0011716512603361,0.0028937547962547454
-0.4749738740923931,-0.4749738740923931,0.9989312165415833,0.002621983922298869
-0.47486948061705336,-0.47486948061705336,1.0001120041468166,0.0030698255806072216
-0.4747610556689324,-0.4747610556689324,1.0027261903463618,0.00357142093578459
-0.47469603256759,-0.47469603256759,1.0007366873056074,0.003123288370803673
-0.4746422094540321,-0.4746422094540321,0.9979342403333054,0.0027317819078996855
-0.4745350248602335,-0.4745350248602335,1.0017527117008307,0.0027744668946943
-0.4744291561990394,-0.4744291561990394,1.000571125239028,0.002533611806230309
-0.4743670258336351,-0.4743670258336351,1.000209267419394,0.0017115552300404908
-0.4743082171829883,-0.4743082171829883,0.9997745128512113,0.0026089273456413116
-0.4742262106272392,-0.4742262106272392,0.9994418607892765,0.001895242793055992
-0.4741269582300447,-0.4741269582300447,1.0005865175295299,0.0031335589604817604
-0.474041886163468,-0.474041886163468,0.9999404126684353,0.0026674278294342166
-0.47394802249327767,-0.47394802249327767,1.0000401381666126,0.0023867769192650237
-0.4738690285128541,-0.4738690285128541,1.0008018906141154,0.0022226630317694336
-0.47374982037290464,-0.47374982037290464,1.0024968663857026,0.0023237400760773275
-0.4736008700056118,-0.4736008700056118,0.9999461717621158,0.002362031314388992
-0.4734852505484014,-0.4734852505484014,0.9987354966719328,0.003030880016257088
-0.47334573714324507,-0.47334573714324507,1.0005722924340728,0.0029374558263019013
-0.4732014171575429,-0.4732014171575429,0.9984649721576568,0.001934675872905771
-0.4730789881752571,-0.4730789881752571,0.9996576913025029,0.0024401220969268245
-0.47297773816681,-0.47297773816681,0.9989564809619296,0.002473419907863221
-0.47291084205935474,-0.47291084205935474,1.0003637367386164,0.002901803242598805
-0.4728509309119545,-0.4728509309119545,1.001067083246174,0.001911002194298191
-0.4727789063734235,-0.4727789063734235,0.9993850945380902,0.002362943408520532
-0.47274076276808047,-0.47274076276808047,1.0005675059177446,0.0017263363935807491
-0.47265684861631596,-0.47265684861631596,0.9971857130296444,0.002556246784174975
-0.472581942177203,-0.472581942177203,0.9997427860225987,0.0026766174799474885
-0.4724869258934632,-0.4724869258934632,1.00002510529968,0.0018884784442141824
-0.47235891121526946,-0.47235891121526946,0.9997220005174011,0.0022172690844575616
-0.4722499691662961,-0.4722499691662961,0.9994323702697356,0.0022805748322666684
-0.4721389521146193,-0.4721389521146193,1.0009081938091682,0.0028151367740090884
-0.4720318051869981,-0.4720318051869981,0.9994523177342183,0.0024030389421296487
-0.47187968607031505,-0.47187968607031505,1.0004200973937,0.002169148735834074
