time,time,flux,flux_err
-0.4992002945130783,-0.4992002945130783,1.0000707588912956,9.082750387903843e-05
-0.49701176651433343,-0.49701176651433343,1.0001675941409014,8.277317134458938e-05
-0.4957599597913941,-0.4957599597913941,0.9999783614759329,8.284983046209313e-05
-0.4941186646570713,-0.4941186646570713,1.0001246288445724,8.893610559214906e-05
-0.49256678696801826,-0.49256678696801826,1.00012465493686,8.339388258725994e-05
-0.4913764516393712,-0.4913764516393712,0.9999893367339379,0.00010278264927873629
-0.48952738264742945,-0.48952738264742945,0.9999834324908405,8.28448048750266e-05
-0.48753456354424995,-0.48753456354424995,1.0000015733286531,8.295305857463915e-05
-0.4860784032371157,-0.4860784032371157,1.0001162488261606,8.276608234723454e-05
-0.484710344339328,-0.484710344339328,0.9999886965996122,8.621706140504566e-05
-0.4830528518064966,-0.4830528518064966,1.0003727175604324,8.271225960781996e-05
-0.4814225746311422,-0.4814225746311422,1.0001492903795337,8.296000707245766e-05
-0.47993138405799984,-0.47993138405799984,1.0002760830228847,8.28499029101978e-05
-0.4780779058059125,-0.4780779058059125,0.9999784093386357,8.291620434270879e-05
-0.47602462137838303,-0.47602462137838303,1.0000414727989022,8.294425616013805e-05
-0.47432908312875954,-0.47432908312875954,1.000059578110688,8.269908411093396e-05
-0.4725185679875722,-0.4725185679875722,1.0003949220434716,8.405984666942053e-05
-0.47104183512601594,-0.47104183512601594,1.0001263297335936,8.673614001308076e-05
-0.4694841687258304,-0.4694841687258304,1.0002389563357108,8.287746738749805e-05
-0.4677858493432723,-0.4677858493432723,1.0005661989270265,8.294250788021018e-05
-0.4663188568807527,-0.4663188568807527,0.9999488813662483,8.270137051769727e-05
-0.46486752630116823,-0.46486752630116823,0.999969577236808,8.29251301478834e-05
-0.46284617997444,-0.46284617997444,1.000129678863694,8.30661734381974e-05
-0.4610207076199003,-0.4610207076199003,1.000152186341833,8.362305987359207e-05
-0.4600816140577081,-0.4600816140577081,1.0003036731606725,8.910115337010713e-05
-0.45866362304223,-0.45866362304223,1.0001739844580828,8.439168711451809e-05
-0.4569683835015894,-0.4569683835015894,1.0001541042666466,8.287544696545081e-05
-0.4550132451648096,-0.4550132451648096,1.0000618747136625,8.276550987059652e-05
-0.45371132465043046,-0.45371132465043046,1.0005021644194343,8.297062705267805e-05
-0.4517166841655126,-0.4517166841655126,1.0000049273049771,8.77050484559869e-05
-0.4501639612506551,-0.4501639612506551,1.0000537777278744,8.30668976159838e-05
-0.44867471795369057,-0.44867471795369057,1.000108362023285,8.284388060295786e-05
-0.4469194722783868,-0.4469194722783868,0.9999125975591703,8.291799113654012e-05
-0.4453006479798205,-0.4453006479798205,1.000171318173905,8.289991848005856e-05
-0.443989470235465,-0.443989470235465,1.0001534535391232,8.288175513388044e-05
-0.4423189560278843,-0.4423189560278843,1.0000294159778302,8.502829229869721e-05
-0.4406497419840889,-0.4406497419840889,1.0004025822435514,8.272219335541459e-05
-0.43901998066867237,-0.43901998066867237,0.9999312890794659,8.292487953943859e-05
-0.4375270516535238,-0.4375270516535238,1.000072095133236,8.282333130882001e-05
-0.43616440071309626,-0.43616440071309626,1.0001299103900338,8.290658508816327e-05
-0.43463191443515825,-0.43463191443515825,1.0003574609212076,8.28718993613236e-05
-0.43333599176803544,-0.43333599176803544,1.0000231110480862,8.292269850995477e-05
-0.4315851052277139,-0.4315851052277139,1.0002832274966094,8.340924448037587e-05
-0.42979303118700046,-0.42979303118700046,1.0001494558522939,8.726977771083121e-05
-0.42832735310294084,-0.42832735310294084,1.0004732753326735,8.551652517354907e-05
-0.4267906589742779,-0.4267906589742779,1.0002192710874738,8.29158799762114e-05
-0.42538220409915084,-0.42538220409915084,1.0001032628377948,8.289034889946283e-05
-0.42334960114385467,-0.42334960114385467,1.0001658759710712,8.276612745314801e-05
-0.4220988883782411,-0.4220988883782411,1.0000333651181461,8.284420075041359e-05
-0.4204572828592063,-0.4204572828592063,1.000239888646845,8.907022551658425e-05
-0.41890546996983175,-0.41890546996983175,0.9999341386977469,8.34238295699323e-05
-0.4177154258661176,-0.4177154258661176,1.0000560599300212,0.00010099262476736862
-0.4158664872735244,-0.4158664872735244,1.0000005575553585,8.284644407894801e-05
-0.414108255483734,-0.414108255483734,1.000276438754112,8.291563708854438e-05
-0.41272691190824845,-0.41272691190824845,0.9999287826687485,8.28664822998284e-05
-0.41131951755778573,-0.41131951755778573,1.0001523350948038,8.622372714098026e-05
-0.40971380412447617,-0.40971380412447617,1.0001484515058272,8.273547500483729e-05
-0.408121738914997,-0.408121738914997,1.0001741987214483,8.293371193336656e-05
-0.4065800489777757,-0.4065800489777757,1.0001848904230335,8.285305770495292e-05
-0.40476131063296633,-0.40476131063296633,0.9999418318958689,8.291709850782899e-05
-0.4028104789791541,-0.4028104789791541,0.9999867754161933,8.290588151805219e-05
-0.40098289791931163,-0.40098289791931163,1.000286759620762,8.27480364308128e-05
-0.39921229872743424,-0.39921229872743424,1.000177105677913,8.410037773664658e-05
-0.3976571494440577,-0.3976571494440577,1.000242651052495,8.286336143190771e-05
-0.3961654010199709,-0.3961654010199709,1.000046855272694,8.680607508226772e-05
-0.39442187535751144,-0.39442187535751144,1.0003431893297339,8.29113041119403e-05
-0.3928855948001001,-0.3928855948001001,1.0003130531826105,8.294238665636592e-05
-0.39149942081094197,-0.39149942081094197,0.9999224915051863,8.285029563498587e-05
-0.389604712871369,-0.389604712871369,1.000128893797117,8.268759505455159e-05
-0.3877957439999591,-0.3877957439999591,1.0002883490293397,8.399636343679806e-05
-0.38676155755129005,-0.38676155755129005,1.0001202645222684,8.890404023018666e-05
-0.3856343188592291,-0.3856343188592291,1.0003110733377887,8.449669470342652e-05
-0.38400635293946833,-0.38400635293946833,1.0004032019708693,8.284231315290005e-05
-0.3821704648420564,-0.3821704648420564,0.9999993612573478,8.29253671799318e-05
-0.3805253414844628,-0.3805253414844628,1.000509248500233,8.281240809967911e-05
-0.3788126408147946,-0.3788126408147946,0.9998537698717083,8.275910851620452e-05
-0.37712756020737287,-0.37712756020737287,0.999927859746984,8.797753490774063e-05
-0.37573523086393834,-0.37573523086393834,1.00000315474838,8.298245827461692e-05
-0.37428896060555417,-0.37428896060555417,1.0002673546134548,8.290751877982237e-05
-0.37229940335309947,-0.37229940335309947,1.0000403485610718,8.291292570099064e-05
-0.37093127112821095,-0.37093127112821095,1.0001527752387132,8.295547410035092e-05
-0.369665888999225,-0.369665888999225,1.0001865377596926,8.271155189446131e-05
-0.3678622040028131,-0.3678622040028131,1.0002787544342207,8.51062281093351e-05
-0.3664078441219317,-0.3664078441219317,1.0003342753617064,8.28761543049357e-05
-0.3647339644150634,-0.3647339644150634,1.000188493903075,8.285946821030366e-05
-0.36316390823631084,-0.36316390823631084,1.0000594448076452,8.289761528973776e-05
-0.36162614587556163,-0.36162614587556163,1.0003590496084904,8.293068402162657e-05
-0.36024115001819157,-0.36024115001819157,0.9999840178268193,8.285137003372642e-05
-0.35834628125594464,-0.35834628125594464,1.0002468986361328,8.26854697922443e-05
-0.35644772909981837,-0.35644772909981837,1.0003076141068614,8.780573380089219e-05
-0.3552067794942559,-0.3552067794942559,1.0002829244748237,8.730089567695847e-05
-0.3537538121541729,-0.3537538121541729,1.000369384097496,8.559382502735502e-05
-0.3522771914726036,-0.3522771914726036,1.0002519682482887,8.289093396880555e-05
-0.35050212304013256,-0.35050212304013256,1.0001206539679466,8.286504986082909e-05
-0.349054806825734,-0.349054806825734,1.0000262655287657,8.285082781992763e-05
-0.3474156245283666,-0.3474156245283666,1.0000490960318322,8.272630262682096e-05
-0.3460014484458952,-0.3460014484458952,1.000190935040822,8.304473414657944e-05
-0.3445070984900667,-0.3445070984900667,0.9998498660445228,9.889680724936545e-05
-0.34303326636254494,-0.34303326636254494,1.000349730727839,8.291836319905114e-05
-0.34094698362023335,-0.34094698362023335,1.0003940393849227,8.933651577875356e-05
-0.3397358996877301,-0.3397358996877301,1.0000139019895804,8.296099951014589e-05
-0.33826385988213586,-0.33826385988213586,1.0002346843088379,8.274894730030553e-05
-0.33692863039796067,-0.33692863039796067,1.0000550667092725,8.629702122839233e-05
-0.33526358842646004,-0.33526358842646004,0.9999774541258649,8.286629365934938e-05
-0.3334776035615505,-0.3334776035615505,1.0002283158804381,8.287579138882525e-05
-0.3318837096816424,-0.3318837096816424,1.0002599225120647,8.289909708081043e-05
-0.329930063788197,-0.329930063788197,1.0002885955434955,8.287452635887709e-05
-0.3283681528922898,-0.3283681528922898,1.000368912278724,8.29780208725994e-05
-0.3266627415396215,-0.3266627415396215,1.000208587695576,8.409588323106568e-05
-0.32491036433057163,-0.32491036433057163,1.0000948846181277,8.272065106097848e-05
-0.3234140594002383,-0.3234140594002383,1.0003605104636848,8.692142756416681e-05
-0.3218377633485943,-0.3218377633485943,1.0001242574516307,8.287220880472975e-05
-0.32011901779478646,-0.32011901779478646,1.0004574163404165,8.29477407236222e-05
-0.31857199913356454,-0.31857199913356454,0.9998573200617503,8.285173928180007e-05
-0.3171829851289658,-0.3171829851289658,1.0004507512062037,8.286982246447484e-05
-0.31518769486465315,-0.31518769486465315,1.000026367028895,8.316154530930166e-05
-0.31343864412774564,-0.31343864412774564,1.0001165254924587,8.9570881969685e-05
-0.3125166891823028,-0.3125166891823028,1.0003703884018555,8.45479663726013e-05
-0.31103889271144,-0.31103889271144,1.0001295783507245,8.287204176838095e-05
-0.30931747696995443,-0.30931747696995443,1.0000547748938566,8.288532478133878e-05
-0.30729567848829903,-0.30729567848829903,1.000340108844087,8.277773238314806e-05
-0.3059941679381154,-0.3059941679381154,1.0003533257422081,8.283997398302936e-05
-0.3042362093248812,-0.3042362093248812,0.9999947074941193,8.794077876915721e-05
-0.30284131244261514,-0.30284131244261514,1.0000897773369934,8.310571850046572e-05
-0.301352354444316,-0.301352354444316,1.0001674097678084,8.283546475271726e-05
-0.29950540024256045,-0.29950540024256045,1.0000676485299362,8.291748817201237e-05
-0.2976665129241155,-0.2976665129241155,0.999949977833551,8.293825784000049e-05
-0.29635927752351565,-0.29635927752351565,1.0001441652337175,8.27702813701111e-05
-0.2945959026554192,-0.2945959026554192,1.0000643668553806,8.517135478557593e-05
-0.29304016883907025,-0.29304016883907025,1.0004347851555773,8.287115109927682e-05
-0.29140580597304505,-0.29140580597304505,1.0003906110550265,8.289812113136442e-05
-0.28983717097798944,-0.28983717097798944,0.9999692643633834,8.284747082446858e-05
-0.28830117387333304,-0.28830117387333304,1.000028908310497,8.294561427429426e-05
-0.2868173757666227,-0.2868173757666227,1.0000110749699869,8.28599400392888e-05
-0.28511402953336074,-0.28511402953336074,1.0001014330258895,8.264256661530131e-05
-0.28353413052682297,-0.28353413052682297,1.000206783842711,8.354542546403396e-05
-0.2818465568587271,-0.2818465568587271,1.0003536615032793,8.720280416651854e-05
-0.2804289482442982,-0.2804289482442982,1.0002938271943997,8.570001982969543e-05
-0.2789072945255612,-0.2789072945255612,1.0003686236322902,8.28596505811524e-05
-0.2772817127057351,-0.2772817127057351,1.000573784381515,8.730345185655581e-05
-0.27576795199056503,-0.27576795199056503,1.0000790783953382,8.273900498444581e-05
-0.27477674990077505,-0.27477674990077505,0.9999395751182834,8.284656833541792e-05
-0.27278145153431976,-0.27278145153431976,1.0003046793509687,8.300072644232525e-05
-0.2710372389658005,-0.2710372389658005,1.0000200861183284,9.591774893180416e-05
-0.27005880306060137,-0.27005880306060137,1.000209657954142,8.285368897466619e-05
-0.26812997422421175,-0.26812997422421175,1.0003152048104968,8.28786145289306e-05
-0.2663308077193506,-0.2663308077193506,0.9998927870812728,8.294762841153344e-05
-0.26480848000792323,-0.26480848000792323,1.0001848917651415,8.27549454050413e-05
-0.2635584947995085,-0.2635584947995085,1.0000835783813893,8.647634944497836e-05
-0.261919490834407,-0.261919490834407,1.0000583424901486,8.276961894278334e-05
-0.26014803109173956,-0.26014803109173956,1.0000952514315666,8.2895278231055e-05
-0.25859194796394147,-0.25859194796394147,1.0003222951917254,8.967857503357942e-05
-0.2570955342176603,-0.2570955342176603,0.9998618574525778,8.290921998289751e-05
-0.25504213045496726,-0.25504213045496726,1.0002196492595647,8.295060619496246e-05
-0.25334388071678404,-0.25334388071678404,1.0001220328977802,8.270268276260552e-05
-0.25180647197776124,-0.25180647197776124,1.000129768759936,8.423987810050453e-05
-0.2503358083715284,-0.2503358083715284,1.0002548843073336,8.285528554331088e-05
-0.24912849405591259,-0.24912849405591259,1.000234980841955,8.847854671034869e-05
-0.24742944426725444,-0.24742944426725444,1.0000156014670032,8.28507970947049e-05
-0.245897295890245,-0.245897295890245,1.000195808339567,8.295866422394333e-05
-0.24442008921178057,-0.24442008921178057,0.9999019628793931,8.284699906263319e-05
-0.24269443792909443,-0.24269443792909443,1.0001140961474255,8.272335242825551e-05
-0.2407056833657407,-0.2407056833657407,1.0000753554703103,8.416676457693351e-05
-0.23943839031089736,-0.23943839031089736,1.0002315893382925,8.864442280028911e-05
-0.2383126869586704,-0.2383126869586704,0.9999417424054615,8.462350343740035e-05
-0.23668362944627006,-0.23668362944627006,1.0002236353639717,8.281892393017051e-05
-0.23484801578124462,-0.23484801578124462,1.000040794590325,8.293227391999549e-05
-0.23320161985466256,-0.23320161985466256,1.0002251944936575,8.279614932755829e-05
-0.23149011054847507,-0.23149011054847507,1.0000762072931952,8.27714944123184e-05
-0.22980515046074287,-0.22980515046074287,1.0000205818342152,8.815174161013294e-05
-0.22829452825972113,-0.22829452825972113,0.9999427371483997,8.302075182771413e-05
-0.22692904307114076,-0.22692904307114076,1.000251171108379,8.28711078914867e-05
-0.2249775487856823,-0.2249775487856823,0.9998666745532863,8.290751114719366e-05
-0.2236088777812256,-0.2236088777812256,1.0001194980840793,8.294845271818639e-05
-0.22198984579772513,-0.22198984579772513,1.0000673930028414,8.273238430727075e-05
-0.22027288591634714,-0.22027288591634714,1.0002274387648646,8.525839448277308e-05
-0.21873336319840747,-0.21873336319840747,1.000035417291619,8.285291088499432e-05
-0.21714179855443944,-0.21714179855443944,1.0003239525089458,8.289640449307136e-05
-0.2155447576813458,-0.2155447576813458,0.9998627074777705,8.288792861647153e-05
-0.21394448206701783,-0.21394448206701783,1.000015991303588,8.284257958736197e-05
-0.21263300196515048,-0.21263300196515048,1.0002995760648585,8.294539337764116e-05
-0.2109465143403213,-0.2109465143403213,1.0001264974428523,8.269503836008967e-05
-0.209096396357927,-0.209096396357927,1.0001183741627824,8.359986230213018e-05
-0.207645731055527,-0.207645731055527,1.0004749012472516,8.992267049806177e-05
-0.2060940682538785,-0.2060940682538785,0.9999543729692985,8.285921742364827e-05
-0.20439841235493078,-0.20439841235493078,1.00059061111105,8.293000408464826e-05
-0.20236311173866853,-0.20236311173866853,1.000033835684529,8.276330901733129e-05
-0.20111568382235417,-0.20111568382235417,1.0000744556878316,8.284258494972642e-05
-0.19912038743095764,-0.19912038743095764,1.0001486342841575,8.300881132632603e-05
-0.19737580836517737,-0.19737580836517737,1.0000364434669229,9.325963742247534e-05
-0.19656701237618107,-0.19656701237618107,1.000071812915943,8.292375430273504e-05
-0.1948838100390276,-0.1948838100390276,1.000210072034017,8.286025372165442e-05
-0.19319676287923357,-0.19319676287923357,1.0001232565293294,8.731955769102931e-05
-0.19174211550707695,-0.19174211550707695,0.9998558028440554,8.286987704669967e-05
-0.19040882445951865,-0.19040882445951865,1.0001168630942703,8.279578626056646e-05
-0.18901192259800154,-0.18901192259800154,1.000023463913713,8.641593983231688e-05
-0.18713919010369864,-0.18713919010369864,1.0000964609793506,8.293374640705087e-05
-0.1855963765679917,-0.1855963765679917,1.000356405755743,8.286565361108442e-05
-0.1840056720589928,-0.1840056720589928,1.0000453758940901,9.10110962288106e-05
-0.18222894084319705,-0.18222894084319705,0.9999837340343308,8.294276841661036e-05
-0.1806311477888812,-0.1806311477888812,1.0001993901944763,8.276851094049178e-05
-0.17908520140081235,-0.17908520140081235,0.999759216992725,8.271912752291251e-05
-0.17787250141518599,-0.17787250141518599,0.9999832841011103,8.426924055077712e-05
-0.17632787736147293,-0.17632787736147293,1.000126509984345,8.285880894938245e-05
-0.1745163726824103,-0.1745163726824103,1.0000713295310895,8.287142527292548e-05
-0.17279673508637644,-0.17279673508637644,0.9998125028977783,8.290963985382138e-05
-0.17124793767579832,-0.17124793767579832,0.9998046482767535,8.285995819398725e-05
-0.1698608875474747,-0.1698608875474747,0.9998993824706617,8.28589827152549e-05
-0.16812718289875192,-0.16812718289875192,1.0000582194099708,8.31010025552235e-05
-0.1663757988237194,-0.1663757988237194,1.0001330527715233,8.379045142500326e-05
-0.16543630023697914,-0.16543630023697914,0.9998645198540197,8.854935682996214e-05
-0.16402099423830804,-0.16402099423830804,1.00002427366988,8.464681577187175e-05
-0.16232270120817702,-0.16232270120817702,0.9999764140841645,8.286454608821406e-05
-0.16036506061027467,-0.16036506061027467,1.0000635594731269,8.276680894142127e-05
-0.1590677415690152,-0.1590677415690152,1.0001227908929662,8.294456111887315e-05
-0.15707112930540462,-0.15707112930540462,1.0000149208584033,8.804075900651129e-05
-0.1555186660043546,-0.1555186660043546,0.9999799140334439,8.314867685575865e-05
-0.15414314022054895,-0.15414314022054895,1.0001088450096312,8.284596538151301e-05
-0.15252320192739716,-0.15252320192739716,1.0000166549890308,8.291411708926087e-05
-0.15065570105471124,-0.15065570105471124,1.0000618585455714,8.290366469055642e-05
-0.1493429956724867,-0.1493429956724867,0.9998591330399174,8.287694618160126e-05
-0.1476728532998095,-0.1476728532998095,0.9998367228503046,8.53545113732628e-05
-0.14600452141967252,-0.14600452141967252,0.999942711442278,8.270527413398715e-05
-0.1444330587335571,-0.1444330587335571,1.0002036320125571,8.293709952668558e-05
-0.14319236462724802,-0.14319236462724802,1.0000434114996155,8.283668752575092e-05
-0.14154088002287607,-0.14154088002287607,0.9999996707753258,8.289596919973784e-05
-0.13989911795833904,-0.13989911795833904,0.9998690392736771,8.284458778124799e-05
-0.1382779344345181,-0.1382779344345181,0.9998819598250762,8.287238328836932e-05
-0.13661098139527894,-0.13661098139527894,0.9999298603829615,8.362422800272819e-05
-0.134819983775742,-0.134819983775742,1.0002365177919628,8.690044180919277e-05
-0.13340049136750168,-0.13340049136750168,0.9998595864877226,8.593151364588489e-05
-0.13173523168188694,-0.13173523168188694,0.9998909654484699,8.279884646943407e-05
-0.12992979914961325,-0.12992979914961325,1.0004295292067589,8.297856818560461e-05
-0.12827389442536513,-0.12827389442536513,0.9998936110007867,8.275936719204662e-05
-0.12663130501605338,-0.12663130501605338,0.9997348654015873,8.27197139063088e-05
-0.12463564922509249,-0.12463564922509249,1.0002564548264594,8.357449597299154e-05
-0.12337741884693969,-0.12337741884693969,1.0001026598241096,9.113713102394222e-05
-0.12204992765618954,-0.12204992765618954,0.9999941183189829,8.291859896913329e-05
-0.1201423040656664,-0.1201423040656664,0.9998476088421281,8.285606137098862e-05
-0.11875244184302573,-0.11875244184302573,0.9999975294946806,8.296137179059589e-05
-0.11727754453968373,-0.11727754453968373,1.0000718759778298,8.275155692003351e-05
-0.11621366273902822,-0.11621366273902822,1.0000197810822642,8.665916758830746e-05
-0.11466922013278236,-0.11466922013278236,0.9999652197352553,8.717230653454598e-05
-0.11311591200683324,-0.11311591200683324,0.9999394009282812,8.295755681436993e-05
