time,time,flux,flux_err
-0.49879425881372297,-0.49879425881372297,1.0001426215483906,8.794522829321955e-05
-0.4964968365704408,-0.4964968365704408,0.9999115222943618,8.793650675387806e-05
-0.49543763713736555,-0.49543763713736555,0.9999969081146517,8.80076243856441e-05
-0.4944188090943499,-0.4944188090943499,0.9999791455002303,8.807015783932633e-05
-0.4921448550594505,-0.4921448550594505,1.000028789269522,8.793899438821463e-05
-0.48955345962313,-0.48955345962313,1.0000488068041005,8.795591354235882e-05
-0.4884459960274398,-0.4884459960274398,1.0000627883401407,8.801776862950639e-05
-0.487017468950944,-0.487017468950944,1.0001658821300747,8.798614248785322e-05
-0.4843286668037763,-0.4843286668037763,0.9997970236115865,8.793385925822737e-05
-0.4828216360561782,-0.4828216360561782,0.9999933075921396,8.7938174709892e-05
-0.4817551677348092,-0.4817551677348092,0.999964132187387,8.799646478538874e-05
-0.48075346401310526,-0.48075346401310526,0.9999224731989023,8.813963683691915e-05
-0.4780604966421379,-0.4780604966421379,1.0000123751499799,8.79290272856697e-05
-0.4761049248656491,-0.4761049248656491,1.000042408496285,8.796528291990003e-05
-0.47479000422463286,-0.47479000422463286,1.0001284747643386,8.801247550920143e-05
-0.4738586789171677,-0.4738586789171677,0.9999502582154115,8.801516504523131e-05
-0.471488386625424,-0.471488386625424,0.9999421332047131,8.793183758484267e-05
-0.4696175700810272,-0.4696175700810272,1.0001874128398138,8.795594557921578e-05
-0.46799361146986485,-0.46799361146986485,0.9999634201023184,8.80044322482008e-05
-0.4668866177467862,-0.4668866177467862,1.0000148144956182,8.80029359149626e-05
-0.4642927657143446,-0.4642927657143446,1.0002012381837726,8.796403106741858e-05
-0.4627551531448262,-0.4627551531448262,0.9999905771621329,8.795687873217354e-05
-0.46140021314204205,-0.46140021314204205,1.0000822159629887,8.796247763717178e-05
-0.460638120843214,-0.460638120843214,0.9999782692709955,8.8010065980971e-05
-0.4577234809403308,-0.4577234809403308,0.99993673909819,8.795335661366251e-05
-0.45612944954191337,-0.45612944954191337,0.9999772557089196,8.793913687765689e-05
-0.45449476288049484,-0.45449476288049484,1.0001809811174032,8.796525401338094e-05
-0.45402216366201176,-0.45402216366201176,0.9999726069376113,8.802840977116042e-05
-0.45273276497609916,-0.45273276497609916,1.00008275343704,8.91151734682142e-05
-0.45045642321347257,-0.45045642321347257,0.9999057344608232,8.791640932715304e-05
-0.4480501921818359,-0.4480501921818359,0.9998880098567418,8.79591682125396e-05
-0.44710177133674733,-0.44710177133674733,0.9999697038894816,8.801298018943902e-05
-0.44561221346375535,-0.44561221346375535,1.0000394125401024,8.798661106802404e-05
-0.44296390571980737,-0.44296390571980737,1.0000620626060968,8.792833479878936e-05
-0.44083163454488383,-0.44083163454488383,0.9999961096119444,8.79468053343112e-05
-0.4401158813881921,-0.4401158813881921,0.9998828419502199,8.800824348019023e-05
-0.4369951351545751,-0.4369951351545751,1.000025747984821,8.793948997921521e-05
-0.4353661337314406,-0.4353661337314406,1.000125968722858,8.795162624670941e-05
-0.43374657521490007,-0.43374657521490007,0.9999370847117234,8.796122844349126e-05
-0.4333110489707906,-0.4333110489707906,0.9998848528090921,8.801179862826375e-05
-0.4319819744763663,-0.4319819744763663,0.9999514134524894,8.854888336965749e-05
-0.4293691980012227,-0.4293691980012227,1.0000377153739717,8.793009131071299e-05
-0.42692098307597914,-0.42692098307597914,1.0000193184241861,8.793760107797892e-05
-0.4263063627498923,-0.4263063627498923,1.0001084635341442,8.804713444995302e-05
-0.4242690607556142,-0.4242690607556142,0.9999143038022279,8.800039780539638e-05
-0.4216728393250378,-0.4216728393250378,0.9999820484344536,8.791633508302342e-05
-0.41976771341287533,-0.41976771341287533,0.9999312389567929,8.800020707680211e-05
-0.4189787081122631,-0.4189787081122631,0.9999341271187895,8.796711726238587e-05
-0.41626916143868586,-0.41626916143868586,1.0000498355921768,8.793381646215247e-05
-0.4142542877641972,-0.4142542877641972,0.9999812376230303,8.797107373597433e-05
-0.41299682105600366,-0.41299682105600366,1.0001540686504775,8.798889944343772e-05
-0.4123291001917096,-0.4123291001917096,0.9999128808912158,8.7998464865523e-05
-0.41005814968666526,-0.41005814968666526,1.0000143551813643,8.819942874890002e-05
-0.407818158812006,-0.407818158812006,0.9999642432934757,8.791950136480069e-05
-0.4059495941968635,-0.4059495941968635,1.0000030900435888,8.794004670084339e-05
-0.4052524780970998,-0.4052524780970998,0.9998606965462203,8.801504324087672e-05
-0.4029089197691064,-0.4029089197691064,1.0000930265056032,8.79732698274761e-05
-0.4004153114452492,-0.4004153114452492,1.000038567641922,8.793682348016227e-05
-0.39887296497472563,-0.39887296497472563,0.999885071593041,8.801041935787638e-05
-0.39741969091119245,-0.39741969091119245,0.999881079345576,8.799775179580374e-05
-0.39499700063315685,-0.39499700063315685,0.9999597782232469,8.792400768278284e-05
-0.3931247899599839,-0.3931247899599839,0.9999512698159071,8.796669460108846e-05
-0.39207707938330716,-0.39207707938330716,0.9999825789429012,8.7989003086486e-05
-0.3907781202578917,-0.3907781202578917,1.0002518313995519,8.801098748790055e-05
-0.3879493788146647,-0.3879493788146647,1.000100301230677,8.793108641743578e-05
-0.38609445772017353,-0.38609445772017353,0.9999072288788895,8.793822223452275e-05
-0.3851136323675746,-0.3851136323675746,1.0000816494469202,8.80028602450285e-05
-0.384324428459513,-0.384324428459513,1.0000222277576427,8.952460189738701e-05
-0.3821868806582643,-0.3821868806582643,1.0000925233746556,8.796531550946838e-05
-0.3806889157596743,-0.3806889157596743,1.000131074498642,8.792600134424104e-05
-0.3784741447831038,-0.3784741447831038,1.0000578522940127,8.796048359153606e-05
-0.37795171100005975,-0.37795171100005975,1.0000188090175457,8.801581481317386e-05
-0.3754363616288174,-0.3754363616288174,1.0001935891722928,8.800560956933352e-05
-0.3733800503250677,-0.3733800503250677,0.9999847859938944,8.795339477560041e-05
-0.37171546748431866,-0.37171546748431866,1.0000611492116498,8.796191308320565e-05
-0.37075060133938675,-0.37075060133938675,0.9999962544549674,8.802415522634779e-05
-0.36764564711775166,-0.36764564711775166,0.9999266239142595,8.790859256727917e-05
-0.36623272352153435,-0.36623272352153435,1.0001064600033645,8.79641258135096e-05
-0.3648006987088593,-0.3648006987088593,1.0001137741005226,8.797099875153768e-05
-0.3643564906960819,-0.3643564906960819,1.0001294012362247,8.80470662012407e-05
-0.3630399278277764,-0.3630399278277764,1.000020482792026,8.870459895192568e-05
-0.36077435231709387,-0.36077435231709387,1.0000173053284978,8.792863258443129e-05
-0.358392632365576,-0.358392632365576,0.9998285743063461,8.794852404643608e-05
-0.35752133635105565,-0.35752133635105565,0.9998404385346713,8.800494852611069e-05
-0.35645096507214474,-0.35645096507214474,1.0000468453572,8.797838637169109e-05
-0.3537733677396318,-0.3537733677396318,1.0001184106982202,8.794558753129265e-05
-0.35138931807887275,-0.35138931807887275,1.000052397747692,8.795835808886616e-05
-0.35053494598541873,-0.35053494598541873,1.0001064336425216,8.801807197753627e-05
-0.3490511168289231,-0.3490511168289231,1.0001171411525154,8.800798329969507e-05
-0.3465823415433988,-0.3465823415433988,1.0000301423815745,8.792444361446787e-05
-0.3450128476426471,-0.3450128476426471,0.9999962303288044,8.79516747933879e-05
-0.34385315058461857,-0.34385315058461857,1.0000068638000366,8.800189569465705e-05
-0.3433774454635568,-0.3433774454635568,1.0001736294666144,8.797793183561768e-05
-0.3413561663066503,-0.3413561663066503,0.9998548590546654,8.830336052455396e-05
-0.33926605530723464,-0.33926605530723464,0.9999987428800873,8.792405721378352e-05
-0.33723535122699105,-0.33723535122699105,0.9999724162244726,8.79347542192274e-05
-0.33659800170280507,-0.33659800170280507,1.0000641344107994,8.803871300519923e-05
-0.3339615143631818,-0.3339615143631818,1.000160349643348,8.796467404808563e-05
-0.3319366132462164,-0.3319366132462164,0.9999741761642824,8.794549140339622e-05
-0.33009016217838505,-0.33009016217838505,1.0000419795872768,8.801302674721183e-05
-0.32928399443626405,-0.32928399443626405,1.0000954853080823,8.797354410118852e-05
-0.3267492627055617,-0.3267492627055617,0.99991917616279,8.79432725884788e-05
-0.32506246713746806,-0.32506246713746806,1.000057627483531,8.798341164286555e-05
-0.32369277303805577,-0.32369277303805577,0.999974362599825,8.795948853474116e-05
-0.32293370947882066,-0.32293370947882066,1.0000467853047872,8.801205739072673e-05
-0.32094109072641,-0.32094109072641,1.0001409079088621,8.807801135748741e-05
-0.31896905328321734,-0.31896905328321734,1.0000456482339015,8.793454235584786e-05
-0.31715328073187266,-0.31715328073187266,1.0000428356501212,8.795096565251511e-05
-0.31616133176430594,-0.31616133176430594,1.0000431403856307,8.799005189094571e-05
-0.31522614405839705,-0.31522614405839705,1.0001001676738657,8.80249175140069e-05
-0.3128555358183803,-0.3128555358183803,0.9999458030131321,8.794915125308567e-05
-0.31072498586727304,-0.31072498586727304,1.000038495648581,8.794275278421454e-05
-0.3092021854739869,-0.3092021854739869,0.9999445432981044,8.800859702226866e-05
-0.3077273390867049,-0.3077273390867049,1.0000252981047795,8.800352868146288e-05
-0.3053252422134392,-0.3053252422134392,1.0000719266513938,8.796102960069651e-05
-0.3031973409320926,-0.3031973409320926,0.9998956689936932,8.79285108078738e-05
-0.3023074034281308,-0.3023074034281308,0.9999993921706736,8.80033256779693e-05
-0.3004133403184824,-0.3004133403184824,1.0000996447774788,8.798846233801278e-05
-0.29810403497540394,-0.29810403497540394,0.9999474573284897,8.792063811619543e-05
-0.2964005375542911,-0.2964005375542911,0.999947499954169,8.796582907665052e-05
-0.2954601502045989,-0.2954601502045989,0.9999501481282504,8.800079408522243e-05
-0.2949466810794547,-0.2949466810794547,1.0000650487272857,8.892173600973017e-05
-0.29249441023275724,-0.29249441023275724,1.000179190650858,8.796426607636881e-05
-0.2905221215973143,-0.2905221215973143,1.0001160870513037,8.791512170523111e-05
-0.2887279502232559,-0.2887279502232559,1.0000590110852654,8.796032668926783e-05
-0.2882777978666127,-0.2882777978666127,1.0001639880174984,8.801160191849684e-05
-0.28575155017606446,-0.28575155017606446,1.0001831199849012,8.79896806733188e-05
-0.28329127420729494,-0.28329127420729494,1.000001440096137,8.796342666589463e-05
-0.2818650338042062,-0.2818650338042062,1.000013973095222,8.799727687894565e-05
-0.2808032058092067,-0.2808032058092067,0.9999980265835522,8.800842099692856e-05
-0.2779642003442859,-0.2779642003442859,1.0000489021601533,8.791399163649263e-05
-0.2763754061306827,-0.2763754061306827,1.0000970381650762,8.797619067188892e-05
-0.27510280634160156,-0.27510280634160156,1.0002870111689428,8.797842612346204e-05
-0.2746835848869523,-0.2746835848869523,0.9999121293451815,8.80118148221038e-05
-0.27334722950763535,-0.27334722950763535,0.9999432770321608,8.843183345293363e-05
-0.27073779331403786,-0.27073779331403786,0.9999805708894067,8.792329078330163e-05
-0.2682888439303497,-0.2682888439303497,1.0001299746619623,8.795350322029348e-05
-0.2676805146824336,-0.2676805146824336,0.9999275827969603,8.804780516269527e-05
-0.26591031038551594,-0.26591031038551594,1.0000860951186452,8.800939922438039e-05
-0.2636020869074855,-0.2636020869074855,0.9999538826215295,8.792138051197165e-05
-0.2612941689149011,-0.2612941689149011,0.9998982923314959,8.795685712867234e-05
-0.2606225293042371,-0.2606225293042371,1.0000402419413728,8.799115756523695e-05
-0.2581612579524517,-0.2581612579524517,0.9999575513932765,8.799050684957452e-05
-0.25599705386848653,-0.25599705386848653,0.9999319421146705,8.796068079584802e-05
-0.2545591243571835,-0.2545591243571835,1.0000978444427724,8.798119334475816e-05
-0.25379669084213674,-0.25379669084213674,1.0001189534828343,8.801068337812573e-05
-0.25142623999272473,-0.25142623999272473,0.999934959245223,8.813191176419916e-05
-0.2493733827752294,-0.2493733827752294,1.0001333687506038,8.793104883824978e-05
-0.24754994258400984,-0.24754994258400984,0.9999488314128113,8.794808879633546e-05
-0.24692378455074504,-0.24692378455074504,1.0000088416958857,8.80399785263991e-05
-0.24471614017093088,-0.24471614017093088,1.0001076823911426,8.799875658252724e-05
-0.2428350539499661,-0.2428350539499661,1.0000608954054433,8.792698245310018e-05
-0.2405580236314563,-0.2405580236314563,1.00012922044682,8.79758914419189e-05
-0.23974804854369722,-0.23974804854369722,1.0000913701593759,8.800081972857554e-05
-0.23706990379141643,-0.23706990379141643,0.9999354486506015,8.794533394102899e-05
-0.23557315933867357,-0.23557315933867357,1.0000994939313206,8.799476031508147e-05
-0.2340017150854692,-0.2340017150854692,0.9999613162049918,8.795989143748222e-05
-0.2332576846529264,-0.2332576846529264,1.000066522635225,8.799817874813943e-05
-0.23074428406835068,-0.23074428406835068,0.9999581037977622,8.796942368165665e-05
-0.22861908263876102,-0.22861908263876102,1.0000836319016089,8.792872454701543e-05
-0.22691831776173785,-0.22691831776173785,1.0000267270248113,8.797513595412847e-05
-0.2264386282506166,-0.2264386282506166,1.0000149489158763,8.801540320468896e-05
-0.22515599148464388,-0.22515599148464388,1.00021645099606,8.929888393406818e-05
-0.2228769744891906,-0.2228769744891906,1.0001245786837647,8.793796802801026e-05
-0.22047343993617688,-0.22047343993617688,0.9999008567614837,8.79570111731294e-05
-0.21951845450385007,-0.21951845450385007,1.0001548182895335,8.801887844482037e-05
-0.21803521000547335,-0.21803521000547335,0.9999598409269108,8.800672602656983e-05
-0.21580754448950756,-0.21580754448950756,1.0000432448152354,8.795176941691889e-05
-0.21390071777277625,-0.21390071777277625,0.9999553251799782,8.79639312346506e-05
-0.21272283623111435,-0.21272283623111435,1.0000767233817927,8.800269384745252e-05
-0.21090399616514333,-0.21090399616514333,1.0000892184061319,8.799152562805609e-05
-0.20841730246902443,-0.20841730246902443,0.9998632725679443,8.792042711625354e-05
-0.20670685512013734,-0.20670685512013734,0.9998818942224549,8.795507898379339e-05
-0.20578022932459133,-0.20578022932459133,1.0000607713366163,8.80129511831924e-05
-0.20526386585843284,-0.20526386585843284,1.000127299462211,8.861560297461447e-05
-0.20268725148052907,-0.20268725148052907,1.0000766752079104,8.795374740196478e-05
-0.20028894215938636,-0.20028894215938636,1.0001060392275285,8.79333621802106e-05
-0.19895569177751896,-0.19895569177751896,1.0000873760169966,8.801563617870095e-05
-0.1982814974995563,-0.1982814974995563,1.0000329392606937,8.801181884112642e-05
-0.19561349263822195,-0.19561349263822195,1.0000715078136029,8.794879507236295e-05
-0.19303550344193354,-0.19303550344193354,1.0000728743197165,8.794682751568965e-05
-0.19190768782864326,-0.19190768782864326,0.9999734292827682,8.802184163252076e-05
-0.19083707949030213,-0.19083707949030213,0.9999205496098151,8.799881850235601e-05
-0.18822477202047594,-0.18822477202047594,0.9998988657725872,8.792564246626314e-05
-0.18637747128377669,-0.18637747128377669,1.0000371781102164,8.795613230147107e-05
-0.1852237125916872,-0.1852237125916872,1.0000773282793038,8.800768363848001e-05
-0.1847445407853229,-0.1847445407853229,1.0001060377521864,8.79815033017564e-05
-0.18247943593014498,-0.18247943593014498,1.0001068242231181,8.822782202552859e-05
-0.18024212909222115,-0.18024212909222115,1.0001059305294804,8.793414354960111e-05
-0.17837042152532376,-0.17837042152532376,1.0000498123977215,8.794406690335908e-05
-0.17767197013890837,-0.17767197013890837,0.9999854966549833,8.802583376737952e-05
-0.17532994755893014,-0.17532994755893014,0.9999819440041768,8.79542395801762e-05
-0.1728379293519538,-0.1728379293519538,1.0000991552787752,8.792280288567446e-05
-0.17129069960792548,-0.17129069960792548,1.0000328084647117,8.800954103805357e-05
-0.17025641437212471,-0.17025641437212471,0.9999459651558331,8.799306581852749e-05
-0.16775085511035287,-0.16775085511035287,1.0001028468231774,8.79236498873786e-05
-0.16584590837592258,-0.16584590837592258,0.9998982197749584,8.795544547790044e-05
-0.16468438237789088,-0.16468438237789088,0.999984722241577,8.800062819199838e-05
-0.16372193978750146,-0.16372193978750146,1.0001557517379023,8.799534768290477e-05
-0.16079895677394235,-0.16079895677394235,1.0000988622927895,8.792119380136355e-05
-0.15883434582210612,-0.15883434582210612,1.0000429768592447,8.797395311136864e-05
-0.1576375503645977,-0.1576375503645977,0.9999763464895886,8.798331017973795e-05
-0.15705043187481352,-0.15705043187481352,0.9999660172911871,8.973319444462021e-05
-0.1550262299919268,-0.1550262299919268,1.0000611799212664,8.799424590427727e-05
-0.15314673546818086,-0.15314673546818086,1.0000759201306686,8.792836420721356e-05
-0.1508952067582868,-0.1508952067582868,1.0000249460118404,8.793334531852184e-05
-0.15037022928590887,-0.15037022928590887,1.0000677305029309,8.800717030012472e-05
-0.1478575955494307,-0.1478575955494307,0.9999939019056981,8.799217976519262e-05
-0.1458024584746454,-0.1458024584746454,0.999904763415004,8.795842523811841e-05
-0.14413663150626235,-0.14413663150626235,0.9999709241210997,8.795848640372966e-05
-0.14317120752239135,-0.14317120752239135,1.000031882389531,8.800453547638805e-05
-0.1400660440354841,-0.1400660440354841,1.0000043292068423,8.79003386035761e-05
-0.1384968994942028,-0.1384968994942028,1.0000649904252916,8.796975034925647e-05
-0.13701689496811015,-0.13701689496811015,0.9999463443661616,8.797590321097756e-05
-0.13668028929969295,-0.13668028929969295,0.999866012839628,8.802789003445193e-05
-0.13492072322696913,-0.13492072322696913,1.0000463344487591,8.877627848673662e-05
-0.13289307322120295,-0.13289307322120295,0.9999627214498427,8.844374017143183e-05
-0.13081689944083336,-0.13081689944083336,1.0000287162309238,8.795759529306488e-05
-0.1299381298449589,-0.1299381298449589,1.0001024926594764,8.801977408026885e-05
-0.12887334575352724,-0.12887334575352724,1.0001773960852423,8.800194899974311e-05
-0.12619331714522558,-0.12619331714522558,1.000026446301919,8.7970175240274e-05
-0.12381237521767616,-0.12381237521767616,0.9999695255060246,8.794212964077374e-05
-0.12295404128963128,-0.12295404128963128,1.0000817635009551,8.802405239991313e-05
-0.12098499024577905,-0.12098499024577905,0.9999743705756241,8.797719474526805e-05
-0.11873080510413274,-0.11873080510413274,1.000103618999613,8.792128310256463e-05
-0.11717886944243219,-0.11717886944243219,1.000018712461197,8.800850346492372e-05
-0.11628196887904778,-0.11628196887904778,1.0000813567378246,8.795855405399728e-05
-0.11596154842118267,-0.11596154842118267,1.000102214493125,8.799510887057801e-05
-0.11411341972416267,-0.11411341972416267,0.9999811358082902,8.835728862549612e-05
-0.11168890940316487,-0.11168890940316487,0.9999358126000677,8.793353961652483e-05
-0.109656737948535,-0.109656737948535,1.0000918022435,8.795213179324141e-05
-0.10905470080615487,-0.10905470080615487,1.0001806238675615,8.813661007419797e-05
-0.10727502364607062,-0.10727502364607062,1.000022710981238,8.799697706645543e-05
-0.10528144057025202,-0.10528144057025202,1.000187933888625,8.794931479636867e-05
-0.10294899979489855,-0.10294899979489855,0.9999972263836738,8.795455725217593e-05
-0.10213765426306054,-0.10213765426306054,0.9999952227683615,8.80130901519865e-05
-0.10021607578091789,-0.10021607578091789,1.000014560198858,8.79853000454257e-05
-0.09811892389843706,-0.09811892389843706,1.0000744539993762,8.793954094398215e-05
-0.09660951572295744,-0.09660951572295744,1.0000737086270752,8.795719697826406e-05
-0.09554539323144126,-0.09554539323144126,0.9998737738676473,8.800729103364326e-05
-0.09454210819094441,-0.09454210819094441,1.0000536366405208,8.810790814863332e-05
-0.09185023110476323,-0.09185023110476323,1.000156052947931,8.793842681418259e-05
-0.08989382350700907,-0.08989382350700907,1.0000072222185714,8.797578144270854e-05
-0.08868720023019705,-0.08868720023019705,1.0000104468078292,8.796788452168751e-05
