time,time,flux,flux_err
-0.4999004871970101,-0.4999004871970101,0.9999727286103477,0.0001832033907367691
-0.4997806749699521,-0.4997806749699521,1.000217223888714,0.000175111808669727
-0.499683020322118,-0.499683020322118,1.0000320822913433,0.00016960970943406353
-0.4995019022455381,-0.4995019022455381,1.0001423666437597,0.00018859892159950613
-0.4993529041246802,-0.4993529041246802,1.0003283406121621,0.0001903525305987014
-0.49920251798976095,-0.49920251798976095,1.0000937151752656,0.00018866939446196004
-0.4990746586132445,-0.4990746586132445,1.000106361081729,0.00016669296225177717
-0.4989164091690327,-0.4989164091690327,0.9997821391990687,0.00018412789280448843
-0.4987509937651339,-0.4987509937651339,1.0003726623811042,0.00017131584645845987
-0.49864066899754106,-0.49864066899754106,1.0002895340032807,0.0001821126535788437
-0.4985118922020774,-0.4985118922020774,0.9999505686743204,0.00017284739792476435
-0.4984329547623929,-0.4984329547623929,1.000010069574116,0.0001822941865499117
-0.4983727881466621,-0.4983727881466621,0.9999082602471674,0.00017064697196519672
-0.49825542314938503,-0.49825542314938503,0.9998687690606751,0.00016949682382611802
-0.4980949623772176,-0.4980949623772176,1.0002591761173942,0.00016585864217635903
-0.49788504674943396,-0.49788504674943396,1.0000211521417408,0.00017387644493551308
-0.497805107160093,-0.497805107160093,0.9999460981110928,0.0001641772747812026
-0.4977114321955014,-0.4977114321955014,0.9999062420812714,0.00016503494688833198
-0.49764688162249515,-0.49764688162249515,0.999995466706501,0.00016653223884800956
-0.4975628346022859,-0.4975628346022859,1.0001044722968442,0.00019693393366543313
-0.4974548321290058,-0.4974548321290058,1.0002970762894823,0.0001667335164098366
-0.49735546461233754,-0.49735546461233754,0.9999621928436756,0.00016752394713319535
-0.49729650571753153,-0.49729650571753153,1.0000600881866328,0.0001668840064618328
-0.49723991767605186,-0.49723991767605186,1.0001976712720178,0.0001873652452317372
-0.49718058592334274,-0.49718058592334274,1.000215832118391,0.00016650199399662952
-0.4970812392239168,-0.4970812392239168,1.0001781695088745,0.00017142840752926554
-0.49693902229046216,-0.49693902229046216,1.000011859141005,0.00019074808035981586
-0.49686753450587273,-0.49686753450587273,1.0002601855684368,0.0001750654514260512
-0.49678873205702984,-0.49678873205702984,0.9998805475795931,0.00017094910170898438
-0.49670335107366553,-0.49670335107366553,1.0000203119282811,0.00017406946668684678
-0.49657911955509915,-0.49657911955509915,0.9999668576976463,0.0001881999988797908
-0.49639894234132953,-0.49639894234132953,1.000339179656291,0.0001707071435812061
-0.496251404096256,-0.496251404096256,1.0000715553783106,0.0001670836408619792
-0.49610114937240724,-0.49610114937240724,1.000023585232862,0.00019134805275273047
-0.49606093004185825,-0.49606093004185825,1.0000828430359643,0.00018389078272763813
-0.49596176271443254,-0.49596176271443254,1.0000836627033638,0.00019351917688515
-0.49583160978581875,-0.49583160978581875,0.999956326936846,0.00018979067068341154
-0.4957374379730027,-0.4957374379730027,1.000077601812981,0.0001661328028666616
-0.49563456663745453,-0.49563456663745453,1.000000781119546,0.00016750273682506853
-0.49557529071389583,-0.49557529071389583,0.9999607769316714,0.0001703542212926512
-0.49544433313349145,-0.49544433313349145,1.0000380516613372,0.0001735662474934147
-0.4953317303130461,-0.4953317303130461,0.9998366203760585,0.00017781558999106526
-0.495135965897498,-0.495135965897498,0.9999471162609328,0.00019282784558581555
-0.4949430915294215,-0.4949430915294215,0.9998250073611705,0.0001768625243460424
-0.49487118226024907,-0.49487118226024907,0.9999617959925589,0.00020226704613602754
-0.49470851663063514,-0.49470851663063514,1.0001534728448969,0.0001880112943155653
-0.49454858124954626,-0.49454858124954626,1.0002978140000913,0.00019634762982046074
-0.4943884708263795,-0.4943884708263795,0.9999369409187115,0.00017000232830631021
-0.49425389431489747,-0.49425389431489747,0.9998458065065992,0.00018825186540481054
-0.49419531733874467,-0.49419531733874467,1.000133689102017,0.0001874381835163212
-0.49414264347506104,-0.49414264347506104,1.0000487331441157,0.00018121290423931693
-0.49403992802108404,-0.49403992802108404,1.0000566771876964,0.00017575611652881029
-0.4938598630251363,-0.4938598630251363,0.9999143793889822,0.00017052217323960242
-0.49369011116796174,-0.49369011116796174,1.0001033086499425,0.00017209161341951443
-0.4935968074227276,-0.4935968074227276,1.000050126667532,0.00016543592071772642
-0.49347764528502014,-0.49347764528502014,1.0001423966279428,0.00016572711975842698
-0.49335041523590917,-0.49335041523590917,0.9997738466440558,0.00018451383032309557
-0.4932474103101413,-0.4932474103101413,1.0000739075402112,0.00016703361357686374
-0.4931460403036908,-0.4931460403036908,1.0001935821074626,0.0001618896669267982
-0.4930456563415646,-0.4930456563415646,1.000101712925229,0.00018884030100379067
-0.49298387695744167,-0.49298387695744167,1.0000610035479665,0.00018852993845096312
-0.49295791856129656,-0.49295791856129656,0.9999652910835526,0.00018715464222716173
-0.4928121100412682,-0.4928121100412682,1.0001484686316975,0.00016545952999292998
-0.4926731361701968,-0.4926731361701968,1.0001790218961386,0.00017514662560487112
-0.49260198448682785,-0.49260198448682785,1.0000569357296194,0.00017064204221615048
-0.49249544179983784,-0.49249544179983784,1.000118415134056,0.00017138046993029157
-0.4923845475015696,-0.4923845475015696,0.9998016133212397,0.00016983202614022396
-0.49226209422340617,-0.49226209422340617,0.9997935000840148,0.00020642873424719485
-0.49210705200675875,-0.49210705200675875,1.000191352641954,0.00018423047598635842
-0.4920160545683757,-0.4920160545683757,0.9998424768471663,0.00016738874762159254
-0.4919444651939557,-0.4919444651939557,1.0000663362166704,0.00017167174119280882
-0.4918646187310515,-0.4918646187310515,1.000285199665951,0.00018438594850689013
-0.49177638245819255,-0.49177638245819255,0.9999427652975669,0.00020299955743695482
-0.49167135407187745,-0.49167135407187745,0.9999989062787733,0.0001896658574024222
-0.49149854156930817,-0.49149854156930817,0.9997603514996161,0.00018253082927853322
-0.4913847780881042,-0.4913847780881042,0.999885492045107,0.00017161562739951907
-0.49127563961956183,-0.49127563961956183,0.9998564116073816,0.00017338879010068736
-0.49114981848033495,-0.49114981848033495,1.0000502995661147,0.00018625875171741322
-0.49097724508173995,-0.49097724508173995,1.0000354051496807,0.0001951891927361247
-0.4908625451636908,-0.4908625451636908,1.0000709853053498,0.00018263721940357442
-0.49067941443718155,-0.49067941443718155,1.0000635687599364,0.00019280032033645536
-0.4906062675174326,-0.4906062675174326,0.9999994659407541,0.0001655130467303955
-0.4905170511432516,-0.4905170511432516,1.000016049213762,0.00017660558180974468
-0.49037712801946326,-0.49037712801946326,1.0000908515495812,0.00020597762108944456
-0.4902386615613068,-0.4902386615613068,0.9999827663610572,0.00018418530280313734
-0.49007211454954813,-0.49007211454954813,0.999852645486637,0.00017720155941437635
-0.48999872496715396,-0.48999872496715396,1.0001608676785796,0.00018938215282791085
-0.4899293662281707,-0.4899293662281707,1.0001542572160123,0.00018466362060267147
-0.4898336924299656,-0.4898336924299656,1.000130621319395,0.00018525670133114503
-0.4897717288135027,-0.4897717288135027,0.9997935837613209,0.00016774459975219346
-0.48964116272036334,-0.48964116272036334,1.0003136091243148,0.00017240418834189736
-0.48951516639644976,-0.48951516639644976,1.000058067393828,0.00016699247366498297
-0.48938028388656674,-0.48938028388656674,0.9998830250316171,0.00016744020684130643
-0.48927648809258245,-0.48927648809258245,1.000037611920407,0.0001689397383907011
-0.4891316466324497,-0.4891316466324497,1.000127066471752,0.0001687841634833903
-0.48901601570032655,-0.48901601570032655,1.00004889419669,0.00018545284398252174
-0.4889203008307959,-0.4889203008307959,0.9997274064705636,0.0001631172296034388
-0.4888543816188758,-0.4888543816188758,0.9999588874495238,0.00017351882310834955
-0.4887695466881269,-0.4887695466881269,0.9997224865026044,0.0001908304609840207
-0.4886689687795297,-0.4886689687795297,0.9998433553273142,0.00018840805573698763
-0.4885337198393245,-0.4885337198393245,0.9997842559466165,0.00016856112677622392
-0.48843328598304653,-0.48843328598304653,0.9999853597053555,0.0001659330393730094
-0.488314399025694,-0.488314399025694,1.000011606770882,0.0001728999425051211
-0.4882053190973238,-0.4882053190973238,0.9998973985893128,0.00017124505620941399
-0.4881010517739924,-0.4881010517739924,1.0000838288347047,0.00016762385052555072
-0.4879363820182334,-0.4879363820182334,0.9998311588932219,0.00018890139467043018
-0.4877854774946172,-0.4877854774946172,0.9998817088067151,0.00016866406452737076
-0.4877033259930613,-0.4877033259930613,0.9998849252096701,0.00016770755763796354
-0.4876488138885179,-0.4876488138885179,0.9999384617472213,0.00017992153734002966
-0.487595289775345,-0.487595289775345,0.9998977137654101,0.0001761554457111678
-0.4875178985545062,-0.4875178985545062,0.9999818983237441,0.0001817106070501941
-0.4873614756266761,-0.4873614756266761,0.9997421752923735,0.00018728253412838514
-0.4872455452808936,-0.4872455452808936,1.0000282808535936,0.0001765297830418066
-0.4871756671978801,-0.4871756671978801,0.9998694582287386,0.00017074550443684178
-0.48708839626488043,-0.48708839626488043,1.000105824789649,0.00017314385438519208
-0.486941700657917,-0.486941700657917,1.000132792544135,0.00017243634157984033
-0.4868126731234952,-0.4868126731234952,0.9999062009655709,0.00017256436467779954
-0.48659645158040804,-0.48659645158040804,0.999881976284481,0.0001699496364851417
-0.48646147160907277,-0.48646147160907277,1.0000671066349625,0.00016702127075457528
-0.48635148026805836,-0.48635148026805836,0.9999063993585515,0.00020656400298030313
-0.4862056184283574,-0.4862056184283574,1.0002982921260033,0.00018537571424163084
-0.48615109550155466,-0.48615109550155466,1.000283039292625,0.00018946572292366336
-0.4860458474140614,-0.4860458474140614,1.000049685068218,0.00018655899123794104
-0.485909917671961,-0.485909917671961,1.000098302375435,0.00017938109599944244
-0.4858159204464755,-0.4858159204464755,1.0002912319246748,0.00017443751765219267
-0.48568452026156594,-0.48568452026156594,1.0002426988585165,0.00020031565896063861
-0.4856214908249967,-0.4856214908249967,1.000337813425795,0.00017955720393875187
-0.48557061445026195,-0.48557061445026195,1.000021573016547,0.00016493723807749192
-0.4854939263452252,-0.4854939263452252,0.999803605839223,0.00016975768549499454
-0.48538889507981364,-0.48538889507981364,0.9997592709969343,0.00018742231538734384
-0.48524227579982837,-0.48524227579982837,1.000184439759066,0.0001820428742834956
-0.4850768068972684,-0.4850768068972684,0.9996941465108933,0.00017074111388024844
-0.48491231638836324,-0.48491231638836324,0.9999799518205406,0.0001620948851180922
-0.4847913713165326,-0.4847913713165326,1.0002840807851394,0.00016718013466125617
-0.48468016706610795,-0.48468016706610795,0.9998775895439611,0.00019043106353749167
-0.4845615037433163,-0.4845615037433163,1.0000734193427572,0.00019271244195621432
-0.4844689202480367,-0.4844689202480367,0.9999203509374528,0.00020579295859509474
-0.4843548251017637,-0.4843548251017637,1.0000727512987377,0.0001720903886521359
-0.4842653272215102,-0.4842653272215102,1.000041547373165,0.000166600000453835
-0.48417658691614635,-0.48417658691614635,0.999720817638654,0.00017201377483548643
-0.4840212807088392,-0.4840212807088392,1.0001431569756773,0.00017494550427291235
-0.4839393895294052,-0.4839393895294052,1.0002850254491435,0.00018305237234034205
-0.48384568326655425,-0.48384568326655425,1.0001056395779364,0.00017150056360928876
-0.48372523787475075,-0.48372523787475075,0.999983348381295,0.00016536718878674812
-0.4836195396463154,-0.4836195396463154,0.9998313831630373,0.0001899709756050709
-0.483489892315265,-0.483489892315265,1.0003178739802019,0.00018412451365042742
-0.4834008903308131,-0.4834008903308131,0.9999645206546646,0.00017579332705691778
-0.4833138733025407,-0.4833138733025407,0.9998519980805473,0.00018671261893075678
-0.48317261620395585,-0.48317261620395585,0.999992935810252,0.00018376890628694784
-0.4830853004939854,-0.4830853004939854,0.9998614785819487,0.0001672726304829498
-0.4829567114051315,-0.4829567114051315,0.9999763368483308,0.00018012347998331974
-0.48285382761823714,-0.48285382761823714,0.9999991765622209,0.000172573954666218
-0.482640872036427,-0.482640872036427,0.9998012127641868,0.00017180864294686601
-0.4825382528419141,-0.4825382528419141,1.0002530645984464,0.0001656370462902248
-0.48240104659707866,-0.48240104659707866,1.0000712279154746,0.00019266146868759877
-0.48214163271986765,-0.48214163271986765,0.9996360076908362,0.00020601364181197507
-0.4819902462499158,-0.4819902462499158,0.9997269304242369,0.00017482742889094298
-0.48193131500302117,-0.48193131500302117,0.9999087226299178,0.00016945776883766042
-0.48185716258158207,-0.48185716258158207,0.9999683965524904,0.0001881624235736086
-0.48172459848719884,-0.48172459848719884,1.000102766518466,0.00017934154002527525
-0.48159048474699373,-0.48159048474699373,0.9999907355744572,0.00017750527865958548
-0.48148719662131045,-0.48148719662131045,0.9998485440179969,0.00017161355711458882
-0.48136576043470997,-0.48136576043470997,0.999986877461882,0.0001830295038194512
-0.48123113666297285,-0.48123113666297285,0.9997237816677387,0.00017055098730066746
-0.4811785175515979,-0.4811785175515979,1.0001240036396073,0.00017874641723409997
-0.4810652563079202,-0.4810652563079202,0.9999586694204503,0.0001847284690329089
-0.4809182455959672,-0.4809182455959672,0.9998581720538645,0.0001852702356871584
-0.4807817143184366,-0.4807817143184366,0.9999858897856784,0.00018695186240004876
-0.4806402680769679,-0.4806402680769679,1.0000072841369896,0.00017096311324874168
-0.4804917317575018,-0.4804917317575018,0.9996889038738889,0.00018648124210003252
-0.4803389547538245,-0.4803389547538245,0.9999390735289697,0.00017397802001828521
-0.48027823081138193,-0.48027823081138193,0.9995893109632862,0.00017511701582783066
-0.48018884559569414,-0.48018884559569414,0.9999703495282508,0.00020567986472231926
-0.48009976057801396,-0.48009976057801396,0.9998911718794306,0.00016684842666994196
-0.4800090695738618,-0.4800090695738618,1.000094437351532,0.000168969774027287
-0.4798820380863617,-0.4798820380863617,1.0001376113358524,0.00016926030173415582
-0.47971102121518927,-0.47971102121518927,1.000177097637003,0.00017019816799726864
-0.47961122597262146,-0.47961122597262146,0.9997478692616735,0.00020974197184282575
-0.4795415580105328,-0.4795415580105328,1.0001248135905465,0.00016551461338314572
-0.4794163421691337,-0.4794163421691337,1.000146603162717,0.00018923089175552584
-0.4792550615493383,-0.4792550615493383,0.9998953522705074,0.00017742554569253824
-0.47916802888794335,-0.47916802888794335,0.9999909568038806,0.0001728557741421262
-0.4790814523199515,-0.4790814523199515,0.9997251657693381,0.00019079991763668128
-0.47900789394625465,-0.47900789394625465,0.9997545000602599,0.00016854524342659928
-0.47890476148459127,-0.47890476148459127,1.0000757754560248,0.00016818465340288766
-0.47881462620425735,-0.47881462620425735,1.0001690733531339,0.0001730994093346009
-0.47869327546140994,-0.47869327546140994,0.9998525792278308,0.00016705039038329003
-0.478573590774613,-0.478573590774613,1.0001888166820567,0.000169534406974801
-0.47845959817641415,-0.47845959817641415,1.0002068290469528,0.00017089069968674651
-0.478366121982981,-0.478366121982981,1.0003745595029077,0.00016596321585624126
-0.47825772534197314,-0.47825772534197314,0.9999127099321641,0.00017467582675099433
-0.47806773155534754,-0.47806773155534754,1.0002144636261117,0.0001895965261448991
-0.477908679380198,-0.477908679380198,1.0000394055889603,0.00018077840298617013
-0.47778102098964154,-0.47778102098964154,0.9999670871698596,0.00019471357359083762
-0.47767406645871235,-0.47767406645871235,1.0000045973895149,0.00017976609283823936
-0.4775451145840634,-0.4775451145840634,1.0000416071100884,0.00019283657836353328
-0.47733377785407355,-0.47733377785407355,1.000099847236773,0.00016906816807312793
-0.4772354443084623,-0.4772354443084623,0.9998225601812761,0.00017515264633339718
-0.47709849153397954,-0.47709849153397954,1.0001387331983254,0.00017001009148248867
-0.4769121112374705,-0.4769121112374705,0.9997104047292394,0.00018801844621904576
-0.4767556370890816,-0.4767556370890816,0.9999092276943957,0.0001908371782654589
-0.4766148446484294,-0.4766148446484294,1.0001576983884246,0.00018699005315904894
-0.47644919068552555,-0.47644919068552555,1.0001402690943746,0.00016511120434524354
-0.4762950482981978,-0.4762950482981978,1.0000357126967585,0.00016861580937865218
-0.47612968357279895,-0.47612968357279895,0.9998566153787298,0.00017396783595053698
-0.4760194632981438,-0.4760194632981438,1.0003537911472378,0.00017597040425977503
-0.4759606841238565,-0.4759606841238565,0.9999305204402098,0.0001854955780734453
-0.4758644662986626,-0.4758644662986626,0.9998057615572185,0.0001810254796983019
-0.47581576972515904,-0.47581576972515904,1.0001011955566315,0.0001834744228147422
-0.4757245629421959,-0.4757245629421959,0.9999652752329565,0.00017360308712114698
-0.4756125161802629,-0.4756125161802629,0.9998715754863932,0.00016685978059971144
-0.47541114214473057,-0.47541114214473057,0.9998605573056503,0.0001699889462981624
-0.4752797996625304,-0.4752797996625304,0.9998505482863139,0.00017368322953074982
-0.4751569846084749,-0.4751569846084749,1.0000063089050393,0.00018279548329010677
-0.4750713248809916,-0.4750713248809916,1.0001584056748414,0.00019340481658602769
-0.4749199552468781,-0.4749199552468781,0.9998060760462458,0.0001670444521144311
-0.4748490842051979,-0.4748490842051979,0.9999433034867492,0.00016391290186534762
-0.4747839536546962,-0.4747839536546962,1.0000732159990275,0.0001844620910986554
-0.4747009647828236,-0.4747009647828236,1.0000514559769034,0.00017195816140864686
-0.47460605013620805,-0.47460605013620805,1.0000298963673586,0.0001703471830228847
-0.47452931574371177,-0.47452931574371177,1.0000036805121297,0.00018100923217613903
-0.47439683669726945,-0.47439683669726945,0.9998122297438077,0.00016816729674369135
-0.4743253852553607,-0.4743253852553607,0.9998007299091143,0.0001730508246540032
-0.47425092963967475,-0.47425092963967475,1.0000373382385512,0.000169974978239127
-0.4741578297696833,-0.4741578297696833,1.0002283162527859,0.000183143508157801
-0.47404532742875743,-0.47404532742875743,0.999791147513522,0.00019970954229654698
-0.47388267144560814,-0.47388267144560814,0.9999149591702807,0.00018697960782830523
-0.4737817283217737,-0.4737817283217737,1.0001786041992589,0.00018208208603471762
-0.4736873879999621,-0.4736873879999621,0.9999193960068562,0.00016671166897972995
-0.4735860863002017,-0.4735860863002017,0.999955066238581,0.0001864277117253495
-0.4735136341500038,-0.4735136341500038,0.9998394326240794,0.00019393165532689304
-0.47341136678078327,-0.47341136678078327,1.000194786882669,0.0001712672563421391
-0.4732735046403832,-0.4732735046403832,0.9999534210962965,0.00018765548166324025
-0.4731340337581059,-0.4731340337581059,1.0001895784071835,0.00016942217103520907
-0.47306669975660043,-0.47306669975660043,0.9999788380981917,0.0001751455778182109
-0.4729755879729055,-0.4729755879729055,0.9999698889990534,0.00017143166653487617
-0.47287869195570237,-0.47287869195570237,0.9998493265577985,0.00016570187221562793
-0.4726860615919577,-0.4726860615919577,1.0000090045799754,0.0002045827464048742
-0.47256844849762275,-0.47256844849762275,0.9999521592222628,0.00019236580042253446
-0.4724221871394548,-0.4724221871394548,0.9999557550595165,0.00018830949743082177
-0.47227158170353506,-0.47227158170353506,1.0001048128631762,0.00018511835020696484
-0.4720405022824707,-0.4720405022824707,1.0002113837055338,0.00017090156428761137
