time,time,flux,flux_err
-0.4998370575770726,-0.4998370575770726,1.000166354396983,0.0002888762399084789
-0.4996183861591514,-0.4996183861591514,0.9996673289548804,0.00023821866379222762
-0.49936860033570457,-0.49936860033570457,1.0000402798367989,0.00028340605328433435
-0.49920829319526094,-0.49920829319526094,1.0000886690114879,0.00027251725031572513
-0.49909855503137807,-0.49909855503137807,1.0000822922438182,0.00027211787592634876
-0.49900669189810287,-0.49900669189810287,1.0002828020977952,0.00023101828298627722
-0.49892263915317014,-0.49892263915317014,1.0002532667019424,0.0002622522935948903
-0.4988103982657776,-0.4988103982657776,0.9997417978563311,0.00023691548847476533
-0.49865823808941057,-0.49865823808941057,1.0000267194109849,0.00024770611938549367
-0.49863024799487904,-0.49863024799487904,1.0000164545714987,0.0002271075036066221
-0.4984150034710183,-0.4984150034710183,1.0001175381819642,0.00026689860047824043
-0.4982249044929631,-0.4982249044929631,0.9997572576927004,0.00026754492848421517
-0.4980709963478148,-0.4980709963478148,1.0001451119471523,0.0002179045763368304
-0.49786912864001354,-0.49786912864001354,0.9998583093782882,0.000212837029807592
-0.49771389635789093,-0.49771389635789093,0.9998849828879057,0.00022017444636129613
-0.49754783124808455,-0.49754783124808455,1.0002951512283191,0.0002574140157781767
-0.49743530881169135,-0.49743530881169135,0.9995791540599364,0.00023343659452073376
-0.4973804771187133,-0.4973804771187133,0.9998624868362803,0.00024840082319682984
-0.4972736764706497,-0.4972736764706497,1.000230470777159,0.00022122673710161267
-0.4971152601821814,-0.4971152601821814,0.9996862060487558,0.0002356823174596491
-0.49703640620937223,-0.49703640620937223,1.0000088826765734,0.0002509703605027846
-0.4969313896552194,-0.4969313896552194,1.0004129169617884,0.00027329706574353836
-0.4967973845872621,-0.4967973845872621,1.0001759337005,0.0002464924529699276
-0.49664798136800525,-0.49664798136800525,0.9999166541195411,0.00023998051706937857
-0.49656651750992753,-0.49656651750992753,0.999751592163495,0.0002676050900952986
-0.4963216482901771,-0.4963216482901771,0.999947250662305,0.00024234671319747956
-0.4960153949592495,-0.4960153949592495,1.0000580896148272,0.0002673817875120353
-0.49564356259579656,-0.49564356259579656,1.000084044266329,0.00024728611798916183
-0.49551256656704934,-0.49551256656704934,1.0000203698576793,0.00023094485642579033
-0.4954787605267484,-0.4954787605267484,0.9995737928519717,0.0002421108208103807
-0.4953876797117118,-0.4953876797117118,1.0001793840744706,0.00026957996125390237
-0.4951481190837512,-0.4951481190837512,0.9997618649787947,0.0002621195041562097
-0.4950232474162476,-0.4950232474162476,1.0000035580240618,0.000261903551148409
-0.4949007575341966,-0.4949007575341966,1.0002143599710065,0.0002176200622976665
-0.4947612426112755,-0.4947612426112755,1.0003538038592075,0.00023718171692440295
-0.49462263983878074,-0.49462263983878074,1.000048134054338,0.0002703211518735102
-0.4944361554174975,-0.4944361554174975,1.0002235635690115,0.0002412998705869797
-0.49420834655611545,-0.49420834655611545,0.9999531580326005,0.00023994192606882907
-0.4940401712578023,-0.4940401712578023,1.0000182003581046,0.00027039575137047294
-0.4938153935312585,-0.4938153935312585,1.0002058840533254,0.0002642692349377895
-0.4937040547731158,-0.4937040547731158,1.00020620328737,0.0002663238937102849
-0.4935411564569222,-0.4935411564569222,1.0001588736518356,0.00023999365684835157
-0.49341958334553054,-0.49341958334553054,1.0000986618244871,0.00022013129095129475
-0.49329073413828156,-0.49329073413828156,1.000127493718486,0.00023210963052016742
-0.49314873926632574,-0.49314873926632574,1.0000389517806874,0.00024644542939088686
-0.4929934189334745,-0.4929934189334745,1.0001676705504177,0.00022409283064790298
-0.4929341450857464,-0.4929341450857464,1.000016951810288,0.00022976533451663636
-0.4928456732573977,-0.4928456732573977,0.9999029878376785,0.0002365157426394156
-0.4926174875879951,-0.4926174875879951,0.9999998619818775,0.0002416750617761507
-0.4924350784473063,-0.4924350784473063,1.0000078438964288,0.000244146371418684
-0.4922134433953033,-0.4922134433953033,0.9999205512738939,0.000258572527615138
-0.4919605032868276,-0.4919605032868276,0.9999543420623741,0.00024469186980293005
-0.49179206779008383,-0.49179206779008383,0.9998329856203657,0.00025640114906797505
-0.49171022880545934,-0.49171022880545934,0.9999473158260095,0.00024724686465609755
-0.49164230489186594,-0.49164230489186594,1.000100326406557,0.00023698801585734825
-0.49157475437386894,-0.49157475437386894,1.0002613034453378,0.0002219365907596503
-0.4914290648222959,-0.4914290648222959,0.9998388544880286,0.00022084120521147988
-0.4913402909245633,-0.4913402909245633,1.0000736163153978,0.0002313042883608144
-0.4912948074103042,-0.4912948074103042,0.9997750056844763,0.00023225971196328717
-0.49117937832997993,-0.49117937832997993,0.9998992397783756,0.0002241995325786053
-0.49105155693832786,-0.49105155693832786,0.9999374485473407,0.0002532156976653857
-0.49095394205869525,-0.49095394205869525,1.0000394825899455,0.00022321988293693638
-0.49077305191822235,-0.49077305191822235,0.9998338028726389,0.0002410068126282487
-0.4906047624164785,-0.4906047624164785,0.9997294668136355,0.0002751863908356315
-0.490364142654289,-0.490364142654289,0.9999446472957823,0.00027184257277443254
-0.4901900266500888,-0.4901900266500888,1.000019896666127,0.00021610485019627748
-0.48998263849207435,-0.48998263849207435,0.9999750285397603,0.0002457662498907785
-0.4898389820336888,-0.4898389820336888,1.00010978869216,0.0002344662156813948
-0.4896932295319857,-0.4896932295319857,1.0001512740104526,0.0002928840984347608
-0.48951526709061,-0.48951526709061,0.9996267999369731,0.0002497463088403126
-0.4894370952824829,-0.4894370952824829,1.0003394107305357,0.00025398524227469307
-0.48933935922395905,-0.48933935922395905,1.000075509826391,0.00028218522582138374
-0.4891650232239044,-0.4891650232239044,1.000385759463629,0.0002505207726241752
-0.4891129635987454,-0.4891129635987454,0.999931695718973,0.00022732311911622733
-0.48898619724132003,-0.48898619724132003,0.9998710464501389,0.0002468379995608161
-0.4887944971545949,-0.4887944971545949,1.0000543350398765,0.00029134442130315764
-0.48863074457185574,-0.48863074457185574,1.000174265137681,0.00022009112284071937
-0.4884654938563472,-0.4884654938563472,0.99963796758202,0.00024022721375641527
-0.48826666154054693,-0.48826666154054693,0.9997426143117295,0.000216075000645509
-0.4880870828310435,-0.4880870828310435,1.000065147235326,0.00025293493185157595
-0.4879499188624322,-0.4879499188624322,1.0002059443784177,0.00021856297173118198
-0.4878691973783134,-0.4878691973783134,0.9997171122156944,0.00025466660177052454
-0.48777532880558283,-0.48777532880558283,1.0000118227256476,0.00021823256745538236
-0.4876598260452738,-0.4876598260452738,0.9999456011989066,0.00022950583264273465
-0.4875611350289546,-0.4875611350289546,0.9999759794002682,0.00024916307013731295
-0.48747464701300486,-0.48747464701300486,1.0001787953257775,0.00022602237045325828
-0.48735014594640236,-0.48735014594640236,0.9999766541186638,0.0002695375564471833
-0.48720097836776405,-0.48720097836776405,1.0000513355241842,0.0002222599583955676
-0.48711951736113407,-0.48711951736113407,1.0001226642687129,0.0002674936451951673
-0.486988993173145,-0.486988993173145,1.0000316246422722,0.00024117636136310254
-0.48679453448712595,-0.48679453448712595,1.0001645988081347,0.0002649541935920537
-0.48640320460981457,-0.48640320460981457,0.9999418972375285,0.000267263322714369
-0.4860704077902483,-0.4860704077902483,0.9997877782487704,0.00021812159019927736
-0.48597361343272494,-0.48597361343272494,1.0002815970498098,0.00026679357871900575
-0.4859423797337513,-0.4859423797337513,0.9997720715280612,0.0002593186090641638
-0.48575644093216397,-0.48575644093216397,1.0000189294731472,0.00024596115854791487
-0.4855873517277359,-0.4855873517277359,1.0002288838762439,0.0002558723466960852
-0.4854579907099833,-0.4854579907099833,1.0000506459555272,0.00024048712714653994
-0.48529351199249504,-0.48529351199249504,1.000011507645676,0.00026391329581087466
-0.485094459294487,-0.485094459294487,1.0000240497324424,0.00024419817257846866
-0.4849487731262343,-0.4849487731262343,1.0001538632888294,0.00024264967324545513
-0.48474397041427436,-0.48474397041427436,1.0001609560553804,0.00026714150682632324
-0.48458377879942416,-0.48458377879942416,0.9997835837453346,0.00026472449746051065
-0.4844079626287566,-0.4844079626287566,1.0001447513350157,0.00027196031291394483
-0.484237881644367,-0.484237881644367,1.0001633776903822,0.0002709170392171116
-0.4840984169080912,-0.4840984169080912,0.9995408019115818,0.00021957284119936065
-0.4839938256242021,-0.4839938256242021,0.9997392040714796,0.0002877465024667727
-0.48385897376429055,-0.48385897376429055,0.9996181065905262,0.00022417518891885234
-0.4837369089393178,-0.4837369089393178,0.9999793155229485,0.0002489545555876187
-0.48364403781015425,-0.48364403781015425,0.9999000168516835,0.00022074806494261768
-0.4834893584040401,-0.4834893584040401,0.9997306535750115,0.00022337377696575613
-0.4834381338354433,-0.4834381338354433,0.9999630664037866,0.0002191226799085208
-0.4833924891652714,-0.4833924891652714,0.9994965934947672,0.000246184131314767
-0.48332986194145633,-0.48332986194145633,0.9998405822823238,0.0002646903062657264
-0.48310414290972403,-0.48310414290972403,0.9998753284828187,0.00021586968691481343
-0.48290074034594,-0.48290074034594,1.0001849385227048,0.00026050753970358845
-0.4826418437951361,-0.4826418437951361,1.0000262176453514,0.0002592037798916762
-0.4824682606355054,-0.4824682606355054,1.0002408729629344,0.00024476875055573147
-0.48227679271221857,-0.48227679271221857,0.9998612844196236,0.00024523781121334957
-0.4821878116650623,-0.4821878116650623,0.99984828962237,0.00023292930223952298
-0.4821208093642781,-0.4821208093642781,1.0002947691231694,0.00023558646764210698
-0.48200854091192014,-0.48200854091192014,1.000029494344436,0.00022070412843073033
-0.4818827260627586,-0.4818827260627586,1.0003628409957077,0.0002280239084465614
-0.48182991667999886,-0.48182991667999886,0.9999274664104512,0.0002331388235872494
-0.4817525753904192,-0.4817525753904192,1.0000886423978155,0.00023369805471901202
-0.4816140610091679,-0.4816140610091679,1.000139367037524,0.00022438633787101153
-0.48153150346624896,-0.48153150346624896,1.0002267361677162,0.00022685210416902574
-0.48140785824216437,-0.48140785824216437,1.0001515336839808,0.0002196135536229287
-0.4812095284461975,-0.4812095284461975,0.9999925354083873,0.00023912283950161995
-0.4808319041861978,-0.4808319041861978,1.0000413613285688,0.0002677522112113507
-0.4806017141272605,-0.4806017141272605,0.9999932639020507,0.00021898012188399573
-0.4804604991935776,-0.4804604991935776,0.9998496904120975,0.0002444847823169293
-0.48031879033514996,-0.48031879033514996,0.9995221803831669,0.00024404542803272106
-0.4802328066078189,-0.4802328066078189,1.000958143570188,0.00022906260847322754
-0.4800589332706295,-0.4800589332706295,1.0002059032759383,0.0002914978756319057
-0.4799460953392554,-0.4799460953392554,1.0000530051675276,0.00023308907999392502
-0.4798856993955269,-0.4798856993955269,1.0000634744393202,0.00025733745480717256
-0.47975032361937336,-0.47975032361937336,0.9999879955662155,0.00027194751754843394
-0.47963248933665453,-0.47963248933665453,1.0003889481370003,0.00024279882234957964
-0.47951582968016737,-0.47951582968016737,1.0000899945711268,0.0002212108984567239
-0.47937529024784453,-0.47937529024784453,1.0000621005657877,0.00026546567831622735
-0.47923745012885777,-0.47923745012885777,1.000254481616673,0.00025117126164692923
-0.47906085102440554,-0.47906085102440554,0.9999628734841728,0.00023687767849673794
-0.47883972229319627,-0.47883972229319627,1.0000146033629043,0.00021700491002462136
-0.4786685276063508,-0.4786685276063508,0.9998944363003537,0.0002201419643259158
-0.4785270542626677,-0.4785270542626677,1.0000243728975924,0.0002472535328311799
-0.47837078500015195,-0.47837078500015195,0.9999254062482873,0.0002325993645162221
-0.47824728686900925,-0.47824728686900925,1.000165318626482,0.00022130030109503208
-0.47811810903585866,-0.47811810903585866,0.9997782448133037,0.0002547438778639455
-0.4780493550715619,-0.4780493550715619,1.0000258553253611,0.00023293984782858326
-0.4779788860512781,-0.4779788860512781,1.000332036548934,0.00022744292528204863
-0.4777920865359192,-0.4777920865359192,1.0000678049162899,0.00026847695413379245
-0.4776723542207037,-0.4776723542207037,1.0000832459196072,0.00025206084312830607
-0.47754919474828056,-0.47754919474828056,1.0001595042678861,0.0002567202286069616
-0.4774092303821817,-0.4774092303821817,0.9998426036530065,0.0002654967102975009
-0.47726450029585976,-0.47726450029585976,0.9997356271191441,0.00024339150007458127
-0.477028289197915,-0.477028289197915,1.00012699417472,0.00023536121053139046
-0.4768587464008306,-0.4768587464008306,1.0000235643336626,0.00027530410316605836
-0.47661872551034323,-0.47661872551034323,0.9996579139973705,0.0002473416459419975
-0.47648274293605936,-0.47648274293605936,0.999752474548757,0.00022650015382719952
-0.4764391552002053,-0.4764391552002053,1.0002440968617319,0.0002672988314007428
-0.47633766159196966,-0.47633766159196966,1.0004010612421084,0.00021817782024439593
-0.47614632378172245,-0.47614632378172245,0.9999776098975897,0.00026846525169645216
-0.47607885466568406,-0.47607885466568406,0.9998177011812255,0.0002366964230914067
-0.4759400522125361,-0.4759400522125361,1.000456265426479,0.00026440240080891504
-0.4757912937697256,-0.4757912937697256,1.0003219401693133,0.0002925236855963506
-0.4756668707763311,-0.4756668707763311,1.0001338938922697,0.0002120282001596063
-0.4755204174311075,-0.4755204174311075,1.000305655318413,0.00027387305215369895
-0.47529802487624695,-0.47529802487624695,0.9997356983736635,0.00024201943381371182
-0.4751031978616084,-0.4751031978616084,1.0001312684899217,0.0002646907364506533
-0.4749316059969715,-0.4749316059969715,1.0000482022625945,0.0002698924868717503
-0.4747614971762232,-0.4747614971762232,0.9998833473444917,0.0002510145803436497
-0.47462330911148454,-0.47462330911148454,1.0000633680142703,0.00026402858077038103
-0.474442924271716,-0.474442924271716,1.0002099431625537,0.00023974293086137638
-0.47431464409673935,-0.47431464409673935,0.999956394621002,0.00022211948701865357
-0.47422242920292773,-0.47422242920292773,1.0003167428440143,0.00023949407401008526
-0.47409854782090405,-0.47409854782090405,1.000346473569006,0.00021462357341209558
-0.4739616955987003,-0.4739616955987003,0.9998049944425407,0.0002231097644948054
-0.4739302462090563,-0.4739302462090563,0.9997929498556086,0.00024303457634739764
-0.47387367927003654,-0.47387367927003654,0.9996700981561002,0.000231378332914337
-0.47377772059480777,-0.47377772059480777,1.0002645161762058,0.0002444314959565199
-0.4735393250972265,-0.4735393250972265,1.0001358438089816,0.0002414989163056933
-0.47329215904173905,-0.47329215904173905,0.9994749404538998,0.00026186262087667854
-0.4730771677903249,-0.4730771677903249,1.0001706668388413,0.00023734886087188435
-0.4729765268348274,-0.4729765268348274,1.0001450743252822,0.00024181519574676677
-0.4727312068127503,-0.4727312068127503,1.000065678415154,0.0002469909453323853
-0.47265011357012554,-0.47265011357012554,1.000189272514206,0.00023414876461322456
-0.4726111423042312,-0.4726111423042312,1.0003441692729185,0.0002251658976652736
-0.4725015451746003,-0.4725015451746003,0.9998877100567208,0.0002316138695114778
-0.47236748045688726,-0.47236748045688726,1.0002305569393077,0.0002244200146094289
-0.472279623508075,-0.472279623508075,1.0000526703327766,0.0002330778776789172
-0.4722021503286669,-0.4722021503286669,1.0002041475882415,0.0002179526221948387
-0.47206030773959357,-0.47206030773959357,0.9995402129467417,0.0002334084261990088
-0.4719916531437775,-0.4719916531437775,1.0000993717219215,0.00023192968150804652
-0.47186090696050087,-0.47186090696050087,1.0002580578115245,0.0002113020222861065
-0.47167128836663325,-0.47167128836663325,1.000060853011028,0.00020952098707548806
-0.47135623869180565,-0.47135623869180565,1.0001681129661528,0.00027002951661919195
-0.47112651647621534,-0.47112651647621534,1.0001887945124717,0.00022056058917453649
-0.4710004022461362,-0.4710004022461362,0.999901877597193,0.0002454949942019307
-0.4708003730025666,-0.4708003730025666,1.0002250308569307,0.00024425357964243273
-0.47072765586708554,-0.47072765586708554,1.0000051054103407,0.0002622225833942904
-0.47059880276428884,-0.47059880276428884,1.0002171261157398,0.0002423355564740408
-0.4704891998844687,-0.4704891998844687,1.0001114069253514,0.0002796884679243905
-0.47040713186070204,-0.47040713186070204,0.9998186950341197,0.0002693896916459198
-0.47031304338452173,-0.47031304338452173,1.000091285155068,0.00024547825457849726
-0.47022481096792035,-0.47022481096792035,1.0000880096644553,0.000246464308435726
-0.470122285601974,-0.470122285601974,0.9998667340880292,0.00023883727436458782
-0.4700177278813499,-0.4700177278813499,1.0000660889170319,0.0002186292239936373
-0.46989761712102335,-0.46989761712102335,0.9999818860175974,0.0002686301574833975
-0.46970068854643615,-0.46970068854643615,1.0001204833496227,0.00021839923113595844
-0.4694726599307614,-0.4694726599307614,0.9999003355511249,0.00024003810034931272
-0.46928050665010235,-0.46928050665010235,1.0000910274932362,0.00021663521777713597
-0.4691274873810471,-0.4691274873810471,0.9998030692279783,0.000246139637058164
-0.4690362144036044,-0.4690362144036044,0.9997346261871934,0.00021539695570814803
-0.46888550932198997,-0.46888550932198997,0.9997929199509514,0.000230313062751138
-0.4687880353660148,-0.4687880353660148,0.9996724035721657,0.000255349024244337
-0.46866949155082693,-0.46866949155082693,1.0004199399705038,0.0002444756897934788
-0.46855621736103786,-0.46855621736103786,1.0001002716904737,0.0002342803200469382
-0.46848737962936865,-0.46848737962936865,1.0000855348117175,0.0002562953717387989
-0.46839882434505853,-0.46839882434505853,1.0000777822569051,0.0002518489397212352
-0.4681901511670731,-0.4681901511670731,1.0000979940607135,0.00025209093025389215
-0.46805691138361,-0.46805691138361,0.9998005156209766,0.00027468239297454423
-0.46796178561635315,-0.46796178561635315,0.9997578310547844,0.0002405903866885206
-0.46781684489833425,-0.46781684489833425,1.0001002852800625,0.00027573561525251526
-0.4675607126329851,-0.4675607126329851,0.9999670417064339,0.00024168017403533552
-0.46735850979021054,-0.46735850979021054,0.9998364252824432,0.0002961067590066484
-0.46711800613848026,-0.46711800613848026,0.9997977194824402,0.00024423222283805393
-0.46695505562747713,-0.46695505562747713,0.999895589959914,0.00024723288418180325
-0.4669035990787961,-0.4669035990787961,1.0000762592946388,0.00024194732639074387
-0.4667137997545069,-0.4667137997545069,1.000083055578792,0.0002489597795573841
-0.4666164115675201,-0.4666164115675201,1.0000210592017769,0.00025290563203838755
-0.4665600609507237,-0.4665600609507237,1.000236704903243,0.00026079294316175126
-0.46647288773965556,-0.46647288773965556,0.9998830398017852,0.00022642434589699364
-0.46634724109462694,-0.46634724109462694,0.9998474745478447,0.0002886688036021903
-0.46625355448268235,-0.46625355448268235,1.0001931888267896,0.0002472214376242178
-0.46610860468717874,-0.46610860468717874,1.0002498981604417,0.00024241128926748805
-0.46594668295510927,-0.46594668295510927,1.000375271861023,0.0002703385528323295
-0.465743663887406,-0.465743663887406,0.9999309777309691,0.0002453486452017603
-0.46555881071762995,-0.46555881071762995,1.0001134103129976,0.0002415049705970404
-0.4653911290537508,-0.4653911290537508,1.0001594119125616,0.00026379873331760226
-0.46525779345829504,-0.46525779345829504,1.0002768761663927,0.00025713374586166805
-0.46510416784512926,-0.46510416784512926,0.9998858256831639,0.0002839211177164513
-0.46492317556549095,-0.46492317556549095,0.9999758052242547,0.00024578855967662117
