time,time,flux,flux_err
-0.4999531345147261,-0.4999531345147261,0.9999887763098468,0.00011688715584268307
-0.49984904032377625,-0.49984904032377625,0.999990912533423,0.00011489438533386005
-0.49974223285753394,-0.49974223285753394,0.9999935704626723,0.0001007318458296407
-0.49963934097177115,-0.49963934097177115,1.0000633260403837,0.00010291151991908141
-0.4995362384397595,-0.4995362384397595,0.9999263197447107,0.00010214836009074762
-0.4994700068134989,-0.4994700068134989,1.0001228348606646,0.00010182527335072213
-0.4993622213740309,-0.4993622213740309,0.9998901513778659,0.00010014527423944041
-0.4992315194518596,-0.4992315194518596,1.000015368273021,0.0001022982745926483
-0.4991202583310951,-0.4991202583310951,0.9999804725627672,0.00010094340197631267
-0.4989504618708452,-0.4989504618708452,1.0000695727588123,0.00010501227461497127
-0.49881603818794246,-0.49881603818794246,0.999953981884911,0.00010373568284214703
-0.49866193652705987,-0.49866193652705987,0.9999534189417851,0.00010076745268497642
-0.49848002271610314,-0.49848002271610314,1.0000166054322992,0.00010381331922348536
-0.49835255202415285,-0.49835255202415285,0.9999718441404879,0.00010329800352339607
-0.4982613411950297,-0.4982613411950297,0.9998910236633133,0.00010208715617848624
-0.4981121304350381,-0.4981121304350381,0.9999815397493512,0.00010487313190993105
-0.498011564839544,-0.498011564839544,0.999984672710951,0.0001046258688464203
-0.4979518937143439,-0.4979518937143439,0.9999268558800939,0.0001037102934763532
-0.49789040610558005,-0.49789040610558005,0.9998666846006683,0.00010460189941300826
-0.49781109216419284,-0.49781109216419284,1.000032526448206,0.00010185207238610504
-0.497558516128629,-0.497558516128629,0.9999336390205025,0.00010106563917316243
-0.49744266649868224,-0.49744266649868224,0.9999777519728779,0.00010259417648026069
-0.4973422729904996,-0.4973422729904996,0.9999637373845698,0.00010138540041381889
-0.49727306146669437,-0.49727306146669437,0.9999234024723116,0.00010137326135693155
-0.49714432260807373,-0.49714432260807373,0.9999145135693993,9.927617720918337e-05
-0.49701270017103527,-0.49701270017103527,1.0000139083857913,0.00010211395990939458
-0.49682977635384307,-0.49682977635384307,1.0000418898674313,9.964469802677288e-05
-0.49668475184735145,-0.49668475184735145,1.000201067314314,0.00010279583538008673
-0.49652272904568234,-0.49652272904568234,1.0000219242861534,0.00010395373223405342
-0.49636193665646716,-0.49636193665646716,1.0000592232969474,0.00010272112713781889
-0.4962694984220434,-0.4962694984220434,0.9999924078620696,0.00010123419362902182
-0.49616644554917,-0.49616644554917,0.9999245796662768,0.00010316966746187618
-0.4961028590943897,-0.4961028590943897,1.0001786672105286,0.00010650186130417199
-0.49600153044520995,-0.49600153044520995,1.0001729408414168,0.00010472958758878245
-0.4959368308489502,-0.4959368308489502,0.9999724466290857,0.00010140370129950593
-0.4958054421178531,-0.4958054421178531,1.0000045808390687,0.00010323328887771495
-0.4956859255747986,-0.4956859255747986,1.000096825095788,0.00010804221745322759
-0.49556786563043714,-0.49556786563043714,1.0000408790302193,0.00010055781239259316
-0.49544399675069145,-0.49544399675069145,1.000000007597827,0.00010161221973058159
-0.49535394944759903,-0.49535394944759903,0.9999829708939929,0.00010244888061669479
-0.4952759190906363,-0.4952759190906363,1.000038088084511,0.00010296669730195086
-0.4951904007102712,-0.4951904007102712,1.0000174170394724,0.0001012835009807552
-0.49511559225938984,-0.49511559225938984,1.0000424445777747,0.00010010771980339465
-0.4949864226109639,-0.4949864226109639,0.999890382808003,9.889943713504205e-05
-0.49483806790958623,-0.49483806790958623,0.9999797463660339,0.00010326333499631323
-0.4947520491987234,-0.4947520491987234,1.0000856641782636,9.858649462607809e-05
-0.49458006075146843,-0.49458006075146843,1.000130784556696,0.00010107564351149556
-0.4944184542822768,-0.4944184542822768,1.0001970076051228,0.00010378375712482492
-0.49426409306688585,-0.49426409306688585,0.9999629959658911,0.00010664303611129409
-0.4941778837637685,-0.4941778837637685,0.9999883954582881,0.0001038067193598857
-0.49410084927003484,-0.49410084927003484,0.9998437752060557,0.00010222740181031725
-0.4940151022543432,-0.4940151022543432,1.0001523000884756,0.00010263618814564977
-0.4939367380538897,-0.4939367380538897,1.0001637380320223,0.00010859675226001361
-0.4938410777649551,-0.4938410777649551,0.9998035090901135,0.00010069675482687207
-0.4937243432301329,-0.4937243432301329,0.9999731609073133,0.00010052624592688921
-0.4936479873395001,-0.4936479873395001,0.9999388529984129,0.00010211681049843013
-0.49350899954297345,-0.49350899954297345,1.00010360381251,0.00010169951824763905
-0.49341205771270324,-0.49341205771270324,1.0000742115153947,0.00010506984044731326
-0.4933308362371463,-0.4933308362371463,0.9999239620370464,0.00010130178916641896
-0.49324606411537386,-0.49324606411537386,1.000128686548395,9.933136562204761e-05
-0.49317992796204635,-0.49317992796204635,0.9999437278074333,9.929330588883973e-05
-0.493089105735271,-0.493089105735271,0.9998242889606834,0.00010485127903788502
-0.4929808738605061,-0.4929808738605061,1.000074257519311,0.00010130397855867305
-0.4928507440818066,-0.4928507440818066,0.999955814728969,0.00010271041262225715
-0.49264375983620995,-0.49264375983620995,0.9999166431228834,0.00010032519883920346
-0.4924672006745823,-0.4924672006745823,1.0001360688426506,0.00010575587062173788
-0.4923383035551524,-0.4923383035551524,0.999762710161534,0.00010402826379102582
-0.49224028549506327,-0.49224028549506327,1.0000746853912597,0.00010240059869447949
-0.49214532286277973,-0.49214532286277973,1.0000767553526688,0.00010400115666269922
-0.492033603683376,-0.492033603683376,0.9997718297306069,0.00010371655633481706
-0.4919101307074015,-0.4919101307074015,0.9997535235677697,0.00010195970487989559
-0.4918138536500919,-0.4918138536500919,1.0001407077558835,0.00010166291872724714
-0.49172769491633517,-0.49172769491633517,1.000114663836721,0.0001006560700595925
-0.49159339840334726,-0.49159339840334726,0.9998824656419762,0.00010180029992926432
-0.49149170636956113,-0.49149170636956113,1.000034668409136,0.0001008667441383047
-0.49143460421764756,-0.49143460421764756,1.0000882224325103,0.00011048764161816341
-0.4913047836635087,-0.4913047836635087,0.9998642708076921,0.00010188642298060736
-0.4911569566211256,-0.4911569566211256,1.0000195348507064,0.00010459423720021136
-0.4909634346819075,-0.4909634346819075,0.9999837718136677,0.00010334486699207987
-0.49083157604036387,-0.49083157604036387,0.9999135262955745,0.00010366893471327793
-0.4907121366588399,-0.4907121366588399,0.9999578862753437,0.00010316996669412322
-0.4906437131408893,-0.4906437131408893,1.000010418572738,0.00010089784528127116
-0.490538473961351,-0.490538473961351,1.0001034494927026,0.00010348345331867974
-0.49041718949374624,-0.49041718949374624,0.9999404056778728,0.00010225925050852015
-0.49033110288073656,-0.49033110288073656,0.9997933037102932,0.00010534144378492013
-0.4902843002542795,-0.4902843002542795,0.9999900912016859,0.00010389261000511027
-0.49021854332168,-0.49021854332168,1.0000004423841695,0.00010488917770654909
-0.4899946830497356,-0.4899946830497356,0.9999117867856174,0.00010153523228784019
-0.4898592862387886,-0.4898592862387886,1.0000092900012987,0.00010198830070418734
-0.4897768717208237,-0.4897768717208237,1.0000630631495018,9.946504000916975e-05
-0.48967473039156173,-0.48967473039156173,0.9999903480874991,0.00010237362429431159
-0.4895349563470518,-0.4895349563470518,1.0000233185032397,0.0001005218690420685
-0.48942258578608744,-0.48942258578608744,1.0000332174521847,0.00010201887012341329
-0.4892865497087769,-0.4892865497087769,0.9998617204453997,0.00010298205931338318
-0.48908083621790865,-0.48908083621790865,1.000031748007498,0.00010415885085295503
-0.4889705314548337,-0.4889705314548337,0.9999055034407203,0.00010237308847918344
-0.4888020960373979,-0.4888020960373979,0.9999275995346684,0.00010181675180066463
-0.4886402587137127,-0.4886402587137127,0.9999697299208622,0.00010381904168775614
-0.4885093838573084,-0.4885093838573084,0.9999785054278041,0.00010544347755769509
-0.48844818328143447,-0.48844818328143447,0.9999583094300762,0.00010312297310008348
-0.48835408013983395,-0.48835408013983395,0.9999781669533366,0.00010486824162960337
-0.48824408008658793,-0.48824408008658793,1.0000258929539452,0.0001012859327426502
-0.4881313084522844,-0.4881313084522844,1.0000618720658867,0.00010285606387655684
-0.487993066485069,-0.487993066485069,0.9999666929139398,0.00010675520588343333
-0.48781506975137745,-0.48781506975137745,1.0000876380849881,0.00010233491168511478
-0.48769485473676466,-0.48769485473676466,0.9999603592252646,9.91648417539788e-05
-0.4876273896850762,-0.4876273896850762,0.9997683741985393,0.0001026072343604835
-0.48754304834583306,-0.48754304834583306,1.0000915394983976,9.876985146698926e-05
-0.4875057637334976,-0.4875057637334976,1.0001821348322235,0.00010364789255822211
-0.4873673948881333,-0.4873673948881333,0.9999649648529945,0.00010044128603580298
-0.4871523811430961,-0.4871523811430961,1.0000325995190837,0.00010141467305681451
-0.4870398553342966,-0.4870398553342966,0.9998799215946301,0.0001014580925277681
-0.4867396584042581,-0.4867396584042581,1.000100517613201,0.00010536321922099216
-0.4865935261215782,-0.4865935261215782,1.0001035254180892,0.00010503555779779211
-0.48651898531607,-0.48651898531607,1.0000322366462109,0.00010391090988064336
-0.48639208894092006,-0.48639208894092006,1.0001672568012756,0.00010358275506913428
-0.4862934034041245,-0.4862934034041245,1.0001803768665654,0.00010411797613196873
-0.4862369253365614,-0.4862369253365614,1.0001021009540865,0.00010283620901169744
-0.4861314206827956,-0.4861314206827956,0.9999910299353664,0.00010092346350170946
-0.4860229285841342,-0.4860229285841342,1.0001097732147906,0.00010262972689330309
-0.4859481474901258,-0.4859481474901258,1.0000439525584333,9.930999658979561e-05
-0.48584047873009695,-0.48584047873009695,1.0002166453398167,0.0001022526300308011
-0.48575339278322643,-0.48575339278322643,1.0000459617419986,0.00010300571390879428
-0.4856555290898541,-0.4856555290898541,0.9999929766943352,0.00010240796486780852
-0.48554400034918216,-0.48554400034918216,0.9999450918948998,0.00010050438344535973
-0.4853842440847075,-0.4853842440847075,0.9997460533112188,0.00010087066729477449
-0.4852766238960612,-0.4852766238960612,0.9998452975208366,0.00010394979158553691
-0.48508113481875625,-0.48508113481875625,1.0001185216357913,0.00010106296845960421
-0.48490891643668876,-0.48490891643668876,1.0000272348223074,0.00010269841159045193
-0.48477144582793696,-0.48477144582793696,1.0000366868469734,0.00010434140249380078
-0.48465341145929414,-0.48465341145929414,0.9999747294659047,0.00010350690798860784
-0.48457688942944516,-0.48457688942944516,0.999890283812995,0.00010333200192039663
-0.48446243329235583,-0.48446243329235583,0.9999547996158004,0.00010070080193600163
-0.4843503837873868,-0.4843503837873868,0.999857801594574,0.00010487436778533945
-0.4841630553099094,-0.4841630553099094,1.0000978439618051,0.00010372407984502367
-0.48409730567000225,-0.48409730567000225,1.0001080989430395,0.00010059387316546711
-0.48399339499592314,-0.48399339499592314,0.9999887304302064,0.00010195290660964737
-0.48383914268852096,-0.48383914268852096,0.9998388596062366,0.00010270900734245803
-0.4837751824365114,-0.4837751824365114,1.0001758246260746,9.806774221824629e-05
-0.4835877970857837,-0.4835877970857837,0.9999724036239558,0.00010173686369385914
-0.4834372161036299,-0.4834372161036299,0.9999410887603682,0.00010344894099078555
-0.48336062462258267,-0.48336062462258267,1.0001608311248051,0.0001026047369125352
-0.48320934328439763,-0.48320934328439763,0.9999813804509274,0.00010384196691932007
-0.48304854874950254,-0.48304854874950254,0.9996048225490343,0.00010295516489608235
-0.48292575867599224,-0.48292575867599224,0.9999978345461578,0.000100832093251847
-0.4828507969614293,-0.4828507969614293,0.9999539561085911,0.00010517024050745562
-0.48272175666861583,-0.48272175666861583,1.000025357198535,0.00010391506297776029
-0.4826392166338337,-0.4826392166338337,0.9999902447344444,0.00010601145614726786
-0.48254850933517446,-0.48254850933517446,1.000112619897684,0.00010431819018037343
-0.48232173125070404,-0.48232173125070404,0.999872270198631,0.0001037349697308893
-0.48219197640501077,-0.48219197640501077,0.9999014260853742,0.00010730173831113449
-0.4821038018890249,-0.4821038018890249,1.0000907433723956,0.00010104698730355126
-0.482006014885701,-0.482006014885701,1.00007151119105,0.00010222488285439925
-0.481894672208,-0.481894672208,1.0000497175129028,9.967469370559122e-05
-0.481798431846255,-0.481798431846255,1.0000736120213305,0.00010389903146560827
-0.4816565589935635,-0.4816565589935635,1.0000717495278038,0.0001024355662183914
-0.48151622036239133,-0.48151622036239133,1.000064913361677,0.00010273810583234181
-0.4813743909035111,-0.4813743909035111,0.999982042128362,0.00010298546056121668
-0.48122378359767026,-0.48122378359767026,1.0001084092088988,0.00010292217885788915
-0.4810624167570495,-0.4810624167570495,1.0000287524201918,0.00010071929029872658
-0.48090199338112144,-0.48090199338112144,0.99999713694201,0.00010854336760157828
-0.4807984068305814,-0.4807984068305814,0.99983868924376,0.00010372757798361387
-0.4807176936556061,-0.4807176936556061,0.9999118215253899,0.00010487400540595212
-0.4805970813453314,-0.4805970813453314,1.0001145765769546,0.00010070168946730226
-0.48045611394336446,-0.48045611394336446,0.9999862404119041,0.00010358762140134245
-0.48033970445248997,-0.48033970445248997,1.0001006660646192,0.00010613159975688563
-0.4801663387668668,-0.4801663387668668,1.0000280513522373,0.00010241223434222264
-0.4800306757504586,-0.4800306757504586,0.999865595559494,0.00011167869285594945
-0.4799167061471962,-0.4799167061471962,1.0001054410221766,0.0001005224728148006
-0.47986892167682527,-0.47986892167682527,1.0000242622549516,9.927057603060791e-05
-0.47980489378460334,-0.47980489378460334,0.9999944782331796,0.00010269930249471381
-0.4796661039144965,-0.4796661039144965,0.9999195958115482,0.00010216761342448827
-0.47947292702883715,-0.47947292702883715,1.000144308998388,0.00010138953764244352
-0.4792990789908799,-0.4792990789908799,0.9999721029537773,0.00010381869068862434
-0.47904684429449845,-0.47904684429449845,1.0000708555406121,0.0001029721726275073
-0.478941988141014,-0.478941988141014,0.9999755647280784,0.00010595817590823612
-0.47887394999852406,-0.47887394999852406,0.99991656243741,0.00010597930370442352
-0.47875559461317607,-0.47875559461317607,0.9999524093627652,0.0001031099099432963
-0.47866519046074246,-0.47866519046074246,1.000000759649776,0.00010364661151569224
-0.478565661572793,-0.478565661572793,1.0001692960218451,0.00010397474626131574
-0.4784681089382502,-0.4784681089382502,1.000093611705352,0.00010211455497307701
-0.4783411879463529,-0.4783411879463529,0.9999801395382508,0.00010018558482694973
-0.4782420429030026,-0.4782420429030026,0.9997794855624503,0.00010137406530761687
-0.47810893566929735,-0.47810893566929735,1.0000784733110513,0.00010160300675044376
-0.47800813942667447,-0.47800813942667447,1.0000657871151817,0.0001032231215592943
-0.4779302670962352,-0.4779302670962352,1.0002237139460477,9.92216953769896e-05
-0.4778483717884228,-0.4778483717884228,1.0000375096049283,9.876491159064996e-05
-0.4777382988650061,-0.4777382988650061,0.9998600315337651,0.00010087495984216655
-0.4776177941392234,-0.4776177941392234,1.0001591618676988,0.00010330697288221666
-0.4774400977155892,-0.4774400977155892,0.999948837375044,0.00010193561934575173
-0.4772527788336447,-0.4772527788336447,0.9997327558056808,0.00010292076448595188
-0.47708358083109487,-0.47708358083109487,1.0002304287038246,0.00010568306229971238
-0.47697784825140843,-0.47697784825140843,0.9999546097064153,0.00010420239308688709
-0.47689680217590646,-0.47689680217590646,1.0000052269770179,0.00010195733104074114
-0.476780522451736,-0.476780522451736,1.0000570920131777,0.00010382733603418668
-0.47664597970142497,-0.47664597970142497,1.0000046675492456,0.00010003098501260755
-0.47646362496889194,-0.47646362496889194,1.0001196927101828,0.00010065162871691327
-0.4763787348027108,-0.4763787348027108,1.0000234233545657,0.00010455225071494135
-0.476222399125254,-0.476222399125254,0.9999200842829199,0.00010175952760269494
-0.47610614293225806,-0.47610614293225806,1.0000377298999688,9.886591559245992e-05
-0.47596044320089276,-0.47596044320089276,1.0000375894942546,9.709064618640235e-05
-0.47582295675674685,-0.47582295675674685,0.9999398505473911,0.00010337203132529776
-0.4757260474674695,-0.4757260474674695,0.9999112181766169,0.0001040348515884346
-0.47561307329524427,-0.47561307329524427,1.0000394265535466,0.00010235384068323712
-0.47544568757220984,-0.47544568757220984,0.9999397059245864,0.00010400965165393889
-0.4752906654670369,-0.4752906654670369,1.0000975853580094,0.00010263069715556658
-0.4752090027621307,-0.4752090027621307,1.0000307007118792,0.00010245478983463456
-0.47510535745386734,-0.47510535745386734,0.9999816626430519,0.00010308235200326218
-0.4749750175207737,-0.4749750175207737,0.9999904198487208,0.00010424220247300196
-0.4748816262712353,-0.4748816262712353,0.9999851026739137,0.0001032424779595861
-0.47471912851106024,-0.47471912851106024,1.0000027821685036,0.00010416785049835212
-0.47457490390879686,-0.47457490390879686,0.9999540200238151,0.00010235419953098881
-0.4744664902726072,-0.4744664902726072,0.9998523039245096,0.00010080374079479733
-0.47436379822684105,-0.47436379822684105,1.000190692456984,0.00010223076961221928
-0.47424275876546745,-0.47424275876546745,0.9998939788206085,9.79913603814364e-05
-0.4741621113702422,-0.4741621113702422,1.0000159209996846,0.000102518346672785
-0.4739932158954616,-0.4739932158954616,1.000049999595684,0.00010145274807379836
-0.4738735618113424,-0.4738735618113424,1.0001011038244703,0.00010283758558915414
-0.4737526261873427,-0.4737526261873427,0.9999299532172901,0.00010363245141283638
-0.47356553078061553,-0.47356553078061553,0.9999027399330924,0.00010409302374048495
-0.4734207681620319,-0.4734207681620319,0.9999422008293557,9.974849307869914e-05
-0.4732596929541614,-0.4732596929541614,1.0001030927565497,0.00010627644856604829
-0.4731852813056321,-0.4731852813056321,1.0000385823553093,0.00010553606167984235
-0.4730919998532045,-0.4730919998532045,1.00010564065193,0.00010388161706544005
-0.473044414560718,-0.473044414560718,0.9999043199232129,0.00010502651605893936
-0.4728728333495383,-0.4728728333495383,0.9999830654502612,9.894228043198493e-05
-0.47278266449211515,-0.47278266449211515,0.9999961188940109,0.00010207516666980464
-0.4726693647498905,-0.4726693647498905,0.9999961571527411,0.00010413640272749903
-0.4725218265557487,-0.4725218265557487,1.000163676873986,0.0001025170955986744
-0.4724488980449678,-0.4724488980449678,0.9999747206570027,0.00011187430672982548
-0.4723540492064785,-0.4723540492064785,0.9999703567476221,9.848095179898478e-05
-0.4722442592137668,-0.4722442592137668,0.999877426632761,9.869176053600923e-05
-0.4721865889165201,-0.4721865889165201,0.9997741954793149,0.00010240407833370681
-0.4720919985084038,-0.4720919985084038,0.9998678733362454,0.0001012681095658579
-0.4719473768251191,-0.4719473768251191,1.00006395899916,0.00010384733619447292
-0.4717839402037498,-0.4717839402037498,1.0000589778276985,0.00010418654053666136
-0.4717335123066732,-0.4717335123066732,0.9999116967796999,9.911532117806315e-05
-0.47161988674488386,-0.47161988674488386,1.000008813977542,0.00010212822191649439
-0.47143970382603584,-0.47143970382603584,0.9999335578458464,0.00010568263286841483
-0.4713096257706638,-0.4713096257706638,0.9999714317859241,0.00010437922435370517
-0.4712399953808927,-0.4712399953808927,1.0000004335619006,0.000106055729819801
-0.4711566202211543,-0.4711566202211543,1.000152904220948,0.00010544303988726789
