time,time,flux,flux_err
-0.49995381602214667,-0.49995381602214667,1.0000522538416063,0.00016755145236692888
-0.49981977867779886,-0.49981977867779886,0.9999753537727756,0.00016346021469674062
-0.4996886415829067,-0.4996886415829067,1.000021824661432,0.00016334192210603327
-0.4995949695141462,-0.4995949695141462,1.0000049053136362,0.0001491584178985527
-0.49949991271205363,-0.49949991271205363,1.0001267422644642,0.00014796332653800435
-0.4993805431193323,-0.4993805431193323,1.0000917722946687,0.00014927376219561132
-0.49922881965685517,-0.49922881965685517,0.9997312353614886,0.00015417415812675318
-0.4990747486401233,-0.4990747486401233,1.0000050278823838,0.00015094798230194602
-0.49893273729176146,-0.49893273729176146,1.0000728269141956,0.0001463420266778107
-0.4988618088558724,-0.4988618088558724,0.9999773105735924,0.00014974981365464563
-0.4987831896229181,-0.4987831896229181,0.9998858065358769,0.00015428713158344734
-0.4987131954258075,-0.4987131954258075,0.999999767325084,0.0001495760077574318
-0.4986288638530823,-0.4986288638530823,1.0000418768183243,0.00015167968628398374
-0.4985253908693267,-0.4985253908693267,1.0002170682621663,0.00014416839098032992
-0.4983863859612029,-0.4983863859612029,0.9999621770183656,0.00014834705176554124
-0.49828623304565556,-0.49828623304565556,1.0000376263232384,0.00014490826423864482
-0.4981842590532324,-0.4981842590532324,1.0000466387511548,0.00014949418768479345
-0.4980901532508142,-0.4980901532508142,0.9999798660579946,0.00015318411140034007
-0.4979928564418515,-0.4979928564418515,1.000017718839747,0.00014650308473363344
-0.49781297852750866,-0.49781297852750866,1.0002672860660886,0.00015052809256671496
-0.4975982717005536,-0.4975982717005536,1.0001891600436479,0.00014735050316159947
-0.49744912628520976,-0.49744912628520976,1.0001329718082412,0.00014908274167161535
-0.49726622333109843,-0.49726622333109843,0.9999828101683083,0.00014993185116561966
-0.497092462504952,-0.497092462504952,1.0000784218957002,0.00015243236404395978
-0.4969784724591591,-0.4969784724591591,0.9999608808652842,0.00014927655539890113
-0.49686604130110934,-0.49686604130110934,0.9997478663342279,0.00014294065029332045
-0.49678878010381594,-0.49678878010381594,0.9999437983311378,0.0001510044142243072
-0.49671443335901133,-0.49671443335901133,0.999928699138272,0.0001484042405093746
-0.49666157651881804,-0.49666157651881804,1.0000928927478145,0.00014222208579206774
-0.4965971978621383,-0.4965971978621383,0.9999593311972695,0.00014481162669938472
-0.49655179516994397,-0.49655179516994397,1.0000881394215697,0.00014489761810406143
-0.4964956316893222,-0.4964956316893222,1.0000767713168224,0.00014768960882159278
-0.49636717166358724,-0.49636717166358724,0.9998807130094665,0.00014126842788671776
-0.4962486688971694,-0.4962486688971694,0.9998607314596575,0.000148472351639589
-0.496128274883813,-0.496128274883813,1.0000178467457803,0.0001453539550917967
-0.4960068660941033,-0.4960068660941033,0.9999706744727559,0.0001496702821156797
-0.49591456811249374,-0.49591456811249374,1.0001914183889657,0.00014622005276997743
-0.4958326535896049,-0.4958326535896049,1.0000919986026502,0.00014666599875937797
-0.49567238305171485,-0.49567238305171485,1.00012747409199,0.0001549460402751493
-0.49557129395907396,-0.49557129395907396,0.9998283606487861,0.0001463972913095168
-0.4954761996115849,-0.4954761996115849,0.9999911033527844,0.0001468028942479437
-0.49536216857595716,-0.49536216857595716,0.9997927261564101,0.00014549765999460134
-0.4952247528352018,-0.4952247528352018,1.000003711628495,0.0001557614439100247
-0.4950473807861272,-0.4950473807861272,1.0000318832414536,0.00015689046039404577
-0.4949119977238297,-0.4949119977238297,0.9998130793441071,0.00014642714440052073
-0.49472593747559584,-0.49472593747559584,0.9999105797185187,0.00014727115898205214
-0.4946353476268996,-0.4946353476268996,0.9999362761941404,0.00015735453989393334
-0.4944819439973799,-0.4944819439973799,1.0000763924543736,0.00014927082589506988
-0.4943464766147372,-0.4943464766147372,1.0001357750471676,0.00015818404818083035
-0.49412130659038667,-0.49412130659038667,1.000266093395208,0.00015839657785800357
-0.49395618809212466,-0.49395618809212466,1.0000398147883902,0.00015191626062684578
-0.49384935938724084,-0.49384935938724084,1.0002090844689744,0.00014016145704453308
-0.4937236077086709,-0.4937236077086709,1.0001300913963944,0.00014836183439265462
-0.49365508119008156,-0.49365508119008156,1.0002011626706724,0.00015167399618248124
-0.49349690838498644,-0.49349690838498644,0.9999858735486097,0.00014575538720003526
-0.4934003063965065,-0.4934003063965065,0.9998985301363478,0.00015313186220362716
-0.4932987247586425,-0.4932987247586425,0.9999877035342003,0.0001513452073662733
-0.4931835272211174,-0.4931835272211174,1.0001393211414364,0.0001525944602943097
-0.49310677875982944,-0.49310677875982944,1.0001993521611303,0.00014956416445948808
-0.4930273886748182,-0.4930273886748182,1.0002933726807084,0.00015242567765531167
-0.4928766587843711,-0.4928766587843711,1.000082914816819,0.00014927127141105092
-0.49274769838011706,-0.49274769838011706,1.0001741970662767,0.00015425037597512477
-0.49262758692202624,-0.49262758692202624,1.0000633463659405,0.00014631635197712725
-0.4925277331705729,-0.4925277331705729,1.0001166725403716,0.00014709438262529133
-0.49240660405921516,-0.49240660405921516,1.000090708315404,0.00015169041378382172
-0.49234067662182496,-0.49234067662182496,1.0001337326327011,0.00015229007855396227
-0.49224569686703035,-0.49224569686703035,0.9999912422048285,0.00014459188981841002
-0.4920933543042338,-0.4920933543042338,0.9999425835552674,0.00014524980999804188
-0.49187926330923804,-0.49187926330923804,1.000178073633469,0.00015486003743961742
-0.4917107785397093,-0.4917107785397093,1.0000595843038553,0.00014736625931483215
-0.49157343782862883,-0.49157343782862883,0.9999625825254709,0.00014485404081553114
-0.4914652037623455,-0.4914652037623455,0.9998485666797567,0.00014679292124070514
-0.4912851823901292,-0.4912851823901292,1.0001347274236938,0.00015469699208421335
-0.4911660214071162,-0.4911660214071162,0.9999418470094582,0.00014524960085243963
-0.4910575999827415,-0.4910575999827415,0.9999734204390635,0.0001475915674210686
-0.4909081387959304,-0.4909081387959304,0.9998953349031823,0.00014299803021373822
-0.49083818214421626,-0.49083818214421626,1.0000978660139668,0.00014693045289472935
-0.4907915869989665,-0.4907915869989665,1.0000905683789925,0.00014990927991558175
-0.4906579687121848,-0.4906579687121848,0.9998431416529268,0.00014858898381915243
-0.49046891722100555,-0.49046891722100555,0.9998876202045492,0.00014444749030121051
-0.49030185954252375,-0.49030185954252375,1.0000458691700418,0.0001441856493242174
-0.49019424468497164,-0.49019424468497164,1.0001401434780912,0.00014776172334625485
-0.4901037533141789,-0.4901037533141789,0.9998512881574421,0.00015212006742185442
-0.49000550368364204,-0.49000550368364204,0.9998335613678183,0.00014881618742047643
-0.4898953468531545,-0.4898953468531545,0.9997810909149804,0.00015284545008046062
-0.48979620910686206,-0.48979620910686206,0.9997687629704621,0.00015082520944635836
-0.48954838959107294,-0.48954838959107294,0.9997721792439851,0.00014750273413450708
-0.4893915705761174,-0.4893915705761174,1.0000879569196794,0.00014565442520137378
-0.4892106645376771,-0.4892106645376771,0.999928001109432,0.0001504167316129677
-0.48909593753196534,-0.48909593753196534,0.9997380095978082,0.00014658159028295805
-0.4889465885826212,-0.4889465885826212,0.9999719119817007,0.00014665912553775374
-0.4888646132341819,-0.4888646132341819,0.9999707105866354,0.00014622563158180323
-0.48876689637909293,-0.48876689637909293,0.9999397057621863,0.00014507722916819516
-0.48871744259740807,-0.48871744259740807,1.0000408279762616,0.00014716060304666652
-0.4886541377280082,-0.4886541377280082,0.9998470473692127,0.00014889622815136692
-0.4886006450979039,-0.4886006450979039,0.9998755254679923,0.00015427569659630234
-0.48851610117126254,-0.48851610117126254,1.0003531719989707,0.00015031703968849952
-0.4884415310982149,-0.4884415310982149,0.9999682518804283,0.00015146140695428053
-0.48828499657975044,-0.48828499657975044,0.9997962860685302,0.00014917926810082853
-0.4881495995388832,-0.4881495995388832,1.0000019532910893,0.000148606427194598
-0.4880330541920557,-0.4880330541920557,1.0000570044235366,0.00014951260447553321
-0.48794810048493675,-0.48794810048493675,1.0000195730411756,0.00014938262469328198
-0.48786829192758885,-0.48786829192758885,0.9999397380926878,0.0001468371708899635
-0.4877942803272163,-0.4877942803272163,0.999677895094506,0.00014851351473719242
-0.4876942937116837,-0.4876942937116837,1.000244052007383,0.00014310349914982206
-0.48759597807511457,-0.48759597807511457,1.0000603382196078,0.0001537129778235292
-0.4875108305146568,-0.4875108305146568,1.0001224681212437,0.00014994075415862722
-0.4873914375071763,-0.4873914375071763,1.0000481519421263,0.00015066237277596648
-0.4873261730557715,-0.4873261730557715,1.000219219981318,0.0001507321132413522
-0.4872325362237461,-0.4872325362237461,0.9999297184443792,0.00014920539261789465
-0.48712030874739864,-0.48712030874739864,1.000080080182201,0.00014698812882674454
-0.4870074627920985,-0.4870074627920985,1.000141098434999,0.0001563393350363942
-0.48685818996164015,-0.48685818996164015,1.0000561407952917,0.00014668112203867326
-0.48669822315423517,-0.48669822315423517,0.9999247602841559,0.00015373109647462852
-0.4865898196112539,-0.4865898196112539,1.0000770206516347,0.00014677737643249814
-0.48653845182561783,-0.48653845182561783,0.9999222825666196,0.0001481514537925548
-0.4864847364311572,-0.4864847364311572,1.0000305569990344,0.00014986521530570613
-0.4864143538856297,-0.4864143538856297,1.0002981541873335,0.00015084126885722736
-0.48632615922542755,-0.48632615922542755,1.0002608119449554,0.00015732090658399455
-0.4862478709343122,-0.4862478709343122,0.9997068150687513,0.00015122090538606696
-0.4861154234451533,-0.4861154234451533,1.0001668038613905,0.00014195793105644162
-0.48600868121138774,-0.48600868121138774,0.9997465753201291,0.00014891217191362696
-0.4858924019761616,-0.4858924019761616,1.0001523316294478,0.00014815175009979
-0.4858016558879171,-0.4858016558879171,0.9999384167489449,0.00014634776736270247
-0.4857173051736027,-0.4857173051736027,0.9998322822769519,0.00014719815234117266
-0.48562581377118474,-0.48562581377118474,1.0002714281459404,0.00015002546726091903
-0.4854468360033934,-0.4854468360033934,1.0000575373971317,0.00015060394035334748
-0.4852006234126748,-0.4852006234126748,0.9999959621918049,0.00014319620579073786
-0.48507483928260625,-0.48507483928260625,0.9998985501304553,0.00015425696410233033
-0.4849284940639336,-0.4849284940639336,0.9997978674004765,0.00014277815523065798
-0.48471891745648465,-0.48471891745648465,0.9999137328477558,0.00015137308490986479
-0.48456622531666654,-0.48456622531666654,0.9997566516703122,0.00014974427805489757
-0.4844858959913836,-0.4844858959913836,1.00005176486111,0.00014511217562889023
-0.48443553441175025,-0.48443553441175025,1.0000010754866762,0.0001484214294005726
-0.4843761724187061,-0.4843761724187061,1.0000497824698482,0.00014506838962228473
-0.48431452405202435,-0.48431452405202435,0.9996871491757681,0.00014448035482033785
-0.48424803662128396,-0.48424803662128396,1.0001248131997513,0.00014395929658603715
-0.4841998322342988,-0.4841998322342988,0.9998202205446228,0.00014468017374268726
-0.4841559565589705,-0.4841559565589705,1.0000005335704825,0.00014441829608269853
-0.4840529328357661,-0.4840529328357661,1.0002051361639928,0.00014417307680849754
-0.4839047684574325,-0.4839047684574325,1.0000275466691169,0.00014646892583677497
-0.4837495835883601,-0.4837495835883601,0.999947439396849,0.0001450175490171642
-0.48362573085541954,-0.48362573085541954,0.9998326855244573,0.00014299822766331323
-0.48353824966034153,-0.48353824966034153,1.0004098315211674,0.00014796901753511466
-0.4834633607388241,-0.4834633607388241,1.0000202521939923,0.0001450382900333288
-0.4832923814676178,-0.4832923814676178,0.9998378916378753,0.00015130092891450043
-0.4831784630769107,-0.4831784630769107,0.9999350967077266,0.0001421782348428543
-0.48310150654724565,-0.48310150654724565,0.9999317459793401,0.00014718076351783897
-0.4830135767595493,-0.4830135767595493,0.9999682288686749,0.00014805810203597254
-0.4828708958288189,-0.4828708958288189,0.9999178241436486,0.00015472545342015383
-0.48272042299358875,-0.48272042299358875,1.0003460261836383,0.00015685806497583703
-0.4825785889304825,-0.4825785889304825,0.9999742563840247,0.00014565550694558885
-0.48249790005356774,-0.48249790005356774,1.000046099300796,0.000156899942652796
-0.48234052033440095,-0.48234052033440095,0.999947120204226,0.00014718188276800106
-0.4822580627413117,-0.4822580627413117,0.9999721634220202,0.00015294765339295978
-0.48209812578061245,-0.48209812578061245,1.000124560776912,0.00014646976253383242
-0.4819632309219742,-0.4819632309219742,0.9999027467910487,0.00015813176584511684
-0.4817700765248446,-0.4817700765248446,1.0000365499647659,0.00015510889263112718
-0.48160014762979697,-0.48160014762979697,1.0000869203701817,0.00014760935532957128
-0.4815438230201835,-0.4815438230201835,1.0000416995523633,0.00015267989260670488
-0.4813621514411352,-0.4813621514411352,1.00011328089575,0.00015177508052567854
-0.4812878425014787,-0.4812878425014787,0.9998553405337651,0.00014842865568047344
-0.4811451730769477,-0.4811451730769477,1.0000329774668888,0.00015464296431526276
-0.48098449482276917,-0.48098449482276917,0.9999657908024281,0.0001523727395650054
-0.4808348840153485,-0.4808348840153485,1.000285573535816,0.0001498439253144675
-0.4807420668847044,-0.4807420668847044,1.0002075946291702,0.0001486600024391036
-0.4806782726365782,-0.4806782726365782,1.0001828294937465,0.00014772609076155267
-0.4805434635374695,-0.4805434635374695,1.0001830359217305,0.00015277797716675787
-0.48037651220001865,-0.48037651220001865,1.000445706016571,0.0001541129612044939
-0.4802824765974947,-0.4802824765974947,1.000342629864883,0.00014782153854700332
-0.48020353081301437,-0.48020353081301437,0.9999102603926824,0.00014530104188546916
-0.48008667749454614,-0.48008667749454614,1.0001886986994175,0.00014839071254581132
-0.48001417987252354,-0.48001417987252354,0.9997292919787751,0.0001531640086542588
-0.479949700893485,-0.479949700893485,0.9999453488741427,0.00014579965158041766
-0.47982011681597214,-0.47982011681597214,1.000142967732889,0.0001437487128798267
-0.4796664787470945,-0.4796664787470945,1.0000467642998583,0.0001478128730531127
-0.47944866137040665,-0.47944866137040665,1.0002903122722402,0.0001435780373136701
-0.4792813356645638,-0.4792813356645638,1.0003267631008623,0.00015133761385846474
-0.47915442897283356,-0.47915442897283356,0.9999475805547757,0.00014723235492846156
-0.4790405474101135,-0.4790405474101135,1.0001394523397906,0.00015043532320674325
-0.4788212995430513,-0.4788212995430513,1.0000112235952197,0.00014666937933043256
-0.478725293752359,-0.478725293752359,1.0002336348780765,0.00014477506620393012
-0.4786176026063913,-0.4786176026063913,1.000098465044627,0.0001484614066524847
-0.47851501657787593,-0.47851501657787593,0.9999350725028308,0.00014644516073384066
-0.4784456675115507,-0.4784456675115507,1.0000027888661456,0.00014947776077317614
-0.4783187411769177,-0.4783187411769177,0.9999553184398111,0.0001409385221900179
-0.4781506042585534,-0.4781506042585534,0.9999832917723592,0.00014462052767515694
-0.478018407907075,-0.478018407907075,0.9998475258751697,0.00014363366780381086
-0.47784295973469854,-0.47784295973469854,0.9999481540728459,0.00014779931806899958
-0.4777504347308422,-0.4777504347308422,0.9998878863663843,0.00014896724546033352
-0.47765560097323034,-0.47765560097323034,1.0000551810397629,0.0001522562438291499
-0.47757228043483335,-0.47757228043483335,1.0002794560348978,0.0001475116829396443
-0.4774976232482004,-0.4774976232482004,0.9999810777522666,0.0001516183029433061
-0.4773644247732591,-0.4773644247732591,1.00013685307603,0.00014288478264039381
-0.4771564943199337,-0.4771564943199337,1.000177791676012,0.00014907381290558014
-0.4769960048754001,-0.4769960048754001,0.9999243823305412,0.0001463803797257629
-0.4767714601337502,-0.4767714601337502,0.9998826040884847,0.0001461079539292883
-0.47662256106123096,-0.47662256106123096,0.999936575543414,0.00014702818618558572
-0.4765404430210765,-0.4765404430210765,0.9999209049796127,0.0001441151247391328
-0.4764766196691198,-0.4764766196691198,0.9998271162615167,0.00014412247279821407
-0.47637024441792164,-0.47637024441792164,0.9999964290142082,0.00014477212033539637
-0.4763108504419506,-0.4763108504419506,0.9999671458594696,0.0001523351174659632
-0.47623624462430597,-0.47623624462430597,0.9998218854446925,0.0001524241872415663
-0.4761565943386813,-0.4761565943386813,0.9999315355198191,0.0001503307075916097
-0.476072029464558,-0.476072029464558,0.9998981105244852,0.00015162413261154297
-0.475913839887653,-0.475913839887653,1.0001893689883032,0.0001551078509593765
-0.4757652221138414,-0.4757652221138414,1.000089299217122,0.0001488827019121902
-0.4756462175660999,-0.4756462175660999,0.9998875683368222,0.00014656354795048384
-0.47557196282068614,-0.47557196282068614,1.0000560479007607,0.00015174415822798932
-0.47550783864135154,-0.47550783864135154,1.0005692724947866,0.00014871778051400716
-0.4754306214221288,-0.4754306214221288,1.000119196397606,0.0001489781449829626
-0.47535920952941524,-0.47535920952941524,0.9996898616156749,0.00014681451794329898
-0.4752522062815842,-0.4752522062815842,1.00005287666248,0.00014803821126636003
-0.47518045655378954,-0.47518045655378954,1.0000029552264638,0.000152049730746023
-0.47508717916716703,-0.47508717916716703,1.0001534380679984,0.00014997151634635659
-0.4749931688529614,-0.4749931688529614,1.0001552645014633,0.00015108355791680926
-0.4749192438895989,-0.4749192438895989,1.0000366701554264,0.00014824727915493154
-0.4747973476994957,-0.4747973476994957,0.9999703027725835,0.00015034085195554916
-0.4746779998320562,-0.4746779998320562,1.0000116878609748,0.0001479550447165209
-0.4745788066669775,-0.4745788066669775,1.000156881960644,0.0001498043174022426
-0.47439199376967733,-0.47439199376967733,1.0000142868911663,0.00015191960785702435
-0.4743024471026729,-0.4743024471026729,1.0001733379088757,0.00014789446850210005
-0.4742168935292284,-0.4742168935292284,1.0000576643765833,0.00014795496877930775
-0.47412753014141346,-0.47412753014141346,1.0000464764300068,0.00014944219268149468
-0.47404360693180936,-0.47404360693180936,1.0000346978788208,0.00015106460324374268
-0.4739663086576911,-0.4739663086576911,1.0000893411808534,0.00015738862273481077
-0.4738742646302853,-0.4738742646302853,1.0000579307163462,0.0001511790309994958
-0.47371933775939395,-0.47371933775939395,1.0000766308362004,0.00014380554503364666
-0.47359050852974177,-0.47359050852974177,1.000064793532927,0.0001461652652303809
-0.47347588544071184,-0.47347588544071184,0.9997166726729414,0.00014723820535723025
-0.4734242119469855,-0.4734242119469855,0.9999810079776493,0.0001469172499911797
-0.4733202071824053,-0.4733202071824053,0.999887414816583,0.0001462899050472313
-0.4732160910250968,-0.4732160910250968,0.9999545819288365,0.00014898855045284673
-0.4730547597624536,-0.4730547597624536,0.9999656581114408,0.00014933457315017523
-0.4729602055544092,-0.4729602055544092,0.9995522205553959,0.0001439615795040628
-0.47273874757665907,-0.47273874757665907,1.00023135841665,0.00014792096546428925
-0.4725640014708915,-0.4725640014708915,1.000165999212395,0.000149389928130108
-0.47234655379506874,-0.47234655379506874,1.00005003576551,0.00015100999811696464
-0.47222431735572173,-0.47222431735572173,0.9999861296610455,0.0001483999329265559
-0.4721189093354042,-0.4721189093354042,1.0001236313074955,0.00014677355422185268
-0.4720755742084293,-0.4720755742084293,1.0000410972855098,0.00014472904187135498
-0.47199785501870795,-0.47199785501870795,1.0001003282426018,0.00014647970460555048
