time,time,flux,flux_err
-0.4999622556054722,-0.4999622556054722,0.9999892362905087,0.00012553936166388835
-0.4998023611872971,-0.4998023611872971,0.9999647643837255,0.0001268418067587504
-0.4997376836297917,-0.4997376836297917,1.0000992803638358,0.0001178995389810297
-0.49967726264803786,-0.49967726264803786,0.9999222987019131,0.00011867047663079489
-0.4995883588104334,-0.4995883588104334,0.9999586710332746,0.00011743485124982424
-0.49944785907355255,-0.49944785907355255,1.0000088425393616,0.00012650151266067804
-0.4993881855189102,-0.4993881855189102,0.9999095403725811,0.00012475534321663347
-0.4992300623904157,-0.4992300623904157,1.0000464937171043,0.0001259916703921605
-0.499146063545777,-0.499146063545777,1.0001086340851366,0.0001184220364843597
-0.49911319504026325,-0.49911319504026325,1.0000365102037303,0.0001160703330731829
-0.49894173698485245,-0.49894173698485245,1.0000331298730847,0.00011839236711630695
-0.4987388447181729,-0.4987388447181729,0.9999984453416317,0.00011849913662172394
-0.4986126694668201,-0.4986126694668201,0.9998811703641632,0.00011768427312738741
-0.49840277083640105,-0.49840277083640105,1.0000674860081495,0.00011531291304910675
-0.4982637226290535,-0.4982637226290535,0.9999686060457735,0.0001204212080542038
-0.49818381876611967,-0.49818381876611967,1.000034646583434,0.00011539337062903587
-0.4981293850185466,-0.4981293850185466,0.9999787402267687,0.00012589236375974727
-0.49799680162759613,-0.49799680162759613,1.0000885797768357,0.00011826379059280824
-0.4978843115633936,-0.4978843115633936,0.9998935287938501,0.00012602655662532784
-0.4977408867765917,-0.4977408867765917,0.9999851748913056,0.00012363255504846063
-0.49760847671568625,-0.49760847671568625,1.0001021285066316,0.00011832062095908662
-0.4974815333436709,-0.4974815333436709,1.000264678666094,0.0001157351814384395
-0.49735375598829706,-0.49735375598829706,0.9999051067417914,0.00012909923339182237
-0.4972316769475583,-0.4972316769475583,0.9999839647149205,0.0001246553808978505
-0.4971314906644693,-0.4971314906644693,1.000071713208969,0.00012436482517664437
-0.4970442360827292,-0.4970442360827292,1.0001266091752508,0.00011560886320003114
-0.49691783041489546,-0.49691783041489546,1.0002125156289128,0.00012473370710416553
-0.49682470820698654,-0.49682470820698654,1.0001330065738436,0.00011763100693259312
-0.49672981961630286,-0.49672981961630286,0.9998703998684022,0.0001149326936949544
-0.49669053339384844,-0.49669053339384844,1.0000892576327178,0.00012663102627680158
-0.4965954599014367,-0.4965954599014367,0.9998742634363665,0.0001228846851675528
-0.49649322383484107,-0.49649322383484107,0.9999983606738899,0.00011666127382078714
-0.49641698538471246,-0.49641698538471246,0.9999703645577508,0.00013150452581949405
-0.4963462788895413,-0.4963462788895413,1.0000635480901328,0.00011648114937129136
-0.4962250824166404,-0.4962250824166404,1.0001042816498578,0.00011660298283408309
-0.49608437573479025,-0.49608437573479025,1.0000753821853108,0.0001400963773198453
-0.49598095207984444,-0.49598095207984444,1.000045026352734,0.00011683187059058132
-0.49585345146624604,-0.49585345146624604,1.000123263634536,0.00012446385290840412
-0.4957055804785341,-0.4957055804785341,0.9999509386687635,0.00012260473805452695
-0.49558670040714786,-0.49558670040714786,0.9999875017314839,0.00012576721055626187
-0.4954637307069788,-0.4954637307069788,0.9998531962462224,0.00011650153816497035
-0.4953999071920407,-0.4953999071920407,1.0000478486549147,0.00012723424555841737
-0.49526747353884276,-0.49526747353884276,1.000141351434349,0.00012484953443453928
-0.4951871787372511,-0.4951871787372511,0.9999964190151165,0.00011767414364102096
-0.4951062156120315,-0.4951062156120315,1.0002536867883607,0.00012370386791488335
-0.49502960053432615,-0.49502960053432615,0.9999342031980296,0.00011673161777721766
-0.494858910858602,-0.494858910858602,1.000144646055569,0.00012369769983928942
-0.49473377829126547,-0.49473377829126547,0.9999803415097721,0.00011809666271393133
-0.49453049400326565,-0.49453049400326565,0.9999429387569124,0.00012502097669461594
-0.4944363840688311,-0.4944363840688311,1.0000630010128926,0.00012456705603206534
-0.49427732183248735,-0.49427732183248735,0.9998447946682066,0.00011563297291210107
-0.4941391629356076,-0.4941391629356076,0.9999821331254587,0.0001262697192580815
-0.49404658710045624,-0.49404658710045624,1.0000401059610586,0.00012277830137482026
-0.49386385590187276,-0.49386385590187276,0.999966951204885,0.00011803618158439499
-0.4937695903099666,-0.4937695903099666,0.9999972300264937,0.00011686798836987018
-0.493627840802219,-0.493627840802219,1.0002190142881644,0.00011843529352643677
-0.4934908784169238,-0.4934908784169238,1.000020880507358,0.0001152886438142973
-0.49337821802764664,-0.49337821802764664,1.0001898609338529,0.00012475736617881324
-0.49322188456135335,-0.49322188456135335,1.0001092352823402,0.00011440302318438706
-0.4931158971761761,-0.4931158971761761,1.0000655239847864,0.00012369057420185146
-0.49299636116047624,-0.49299636116047624,1.0001578258349721,0.00012678943821513934
-0.4928241530142259,-0.4928241530142259,0.9998641311333122,0.00012709801102340053
-0.49278196612795,-0.49278196612795,0.9999610581118876,0.00011622002539928225
-0.49266008665872507,-0.49266008665872507,0.9999375379743011,0.00011409707779558703
-0.49255638343383906,-0.49255638343383906,1.0000667502402942,0.00012579048557317404
-0.4924424754230131,-0.4924424754230131,1.0002403627590482,0.0001321220364401251
-0.49235409255634294,-0.49235409255634294,1.000058780438259,0.00012611374765493472
-0.4922477150445047,-0.4922477150445047,0.999953291675884,0.0001171580704960367
-0.4921345434937393,-0.4921345434937393,0.9999288923335612,0.00012523536573062552
-0.49200059973954924,-0.49200059973954924,1.0000099266494604,0.00011373316877866427
-0.4919447989967011,-0.4919447989967011,1.0001473088615689,0.0001225705570766538
-0.49184460312171724,-0.49184460312171724,0.9999442815949612,0.00011676230754543724
-0.4917241970644682,-0.4917241970644682,1.0001244655036539,0.00012535016805691407
-0.49154838726317396,-0.49154838726317396,0.9998691115308158,0.0001223835566064354
-0.4914810789421608,-0.4914810789421608,1.0000340657256066,0.0001155914938832628
-0.491359792053845,-0.491359792053845,0.9999253023087865,0.00011668494397411109
-0.4912445358437253,-0.4912445358437253,0.9998948116203451,0.00012282201678067938
-0.4911347054046928,-0.4911347054046928,1.0002130376477045,0.0001252274281328413
-0.49094831156617147,-0.49094831156617147,1.0001057811978833,0.00011590215186362014
-0.4907164018302865,-0.4907164018302865,0.9999927305838499,0.00011481276853318036
-0.49060762176377465,-0.49060762176377465,0.9998425838444248,0.00011695181801524277
-0.49051298419581146,-0.49051298419581146,1.0000840272672331,0.00011702878594288021
-0.4904484504731954,-0.4904484504731954,0.9998912274172668,0.00012229526573744403
-0.4904046074334474,-0.4904046074334474,0.9998831596721658,0.00012749415841477004
-0.4903162126734969,-0.4903162126734969,1.0001360583888,0.0001157689319865307
-0.4902467643551063,-0.4902467643551063,0.9999339738487636,0.0001184822720549756
-0.4901607287189108,-0.4901607287189108,0.9999132313530561,0.00012376701456304266
-0.4900324690679554,-0.4900324690679554,0.9999386033147664,0.00012051582404112267
-0.489934851713042,-0.489934851713042,0.9999767051009292,0.00012482180459252488
-0.4898107421460736,-0.4898107421460736,0.9999318673446433,0.00011513653187024628
-0.4896502094132302,-0.4896502094132302,1.0001811752694691,0.00011560483347620384
-0.48948966348034445,-0.48948966348034445,1.000154868766361,0.00011916188212584
-0.48930457677270167,-0.48930457677270167,1.0000192077523775,0.00011644255774309247
-0.4891341595175618,-0.4891341595175618,1.0001137656582557,0.00011286919291805003
-0.4890511537530983,-0.4890511537530983,1.0000257338400975,0.00012683740170016776
-0.48893669290919206,-0.48893669290919206,1.0000407269090377,0.00011638731208101422
-0.4888735663436819,-0.4888735663436819,1.000177505441581,0.0001268760695407764
-0.48878652605853856,-0.48878652605853856,0.9999493342993556,0.00011948275272136827
-0.4886811143391242,-0.4886811143391242,1.0000723961652827,0.00011873050241878204
-0.4885350132790336,-0.4885350132790336,0.9999562679377536,0.00013699569888862958
-0.48838008791426546,-0.48838008791426546,1.0000391912061624,0.00011749252281802072
-0.488272125642834,-0.488272125642834,0.9999926364430705,0.00011975862386824382
-0.4881005686205754,-0.4881005686205754,1.0001311168157438,0.00011826523565117734
-0.48800615143045434,-0.48800615143045434,1.00015752776311,0.0001169367246545388
-0.48786588751754606,-0.48786588751754606,0.9998392179016001,0.00011919471714887763
-0.48764563035801983,-0.48764563035801983,0.9998209335252625,0.000115182795951051
-0.4874887531848799,-0.4874887531848799,1.0001466695119565,0.00011965337352255929
-0.4873006870599056,-0.4873006870599056,1.0000334484298588,0.00012473907651663142
-0.4872223436832428,-0.4872223436832428,1.0001511895896247,0.000119352096893524
-0.4871411561849527,-0.4871411561849527,0.9999462546499774,0.00012686691314436844
-0.48702130165693236,-0.48702130165693236,1.0000492903635876,0.00011891095254294515
-0.48687047888743107,-0.48687047888743107,0.9998895809393671,0.00011418746945980696
-0.4867568694258807,-0.4867568694258807,1.0000339720254146,0.00012307416992869517
-0.48668352084059735,-0.48668352084059735,1.0000868819595101,0.00012416728316351727
-0.486552060291433,-0.486552060291433,0.9999076104337637,0.0001281742726142079
-0.48642753441672537,-0.48642753441672537,0.9999517149406673,0.00011817466401458064
-0.486257449612458,-0.486257449612458,0.9999001280444899,0.00011765887999480111
-0.48617362518562,-0.48617362518562,0.9998540649567806,0.00011506821213179293
-0.4860723670637526,-0.4860723670637526,0.9999572099488917,0.00012516015200018208
-0.4859856955939904,-0.4859856955939904,1.0001059626919597,0.00012307788666428645
-0.48591103932703844,-0.48591103932703844,1.0000074705925965,0.00011744248904687382
-0.4858294943041983,-0.4858294943041983,0.9999629709928692,0.00012331221639646307
-0.4857154352779617,-0.4857154352779617,0.9999780481305341,0.0001243902380235098
-0.4856045244312554,-0.4856045244312554,0.9999666628919665,0.00011730029418500945
-0.4855338699773711,-0.4855338699773711,0.9999344763028211,0.0001237837179313291
-0.48543562526247114,-0.48543562526247114,0.9998502759756246,0.00012897076692090746
-0.4853615285057458,-0.4853615285057458,1.0000053226960521,0.00012717724880135026
-0.48527294914892993,-0.48527294914892993,0.9999363014966753,0.00011381536946461483
-0.4851719337370014,-0.4851719337370014,0.9999201054755558,0.00012236431370797265
-0.485010872771818,-0.485010872771818,1.0001640998857246,0.00012472073797152255
-0.48484799594152717,-0.48484799594152717,1.0000258306308238,0.0001259306925042697
-0.4847121426151716,-0.4847121426151716,0.9999993699561551,0.00011558260012093732
-0.4845886902781785,-0.4845886902781785,0.999969083592682,0.00011707461601786873
-0.4844499857696064,-0.4844499857696064,1.0000833494658905,0.0001348599024300938
-0.484385270398343,-0.484385270398343,0.9999659244087061,0.00012431555204226328
-0.4842217792116571,-0.4842217792116571,1.000127906534133,0.00011760120562428733
-0.48405590762922657,-0.48405590762922657,1.0001113626266407,0.00011848643109584594
-0.48391981437889625,-0.48391981437889625,0.9999480417708281,0.00012150350244200505
-0.4838228734159202,-0.4838228734159202,0.9999793582684123,0.000125936742202301
-0.4836713297445385,-0.4836713297445385,0.9998580438763722,0.00011469808084175197
-0.48356347946901224,-0.48356347946901224,1.000114028356212,0.00012460676465083818
-0.48345245854434327,-0.48345245854434327,0.9999561909524841,0.00011718186258626452
-0.4833353479159996,-0.4833353479159996,0.9999991577511746,0.00012363916132665162
-0.48318193032828277,-0.48318193032828277,1.0000819223989414,0.00011419994965357466
-0.483125448244391,-0.483125448244391,1.000176644457574,0.00012514093239698285
-0.4830045714130392,-0.4830045714130392,0.9999256667689693,0.00011717696545653606
-0.48281173362629487,-0.48281173362629487,1.0000145155039557,0.00011397318952575991
-0.48272848192791573,-0.48272848192791573,0.999815912138805,0.00012237390835579995
-0.48263085486614726,-0.48263085486614726,1.000065605201978,0.00012485446423355257
-0.48249572744971375,-0.48249572744971375,1.0001076011044936,0.00012524248769105553
-0.48236118518252624,-0.48236118518252624,0.9999850292872111,0.00011625400032900805
-0.4822389942710288,-0.4822389942710288,1.0001845490925219,0.00012476225264616126
-0.48217128309115653,-0.48217128309115653,0.9999976656420154,0.00012194056705567577
-0.4820442665084556,-0.4820442665084556,0.9999291198288704,0.00011549970322093655
-0.48196049049220163,-0.48196049049220163,1.0000706044283993,0.00013117679829388102
-0.48188873074686855,-0.48188873074686855,1.0000952855974874,0.00011372018744584653
-0.4817274089473358,-0.4817274089473358,1.0001302359195527,0.0001357218383973989
-0.4815327562202583,-0.4815327562202583,0.9999468346017328,0.0001151369526267222
-0.4814109357728739,-0.4814109357728739,0.9999931789845109,0.00011662962180544955
-0.48131044721158106,-0.48131044721158106,0.9999536026687694,0.00011723049318303842
-0.48123072164526093,-0.48123072164526093,1.000087139537411,0.00012350334734663644
-0.48107460484534387,-0.48107460484534387,1.0000139697560597,0.00011906928775967669
-0.48094877426192395,-0.48094877426192395,0.9999622767305436,0.0001244684750445623
-0.48082560465627466,-0.48082560465627466,0.9999852202672119,0.00011606705948855308
-0.48075424294002006,-0.48075424294002006,1.0001153264384761,0.00012756215249392708
-0.48064173318707615,-0.48064173318707615,0.9998815801933588,0.00013240887389336274
-0.48052578774659194,-0.48052578774659194,0.9997304116015571,0.00012466469620789393
-0.48042109589805476,-0.48042109589805476,0.999893639871322,0.0001159792125786896
-0.4802466038010607,-0.4802466038010607,1.0001065955958979,0.00011692952353808004
-0.4800992446129385,-0.4800992446129385,1.0000064559595137,0.0001241570327539205
-0.47997559748982893,-0.47997559748982893,0.9998936984344914,0.0001152786546765753
-0.4798313848375983,-0.4798313848375983,1.0001030123602213,0.00011611542483709622
-0.47977605469786794,-0.47977605469786794,0.9999846194673809,0.00012112896761562709
-0.4796841732772009,-0.4796841732772009,0.999910810024392,0.00011492806289240326
-0.47955635206162694,-0.47955635206162694,1.0000922841846496,0.00012853977758882023
-0.47949654425392507,-0.47949654425392507,0.9999200354208355,0.00011829742873617156
-0.47940032035767216,-0.47940032035767216,0.9998893859070345,0.0001161770772135255
-0.479249908390193,-0.479249908390193,1.0000559733327914,0.00012448247510967622
-0.47918054374822533,-0.47918054374822533,0.9998435904672075,0.00011712112872984428
-0.4790268588723848,-0.4790268588723848,1.000098795399935,0.00011731374385129331
-0.47883368567636353,-0.47883368567636353,0.9999417199522289,0.0001171517044069205
-0.4786931177564838,-0.4786931177564838,1.0001100501423892,0.00011702669163657065
-0.47855808888198226,-0.47855808888198226,1.000203697802513,0.0001161679336071072
-0.4783266416452534,-0.4783266416452534,1.0000990733299786,0.0001165095209141263
-0.47822410620283334,-0.47822410620283334,0.999911282825152,0.00012579113565688694
-0.478106019191182,-0.478106019191182,1.0000016263072955,0.00011699350647172775
-0.47801529935968573,-0.47801529935968573,1.0000500277780082,0.00012636254521631302
-0.47793795266770756,-0.47793795266770756,0.9997545308771632,0.00011709225254476565
-0.47780749826997637,-0.47780749826997637,0.999949431762132,0.0001236471365373672
-0.47766991373355266,-0.47766991373355266,1.0001790248886577,0.00011692355599274486
-0.477547370337561,-0.477547370337561,1.0000762062757198,0.00011704706575117892
-0.47742819072009296,-0.47742819072009296,1.0001701340802285,0.00012932813777366976
-0.4772873027177411,-0.4772873027177411,1.0000502583629203,0.00012704245016183132
-0.4771871555924008,-0.4771871555924008,1.000117171859921,0.00011699593583467779
-0.4770423807982297,-0.4770423807982297,1.00007073271167,0.00011426286915208183
-0.4769189024511434,-0.4769189024511434,0.9999527934749551,0.00011750766098682284
-0.47680708578845954,-0.47680708578845954,1.0001235087558036,0.00012252996134910608
-0.4767626395390835,-0.4767626395390835,1.0000761683527206,0.00011745013839448357
-0.47666798245263636,-0.47666798245263636,1.0000099733975145,0.0001271551423938973
-0.4765801386769454,-0.4765801386769454,1.0001482235751138,0.00011627670485932098
-0.47649076926754785,-0.47649076926754785,1.0000944547862518,0.0001344178429244077
-0.47638756728338194,-0.47638756728338194,1.000090652635792,0.00011777398198430486
-0.4762627770694962,-0.4762627770694962,1.0000776787061336,0.00012521214855770908
-0.47612410263973287,-0.47612410263973287,1.0001242547178162,0.0001332898187281529
-0.4760458895492775,-0.4760458895492775,0.9998278402506597,0.00011678551219844124
-0.47592351002604116,-0.47592351002604116,1.0002213508033946,0.00012445638348736334
-0.4757544603155111,-0.4757544603155111,0.9999528016453054,0.00011808623733750548
-0.4756032995479472,-0.4756032995479472,0.9999829740180456,0.00011466627227441446
-0.475529321146314,-0.475529321146314,0.99984721208927,0.00011415574258663722
-0.4754763230681419,-0.4754763230681419,0.9999276842108434,0.0001263247072199061
-0.47537027376893093,-0.47537027376893093,1.0002409620703914,0.00012629166341540006
-0.475269911353098,-0.475269911353098,0.9998883592243457,0.0001174482143982671
-0.47518165297224185,-0.47518165297224185,0.999983133924647,0.00012361653395723948
-0.47510317445194233,-0.47510317445194233,1.0000429929481496,0.00011613672786785129
-0.4749751708055555,-0.4749751708055555,0.9997982087258352,0.00011421832924253362
-0.47483955881180007,-0.47483955881180007,1.0002089935570648,0.0001244314301631124
-0.47471397116969455,-0.47471397116969455,1.0000356196074782,0.00012093174233352824
-0.47458783742549715,-0.47458783742549715,0.9998567488347672,0.00012511263132754073
-0.474445291122538,-0.474445291122538,0.9999790461688489,0.00012310666081017584
-0.47425513349517134,-0.47425513349517134,1.000129187371874,0.00012667512939491956
-0.4741861917464121,-0.4741861917464121,1.0000586747998945,0.00012548375064665247
-0.4740268634755921,-0.4740268634755921,1.000360383148731,0.00011609751094824648
-0.47389337658096337,-0.47389337658096337,1.000098757251966,0.00011650238536461637
-0.4738052044158394,-0.4738052044158394,1.0000036310644567,0.00011818271579409116
-0.4736647944286233,-0.4736647944286233,0.9999672081557748,0.00011690199049521379
-0.47354385943253874,-0.47354385943253874,0.9999400891951951,0.00011528141885873075
-0.4734502976454678,-0.4734502976454678,1.000154461862907,0.000123847341438223
-0.4732844485770329,-0.4732844485770329,1.0001183576547796,0.00011412077324319824
-0.4731868960501743,-0.4731868960501743,0.9998836979353495,0.00012369025673288845
-0.47305104322658736,-0.47305104322658736,0.999958509285938,0.00011681637391427908
-0.47290337542654015,-0.47290337542654015,1.0000346688831292,0.00012604933604806008
-0.4728682475470123,-0.4728682475470123,1.0001617903348712,0.00012658850548761153
-0.4727617281918356,-0.4727617281918356,0.9998127396355251,0.00012275788714701623
-0.47260585167096,-0.47260585167096,1.000029829701074,0.0001165647244270043
-0.472530864100554,-0.472530864100554,1.0000259765267683,0.00012701423451581828
-0.4724476421135478,-0.4724476421135478,0.9998283847216296,0.00011527911069634767
-0.472361749450647,-0.472361749450647,1.0001551413129834,0.00012755796391469243
-0.4722718360877479,-0.4722718360877479,0.9998692915567456,0.00011591834085288968
-0.4721881942561595,-0.4721881942561595,1.0002339186604925,0.00012450312382781146
-0.47208195929488284,-0.47208195929488284,0.9999173845407245,0.00011563629929371561
-0.4720261148235295,-0.4720261148235295,1.000005219222637,0.00012122193923828552
-0.47191827065398684,-0.47191827065398684,1.0000286968831553,0.00012496983425802302
