time,time,flux,flux_err
-0.49993458342153946,-0.49993458342153946,1.0003221174527863,0.003116904479276315
-0.4998508847832757,-0.4998508847832757,1.001804345526802,0.004138977533043071
-0.4997529604464944,-0.4997529604464944,0.9999483601719339,0.0025765295585095083
-0.49969171307093346,-0.49969171307093346,1.0021975880220497,0.0035703304987618504
-0.4996171655737271,-0.4996171655737271,1.002660025904853,0.0037330325598802757
-0.4994173978346225,-0.4994173978346225,0.9970307161050045,0.0028739775786211625
-0.4993163432845904,-0.4993163432845904,0.9981278494762386,0.0033960746503877925
-0.4992115313325485,-0.4992115313325485,1.001589855543347,0.003594869819368052
-0.49911153559296506,-0.49911153559296506,1.0001677174871189,0.002874064840760596
-0.4990186428498419,-0.4990186428498419,0.9976083843167739,0.002915655231365172
-0.4988333909524954,-0.4988333909524954,0.9997409886668291,0.002470573542826663
-0.4986512418880011,-0.4986512418880011,1.0024238471592164,0.003163956217031422
-0.49853616236068776,-0.49853616236068776,0.9981200976618103,0.0028790331036630877
-0.4984731214070052,-0.4984731214070052,1.0042266991754227,0.002711823921858501
-0.4984202723055205,-0.4984202723055205,0.9957363815075514,0.0030171026587464383
-0.4982644076400902,-0.4982644076400902,0.9999378341684146,0.0025109588552394407
-0.4981862066866597,-0.4981862066866597,0.9991019105566871,0.003414512374236916
-0.4980958776184707,-0.4980958776184707,0.9987457032504384,0.003963364362441408
-0.4979889594229462,-0.4979889594229462,0.9960200580384558,0.004070196968325369
-0.4978693347518856,-0.4978693347518856,0.9984157172226238,0.003582812240604823
-0.49779672794393265,-0.49779672794393265,0.9994902106065924,0.003437380018731299
-0.4977099479896424,-0.4977099479896424,1.0008405111401653,0.003334418602250303
-0.4975798069353914,-0.4975798069353914,1.00312282348315,0.0028130712556502925
-0.4974260253482498,-0.4974260253482498,1.0003043807574719,0.0026825624647266117
-0.49733326553177903,-0.49733326553177903,0.999245007558813,0.003914079429453538
-0.4972648874812876,-0.4972648874812876,1.0012460113134711,0.0032878966896945127
-0.4970829970756313,-0.4970829970756313,0.9990969080048201,0.002416894031741455
-0.4969557958596852,-0.4969557958596852,1.0001794317383552,0.0035331617711361783
-0.4968746215752617,-0.4968746215752617,0.9979311674205666,0.0034198500385691777
-0.4967688666227332,-0.4967688666227332,0.9981107153680673,0.003623289202445672
-0.49670017849493886,-0.49670017849493886,0.9985714837153183,0.003005641600236817
-0.4966017791426566,-0.4966017791426566,0.9987181572432355,0.003559375915923062
-0.49651105022494446,-0.49651105022494446,1.0007312565600022,0.003325731786676598
-0.496399508194736,-0.496399508194736,0.9994510466673793,0.0035292301440036137
-0.49629472693632126,-0.49629472693632126,0.9936102850576255,0.0031966389362698315
-0.4961329005935113,-0.4961329005935113,1.001316605197384,0.0031709202869659066
-0.4960356943971419,-0.4960356943971419,0.9995027978172351,0.0030389851731043834
-0.4959008818761504,-0.4959008818761504,0.9992453090314599,0.0035137033266889927
-0.4957737917007762,-0.4957737917007762,1.0012249099039159,0.0027804903116712015
-0.4956548323745665,-0.4956548323745665,0.9967988177868063,0.0035180872513646587
-0.49555634853677477,-0.49555634853677477,1.0018209526533224,0.003592655251298082
-0.4954475364160317,-0.4954475364160317,0.9984652825993653,0.002841151154505857
-0.4952856787582277,-0.4952856787582277,1.0008718996307118,0.0032139198131047354
-0.49515908560933897,-0.49515908560933897,0.9991833042090498,0.003833039248271964
-0.49501767923284207,-0.49501767923284207,1.0021081875893607,0.003121097427250973
-0.494916464547714,-0.494916464547714,1.0017265000456006,0.0027400208411661442
-0.49478340337082044,-0.49478340337082044,0.9999115023988571,0.0030498473220155788
-0.49466607111753547,-0.49466607111753547,0.9991258244082697,0.0030700298830784933
-0.4945704769779695,-0.4945704769779695,1.000728084632668,0.002576514764819187
-0.4944871645981038,-0.4944871645981038,0.9991260974362113,0.0032729928434128584
-0.49440858176385516,-0.49440858176385516,1.0020614186372037,0.0036350693343656483
-0.4942349138465943,-0.4942349138465943,0.9991453284602573,0.003492943536555644
-0.49415738723328106,-0.49415738723328106,0.9993898483618677,0.003288497184236687
-0.4941055803887139,-0.4941055803887139,1.0009467475452893,0.0033969782071796165
-0.4940121091240144,-0.4940121091240144,0.9990472170098936,0.0035079480929423234
-0.4939041500780149,-0.4939041500780149,0.9980216467750299,0.0037433223568879375
-0.4938018764180015,-0.4938018764180015,0.9992633826537094,0.0034095672581636793
-0.4937208296614699,-0.4937208296614699,0.9992108741819703,0.002923218185456889
-0.49365898285686854,-0.49365898285686854,0.9998272354248717,0.002479295564365654
-0.493552866250684,-0.493552866250684,1.0011712075849488,0.003041624377544342
-0.4933774238510523,-0.4933774238510523,0.9996723936812171,0.003229139367919689
-0.4932621307343652,-0.4932621307343652,1.0002775302879523,0.0030569795467252645
-0.4931964913950651,-0.4931964913950651,1.0012356085621328,0.003379851136594141
-0.4930668892993708,-0.4930668892993708,0.9988314317481098,0.0027697724950693997
-0.49296626320283393,-0.49296626320283393,1.0019721943924085,0.004090355907899941
-0.4928158817529038,-0.4928158817529038,0.9992854342591085,0.002718459352491217
-0.4926950638036942,-0.4926950638036942,0.9993128510337572,0.0035656087428474334
-0.49254102132326805,-0.49254102132326805,0.9983199534837878,0.0031948915770691902
-0.4923352524958318,-0.4923352524958318,0.9999291219138964,0.003418405752183531
-0.49217424176094937,-0.49217424176094937,1.0007484212169513,0.0026699826669789183
-0.4920656432492251,-0.4920656432492251,1.003093577073151,0.0033715203020739716
-0.4919064582056308,-0.4919064582056308,0.9992238931651805,0.003051043170889876
-0.49178466483572264,-0.49178466483572264,1.000086198355747,0.002817388177504063
-0.49168007174448575,-0.49168007174448575,1.002622436192801,0.0033070315722499083
-0.4915782535288599,-0.4915782535288599,1.0017368048965278,0.004005380327763762
-0.4914347188656393,-0.4914347188656393,1.0038609628849628,0.004027088652388559
-0.49128913339227437,-0.49128913339227437,1.00188964388287,0.0034428236699660664
-0.4911463611308136,-0.4911463611308136,0.9976547107441414,0.003311334722891756
-0.4910232265770901,-0.4910232265770901,0.9986545321400035,0.003121686610428869
-0.4908599653186684,-0.4908599653186684,1.0003151384821243,0.002514084790036283
-0.49075672416802263,-0.49075672416802263,0.9991692025433648,0.00302910164968235
-0.4906766791093105,-0.4906766791093105,1.0013957140813936,0.003166840568846211
-0.4905414736800594,-0.4905414736800594,1.0012450372615511,0.0033447304528351402
-0.4904016844215221,-0.4904016844215221,0.9981485224712724,0.003764304330882349
-0.4902630865908577,-0.4902630865908577,1.0023117971845974,0.0028714040552113933
-0.49014541308933984,-0.49014541308933984,0.9984555757567476,0.0032602580433208316
-0.49002775237895546,-0.49002775237895546,0.9987056867890134,0.0038044954209519935
-0.4899221532868978,-0.4899221532868978,1.0001331608082278,0.002977137235797209
-0.4898058907747327,-0.4898058907747327,1.0007206805043638,0.002707316611936672
-0.4897108751029009,-0.4897108751029009,1.0024518104372067,0.0029199298343413884
-0.489509946549515,-0.489509946549515,0.9989200329500594,0.003815860931221154
-0.4894330091156007,-0.4894330091156007,1.0003848694174051,0.002492836146463247
-0.48934216136985925,-0.48934216136985925,0.999996485114452,0.0036245961092174366
-0.4892034966273059,-0.4892034966273059,0.9957940099976049,0.0029011862221232755
-0.4890914402480121,-0.4890914402480121,0.9995248113132712,0.0031967207186443585
-0.48901642490018277,-0.48901642490018277,0.9996482161896205,0.0028670610602952048
-0.4889067774114665,-0.4889067774114665,0.9997773744884466,0.0042015156661958965
-0.488822967109445,-0.488822967109445,0.9996522037958012,0.0029552602806101292
-0.4887541168332973,-0.4887541168332973,0.9992500502804479,0.0033008241461711845
-0.4886601760961639,-0.4886601760961639,0.9973221717186294,0.0032625559118726146
-0.4885434055206133,-0.4885434055206133,1.001989217028333,0.003552073737105672
-0.4884009242363391,-0.4884009242363391,1.0024449181860118,0.003214409019126512
-0.4882547741704911,-0.4882547741704911,1.0017439856605193,0.002367915616785099
-0.4880715733714169,-0.4880715733714169,0.9989586303382559,0.0027857475110027443
-0.4880233717172814,-0.4880233717172814,1.0004911303581623,0.0030805716100717
-0.4879255312858731,-0.4879255312858731,0.9975820552726654,0.003017266350870784
-0.48786371390451677,-0.48786371390451677,1.0002471449290364,0.003111388473787319
-0.48777887081887455,-0.48777887081887455,0.9974001498658718,0.002698928233597922
-0.48768853114161176,-0.48768853114161176,1.0001566894805547,0.0031233178772286183
-0.487627184343728,-0.487627184343728,0.9976126836731872,0.003633960517679298
-0.48741769458647466,-0.48741769458647466,0.9990463746301061,0.0036928072037280156
-0.48728853811117007,-0.48728853811117007,1.0019113073304697,0.0032084203637852355
-0.48720477490787745,-0.48720477490787745,1.0016914084676753,0.0032661418293144944
-0.48711508887427046,-0.48711508887427046,0.9990620241778971,0.003666753872673425
-0.48698705862043423,-0.48698705862043423,1.0027686572219825,0.0029382403907856295
-0.48689083121425936,-0.48689083121425936,1.0015517773614133,0.0023152603229611417
-0.4867723558985745,-0.4867723558985745,1.0012023142206898,0.0036268581823998116
-0.4866216679867648,-0.4866216679867648,0.9999448430858529,0.0029867289361520653
-0.48646323879802367,-0.48646323879802367,1.000573086492621,0.003253966367839565
-0.4863120851972781,-0.4863120851972781,1.0005756421420084,0.003359499766028052
-0.4861863414720574,-0.4861863414720574,0.995305015061944,0.0029944289825968784
-0.48605381203669823,-0.48605381203669823,0.9998530947409205,0.0034882942402500216
-0.4859618959198997,-0.4859618959198997,0.9984647794317855,0.0028699348306393717
-0.48576764910612835,-0.48576764910612835,0.9943053860582927,0.003707335540751895
-0.48560347439779433,-0.48560347439779433,1.0002349576666194,0.0024329453166235387
-0.4854850133378932,-0.4854850133378932,0.998042401209014,0.003285596179120228
-0.48534672891837544,-0.48534672891837544,1.0000836291357638,0.003586768702151677
-0.4852486461873923,-0.4852486461873923,0.9976740789696489,0.0027279149359007845
-0.4851660727254057,-0.4851660727254057,0.998468732695952,0.003490518853371109
-0.4849866533055319,-0.4849866533055319,1.0014534014942307,0.0032497178463780723
-0.4848634978516202,-0.4848634978516202,0.9997659758645312,0.0030821906501341625
-0.4847641658619978,-0.4847641658619978,1.001782005612508,0.0037611088806278393
-0.4846621344899177,-0.4846621344899177,1.003138879734251,0.00338830175303662
-0.48455561233713523,-0.48455561233713523,0.9993436203702313,0.0029371380812884176
-0.4844133555998269,-0.4844133555998269,0.9961807467236218,0.00279215330721357
-0.48431274039612615,-0.48431274039612615,1.003060308791593,0.0034130870619165504
-0.48419807725513236,-0.48419807725513236,0.9981801457791658,0.003384365047819008
-0.48406482361169767,-0.48406482361169767,1.000704350768304,0.00281002324821924
-0.4840230172863812,-0.4840230172863812,1.0005167807949686,0.002846393726724075
-0.48393413744415736,-0.48393413744415736,1.0018097799889418,0.0037477941812972446
-0.4837984915990091,-0.4837984915990091,1.000608997358895,0.0026909245783182144
-0.4836950356599118,-0.4836950356599118,1.001751761646481,0.003921770003667656
-0.48361686570569873,-0.48361686570569873,0.9997972724544079,0.0037076974836451684
-0.4835031220623932,-0.4835031220623932,0.9985523833942247,0.003586886447561543
-0.483405174784275,-0.483405174784275,1.0058278405976306,0.0037706487939539223
-0.48327941069874214,-0.48327941069874214,0.9978871653092037,0.003750922806732557
-0.48318673377216326,-0.48318673377216326,1.0027985084635513,0.0025858513203298058
-0.48305329509821604,-0.48305329509821604,1.000904015581447,0.0030544926098309564
-0.4828790040832246,-0.4828790040832246,1.0017930085695876,0.003429091004151439
-0.4827808484937123,-0.4827808484937123,1.0009933358350636,0.002804309941919869
-0.4825725066024461,-0.4825725066024461,0.9986514984091684,0.0028826763013689105
-0.48246003981548713,-0.48246003981548713,0.9989157081789013,0.0037856550741369142
-0.48236922363212215,-0.48236922363212215,0.9994167393929156,0.002709438808483043
-0.48226812403590885,-0.48226812403590885,0.9997638991510325,0.002757163976855135
-0.48213538378695375,-0.48213538378695375,0.9991419402481139,0.0027590609337932626
-0.48206758868545874,-0.48206758868545874,1.0032850842912548,0.003736745520626899
-0.48193150178194627,-0.48193150178194627,0.999138644813468,0.003293258381489022
-0.48175136811696573,-0.48175136811696573,0.9965750783334449,0.0031255254920503203
-0.481633571999555,-0.481633571999555,0.9979460731967034,0.0031276879254677503
-0.48152257487163297,-0.48152257487163297,1.001036455057339,0.002871247872044411
-0.481465506296081,-0.481465506296081,1.0022452604374095,0.003973959551266229
-0.4813852498504275,-0.4813852498504275,0.9997376273526122,0.0026772741018673885
-0.48124665590366933,-0.48124665590366933,1.00305389584498,0.0027282222774189023
-0.48113551029746304,-0.48113551029746304,1.0011913471821035,0.003614395106533707
-0.48100346261344384,-0.48100346261344384,1.0034054812060922,0.0033708592744066323
-0.48085139319227893,-0.48085139319227893,1.0006099116082237,0.003153741918592528
-0.48066068164480386,-0.48066068164480386,0.9970410245363265,0.0038602420782078164
-0.4804969549877569,-0.4804969549877569,0.9964437204139347,0.0028334762986500306
-0.4802901788498275,-0.4802901788498275,0.9987914146611538,0.0029231878156803326
-0.4801809264201438,-0.4801809264201438,0.9989630708182002,0.003321006986757972
-0.48006237659137696,-0.48006237659137696,1.0004627555455912,0.00296462345611818
-0.4799769599754654,-0.4799769599754654,0.998245838151384,0.002653413446872619
-0.47986672462066055,-0.47986672462066055,1.003802212519341,0.004062258984640384
-0.4796983526175609,-0.4796983526175609,1.0004968602461068,0.0032802201997686803
-0.47964326382789296,-0.47964326382789296,0.9989726890956938,0.003337731934252689
-0.479563339275046,-0.479563339275046,1.005910955893427,0.003231084360693079
-0.4794574682797247,-0.4794574682797247,1.0018823405561565,0.0033494139721442035
-0.479340634005348,-0.479340634005348,0.9990751621600626,0.003307850571031133
-0.4792583278634993,-0.4792583278634993,0.9960429627931218,0.0030001338169951754
-0.47907302297026033,-0.47907302297026033,0.9978825665461752,0.003099842471595763
-0.47889470903683107,-0.47889470903683107,1.003319085393133,0.003784469604184716
-0.47882795187615557,-0.47882795187615557,0.9989110991143345,0.0034097851994712033
-0.4787172276788624,-0.4787172276788624,0.9998487620667129,0.0032129946528672315
-0.4786019100232807,-0.4786019100232807,1.0020013663827922,0.0030871944145852955
-0.478467751442804,-0.478467751442804,1.0007972208973475,0.0037237883988681894
-0.47839066862652546,-0.47839066862652546,1.0018758856994199,0.0030242949578084067
-0.4782819518528413,-0.4782819518528413,0.9989608014835891,0.002792543433094437
-0.47818935963514375,-0.47818935963514375,0.9975343741242539,0.003900182708188854
-0.4780581720726332,-0.4780581720726332,1.0030652873371089,0.0033396953843209108
-0.4779335407787585,-0.4779335407787585,1.0030944724998716,0.0035329680249044726
-0.4777891177436686,-0.4777891177436686,1.0039140410826355,0.003024725532223686
-0.4777125875283673,-0.4777125875283673,1.0037298720660868,0.002960392112430415
-0.47752180111929193,-0.47752180111929193,1.0020837460804466,0.0029675627407572975
-0.4773951808041602,-0.4773951808041602,0.9969805997674468,0.0032511407854138065
-0.47726639571701523,-0.47726639571701523,0.9974694289098096,0.0029465077820178113
-0.4771735018963227,-0.4771735018963227,0.9999151779684352,0.0037549574366561255
-0.47707493335037726,-0.47707493335037726,1.0030678083893088,0.002625760177866203
-0.47696551931658177,-0.47696551931658177,1.0009156713017282,0.004201620678977652
-0.47680305825997493,-0.47680305825997493,0.9989390569255663,0.002861865446202173
-0.4766988346586004,-0.4766988346586004,1.0002965846917022,0.00343040161292251
-0.47658752035276847,-0.47658752035276847,1.0009512884432359,0.0032597653714637152
-0.4764550189167494,-0.4764550189167494,0.99643018742293,0.0031172168369360516
-0.47636091386302726,-0.47636091386302726,0.9989287404598117,0.0026075683438214624
-0.476282244574395,-0.476282244574395,0.9992552025164617,0.002977575648615909
-0.476194254856091,-0.476194254856091,1.0004460705910314,0.0034074209376536643
-0.476023761020042,-0.476023761020042,0.9999635585638753,0.002927496742723198
-0.47590511454473017,-0.47590511454473017,0.9972076861401223,0.004087087287188687
-0.4756970843016461,-0.4756970843016461,0.9995707101386,0.0030876954701326087
-0.47560684601194225,-0.47560684601194225,0.9968140995784192,0.0034929833720185877
-0.4754521205562924,-0.4754521205562924,1.0007134709521872,0.0035322918620851705
-0.47535518619260986,-0.47535518619260986,1.00025290137598,0.0031999038903889007
-0.47526104890275744,-0.47526104890275744,0.9993320950904498,0.003003790497485034
-0.47507234093282025,-0.47507234093282025,0.9979511705268844,0.0038068753156777443
-0.4749655781844922,-0.4749655781844922,0.9995867953870364,0.0022329674763121705
-0.4748509046970867,-0.4748509046970867,1.0013679039012455,0.0035373711313306223
-0.47474619817585334,-0.47474619817585334,0.9983429837508219,0.002991351095237008
-0.47464605087370726,-0.47464605087370726,1.0004161789536488,0.0034707679354075483
-0.4745373791483871,-0.4745373791483871,1.0004660966029018,0.003515957606186001
-0.474380698351888,-0.474380698351888,0.9999782242420656,0.0027861296151050746
-0.47429184460634133,-0.47429184460634133,1.0018712771819822,0.0031371954716611695
-0.47420743491747996,-0.47420743491747996,0.9988498762675491,0.003892555816203813
-0.47411196225730234,-0.47411196225730234,0.9995747814362769,0.00283018299390778
-0.47401554122625383,-0.47401554122625383,0.997359529681555,0.0029424150266740947
-0.4739161880599568,-0.4739161880599568,1.0010479030327453,0.003333831130221939
-0.47377356396755205,-0.47377356396755205,1.0008051129904643,0.0025098197683926238
-0.4736309647989401,-0.4736309647989401,0.9972516998190425,0.0033654221255302224
-0.4735382503327855,-0.4735382503327855,0.9986690064566446,0.0028225838259513967
-0.47345790185572695,-0.47345790185572695,0.9991088014066645,0.0034590514053120767
-0.4733764975309896,-0.4733764975309896,1.0027039967190925,0.002527060729376518
-0.47324859742584524,-0.47324859742584524,0.9980873159495758,0.0030940332939246784
-0.4732082389280549,-0.4732082389280549,0.9977441006744521,0.00277673614286708
-0.47312775985410555,-0.47312775985410555,0.9984009798412824,0.0036208057407711076
-0.4729798046108044,-0.4729798046108044,0.9983346875940035,0.004076229571575444
-0.4728314147607307,-0.4728314147607307,1.000782388680053,0.003475925700475379
-0.4727363210702606,-0.4727363210702606,0.9990400526567347,0.0032719427636046924
-0.47263335676689167,-0.47263335676689167,1.0011629851098678,0.003065480904618026
-0.4724946620153787,-0.4724946620153787,1.0023190447279813,0.0028259404766574304
-0.4723681040122756,-0.4723681040122756,1.0003285106584783,0.003138824921776748
-0.4722656864927558,-0.4722656864927558,0.9989914382411275,0.0032819412782382033
-0.47210411053238205,-0.47210411053238205,1.0006375704870962,0.0025791856676308754
-0.4719522666920966,-0.4719522666920966,0.9992425267185169,0.0039662372974077695
-0.47189641454679077,-0.47189641454679077,0.999950618085373,0.0028323061784769543
-0.47178381807389086,-0.47178381807389086,0.9997418044012673,0.0026730166004288436
-0.47168332543733416,-0.47168332543733416,0.9973350728796255,0.003470527238167713
-0.4715868232997309,-0.4715868232997309,0.9992520019209652,0.0034122392558526998
-0.4714934751362307,-0.4714934751362307,0.9991098974327379,0.0031171485055682007
