time,time,flux,flux_err
-0.4998236901543957,-0.4998236901543957,0.9999383049121168,0.0004486206404322318
-0.4994514904216582,-0.4994514904216582,0.9989361203886519,0.000574854260132526
-0.49890227844722784,-0.49890227844722784,0.9999959490297746,0.00047353072166630956
-0.49853846538680957,-0.49853846538680957,0.9996039997301771,0.0003748815584985837
-0.49827264587947867,-0.49827264587947867,0.9998240469596313,0.0004043966950319001
-0.4979235879407497,-0.4979235879407497,1.0002615345765715,0.0004493500927557637
-0.4977573317621136,-0.4977573317621136,0.999638596661782,0.00040942048964568947
-0.49755366615063396,-0.49755366615063396,1.0001475350969813,0.00039748117411870674
-0.4972828471029061,-0.4972828471029061,0.9997150970867356,0.0004303642129432156
-0.4969103371709934,-0.4969103371709934,0.9996952574461595,0.0004670811859088026
-0.496607772760035,-0.496607772760035,0.9998652271081673,0.00037600266805528433
-0.4962013813703379,-0.4962013813703379,0.9995808796444752,0.00043354838126102407
-0.49573758272090346,-0.49573758272090346,0.9990877695589407,0.0004113483282253391
-0.4951986919171759,-0.4951986919171759,1.0000997356536607,0.0003803921267406106
-0.49484683138143737,-0.49484683138143737,1.0002556455281344,0.0003745196831020692
-0.49466044016953675,-0.49466044016953675,1.0002476194052021,0.00039036975320237623
-0.49429486727894983,-0.49429486727894983,0.9999646244653118,0.0003560181175856807
-0.4940872364248207,-0.4940872364248207,0.9997235004612243,0.00039822852664631194
-0.49393275750262544,-0.49393275750262544,1.0003393087643873,0.00040114955645501136
-0.4936344045192527,-0.4936344045192527,1.000550571360316,0.0005151058296009784
-0.49320781223214,-0.49320781223214,1.0002096468905273,0.00039004824335744427
-0.4929568173705775,-0.4929568173705775,1.00078340647029,0.0004834494302597945
-0.49277039558801333,-0.49277039558801333,1.0005569249665747,0.0004022113498944837
-0.49231768657627983,-0.49231768657627983,0.9998109125458827,0.0003782319358050383
-0.4919356895632518,-0.4919356895632518,1.0000128684818255,0.00038968702057674734
-0.4917329320414865,-0.4917329320414865,0.9999827869112021,0.0005861697852698038
-0.4916051099797187,-0.4916051099797187,1.0006183442339036,0.00048443072980814517
-0.49132169460426667,-0.49132169460426667,1.0000588763215792,0.00042772309560361397
-0.4911538449508953,-0.4911538449508953,0.9996714471087145,0.00040365156504383983
-0.49070728783335654,-0.49070728783335654,0.9995416208427912,0.00038860547070493476
-0.4904911219164205,-0.4904911219164205,0.999856688692468,0.00041248672978596885
-0.49018301656105906,-0.49018301656105906,0.9990817998336416,0.0004594806829742025
-0.48990032931396854,-0.48990032931396854,0.9995751933161925,0.0004413853175917261
-0.4896776702007628,-0.4896776702007628,1.0002384790995211,0.00043520881212991066
-0.48922990047212805,-0.48922990047212805,0.9995652608622148,0.0004015837265132373
-0.4889388952185982,-0.4889388952185982,0.9997418921300956,0.0003603279644907187
-0.488665555055195,-0.488665555055195,1.0005542373453915,0.0003980384371973764
-0.48844876033690526,-0.48844876033690526,1.0000698057464186,0.000408362457117873
-0.4882857428623538,-0.4882857428623538,1.0000536998922052,0.00034991533320306595
-0.4880339143703168,-0.4880339143703168,0.9998949607825699,0.0003988832389540347
-0.4877111443660397,-0.4877111443660397,0.9999777191659085,0.00040550086516463843
-0.48739454159076556,-0.48739454159076556,1.000385590497343,0.00041066650238902775
-0.4870265535020735,-0.4870265535020735,0.9996300333797652,0.00035778822436468704
-0.48665539156936577,-0.48665539156936577,0.9998484268490995,0.00041485021365055013
-0.4863553310802672,-0.4863553310802672,0.9998084142798817,0.0003981170076796092
-0.4860371682611003,-0.4860371682611003,0.999955402817918,0.0003697845123522347
-0.48578231324863735,-0.48578231324863735,1.0006459115249318,0.0003891059407301188
-0.4854744982942066,-0.4854744982942066,1.0000277341937849,0.00039125046718418494
-0.4852127923411899,-0.4852127923411899,0.9993745580212552,0.00038963038670499693
-0.4847755199589301,-0.4847755199589301,0.999297983263171,0.00039057912883607045
-0.4844234962009068,-0.4844234962009068,1.000647746201618,0.0004302483671426081
-0.48398409379005897,-0.48398409379005897,0.9997290751687755,0.00044640754382747384
-0.4836449398942932,-0.4836449398942932,0.999142810842906,0.00051111890574852
-0.4834928431475419,-0.4834928431475419,1.0001917043760196,0.0005361532061713071
-0.4832491218316136,-0.4832491218316136,0.9992000908807712,0.00038692140723805993
-0.48292076189172806,-0.48292076189172806,1.0002848804023523,0.0003917857836535423
-0.48253856959345287,-0.48253856959345287,0.9999529586552038,0.00040597682745761984
-0.48232701388478744,-0.48232701388478744,1.000097194776728,0.00042973552111549997
-0.48210708891347165,-0.48210708891347165,0.9998919333784013,0.0004599741395478099
-0.48179057630040917,-0.48179057630040917,0.9997190415385088,0.0004360188940680961
-0.4813427722423512,-0.4813427722423512,1.0001179124256727,0.0004291772421438062
-0.4810092091858678,-0.4810092091858678,1.0003241790825022,0.00037004080274061755
-0.4806938351917779,-0.4806938351917779,1.0003977124847054,0.0003901109841592227
-0.48033035204716723,-0.48033035204716723,1.0001674805440308,0.00039044588248630333
-0.4801802956055326,-0.4801802956055326,0.9995807641503982,0.0005089793184706887
-0.4799999229988316,-0.4799999229988316,1.0001258217580271,0.0003818007549457298
-0.47980469724861907,-0.47980469724861907,0.9998999287410438,0.0003996251002514577
-0.47962552137032616,-0.47962552137032616,0.9998972821121459,0.0003804280751753661
-0.47943997192560345,-0.47943997192560345,0.9999808140119282,0.0003737638422862649
-0.4791899878167897,-0.4791899878167897,1.0001529465886474,0.0004617870901263038
-0.4788488388992846,-0.4788488388992846,1.000789568581613,0.00041610689916101893
-0.47846310446839196,-0.47846310446839196,0.9996434243805226,0.0003814175173864166
-0.478161004701542,-0.478161004701542,1.0002192412078519,0.00043173666307204535
-0.4777360411520931,-0.4777360411520931,1.0000783171341223,0.00041121434387733185
-0.4773192716616904,-0.4773192716616904,1.00039660283834,0.0003920354881101594
-0.4771473716042237,-0.4771473716042237,1.0001312947069905,0.0003700808527381287
-0.4767890030714625,-0.4767890030714625,1.0000888466589224,0.00037439824700255563
-0.4766115208964038,-0.4766115208964038,1.000852808492413,0.00039536182828490236
-0.476415795320645,-0.476415795320645,0.9999618306162208,0.0005292307298887931
-0.4760967685659125,-0.4760967685659125,0.9998852828819071,0.00041554395780829187
-0.4755857486910827,-0.4755857486910827,1.0007686866358383,0.0004780060492851489
-0.4754017208273581,-0.4754017208273581,1.0002094710583562,0.00043114764646040306
-0.47521178102251727,-0.47521178102251727,0.9997637068807175,0.00036890673581908503
-0.47458829458919355,-0.47458829458919355,1.0000515535468704,0.0003922091359642569
-0.47428670724184485,-0.47428670724184485,1.0001363541048274,0.0004051729918041338
-0.47415801312454275,-0.47415801312454275,0.9997720935073815,0.0005787245589083843
-0.4738799205748364,-0.4738799205748364,0.9996736364247667,0.0004679111781372222
-0.4736706940515433,-0.4736706940515433,0.9998270464227584,0.0003818532941719304
-0.4732802902646654,-0.4732802902646654,1.0004126724623963,0.0004028117878081499
-0.4728044343668444,-0.4728044343668444,0.9999848659516957,0.0004535245664245138
-0.4724539406728582,-0.4724539406728582,1.0006808001167729,0.00044143269783403894
-0.47222712740840506,-0.47222712740840506,1.0001385848881905,0.0004201599950158129
-0.4720844104915159,-0.4720844104915159,0.9996390168113052,0.00039266363250892123
-0.47175041053196765,-0.47175041053196765,0.9998552231210154,0.00038510037208821764
-0.47154678395090743,-0.47154678395090743,0.9997152381037251,0.00039925530525408167
-0.47128261600519183,-0.47128261600519183,0.9999525023310725,0.00038149865960584366
-0.47108744664146796,-0.47108744664146796,1.0005327918802358,0.00039368591231243085
-0.47088905292039274,-0.47088905292039274,1.0000634015019574,0.0003927868020144719
-0.47061242434501765,-0.47061242434501765,1.0000288059107718,0.00039892313087599486
-0.4702532629518828,-0.4702532629518828,1.0003085176446995,0.0004031360564119697
-0.46992842564941384,-0.46992842564941384,1.0002553914209695,0.0003702956247247865
-0.46965076936321565,-0.46965076936321565,0.9997493153447531,0.00039103395055214887
-0.4692125541398127,-0.4692125541398127,0.9999042898615154,0.00039219376957929064
-0.4689176767111348,-0.4689176767111348,0.9993485425815767,0.0003709342857953272
-0.46855584168224595,-0.46855584168224595,0.9995808630808432,0.00039126967884658466
-0.4682848311305861,-0.4682848311305861,1.0000547424943116,0.0003896378909647383
-0.46799051778507417,-0.46799051778507417,0.9996108493183437,0.000391097127664349
-0.46772766093417883,-0.46772766093417883,0.9998851211576498,0.0003743390320881876
-0.4673257016293064,-0.4673257016293064,0.999816473073748,0.0004051272954713877
-0.4670889901084593,-0.4670889901084593,1.000515175148288,0.00038984919091239267
-0.46677616353626944,-0.46677616353626944,0.9996365128965659,0.0004767024381697353
-0.4664550060457259,-0.4664550060457259,1.0001258561292135,0.0004581978800347505
-0.46611693959566763,-0.46611693959566763,1.0007478040296378,0.0005126083827900429
-0.46594086388431605,-0.46594086388431605,1.0009917199481202,0.0004861044131237606
-0.46573731992466494,-0.46573731992466494,1.000308751730393,0.00040748537874814056
-0.4652854578693223,-0.4652854578693223,0.9996472882525544,0.00039184476081463175
-0.4649012496927753,-0.4649012496927753,1.000322909284723,0.00042190760866467743
-0.46451921940679314,-0.46451921940679314,1.0001051748686653,0.00046385488135609437
-0.46420091151303494,-0.46420091151303494,0.9995479624043705,0.0004222058409702162
-0.46373246253206163,-0.46373246253206163,1.0000991511481985,0.0003994421231944045
-0.4634065773578186,-0.4634065773578186,1.0002192192799075,0.0003721392909521512
-0.4630909511819482,-0.4630909511819482,1.0001320811792553,0.00040879656510609214
-0.46282921135571087,-0.46282921135571087,0.99996107120177,0.0004015130130001256
-0.46267332435236314,-0.46267332435236314,1.0001058178006297,0.0004169202213985115
-0.46247490164314514,-0.46247490164314514,0.9996476985996076,0.00039413942706017753
-0.46228672295328577,-0.46228672295328577,0.9994167510146438,0.0004278965524956535
-0.46208269463822943,-0.46208269463822943,1.0000229981916129,0.0004011769556576711
-0.46179570723325014,-0.46179570723325014,1.0001085528515248,0.00037072946419208547
-0.4614700975253072,-0.4614700975253072,1.000371048642362,0.00041806552472788627
-0.4610485166340368,-0.4610485166340368,1.0001062902478945,0.00039579825199883764
-0.46080636572587536,-0.46080636572587536,0.9998881402053386,0.00039214293662947217
-0.4602560105755401,-0.4602560105755401,1.0007638663931813,0.00042356916877339245
-0.4599120702900109,-0.4599120702900109,1.0001753378562204,0.0004011074091328411
-0.4597369418675953,-0.4597369418675953,1.000404684291539,0.00038719828347890566
-0.4595364186410734,-0.4595364186410734,0.999550695332713,0.0004385381698227599
-0.45921405812550803,-0.45921405812550803,1.0008819375760551,0.0003955626897274491
-0.45897180579413543,-0.45897180579413543,1.0001493977348013,0.0005423347319034788
-0.4586225536892016,-0.4586225536892016,1.0000379999028723,0.000392492699835237
-0.4581722415467084,-0.4581722415467084,1.0002807667639249,0.0005096227992372251
-0.4579462482448434,-0.4579462482448434,0.9999900171533985,0.0004582144952117325
-0.45782851690091775,-0.45782851690091775,0.9998725116381261,0.0004828335937296241
-0.45747647294265337,-0.45747647294265337,0.9997428101019867,0.0003966332042065311
-0.45695901926446825,-0.45695901926446825,0.9997827893832317,0.0003680645817326426
-0.4567774096649373,-0.4567774096649373,1.000379293762728,0.00042139751741308254
-0.45664038866743795,-0.45664038866743795,0.9997721611903707,0.0006092137393623506
-0.456390299081977,-0.456390299081977,1.0000837340558564,0.0004509582467807524
-0.4561865779643995,-0.4561865779643995,1.0005919624687816,0.0004022203411062174
-0.4556869631051086,-0.4556869631051086,1.0002793452488628,0.0004050682006228109
-0.4551979668452987,-0.4551979668452987,0.9998349002963657,0.00043671094182481756
-0.45487729741435035,-0.45487729741435035,0.9999657486992778,0.0004399556295972309
-0.45468841824986156,-0.45468841824986156,1.0005869006047914,0.00045886821490902983
-0.45429909378653976,-0.45429909378653976,0.9999469996692796,0.0003846213050242363
-0.454123489378253,-0.454123489378253,1.0005494178263779,0.0003765333223024813
-0.4539090215432225,-0.4539090215432225,1.0007506445905476,0.0003631753674482592
-0.4536162350988889,-0.4536162350988889,1.0003222742516236,0.0003906201471017449
-0.4533893291481945,-0.4533893291481945,1.0002830451703493,0.00039270786601991475
-0.4531145659871981,-0.4531145659871981,1.000023835750664,0.0003993849339500263
-0.45275436832162086,-0.45275436832162086,1.0000775302995013,0.00040290462991349944
-0.4523286952644412,-0.4523286952644412,1.0000428712939367,0.0004104104075433092
-0.45191978367147384,-0.45191978367147384,1.0001610418536058,0.00037262802813015566
-0.45164767262831446,-0.45164767262831446,0.9997538146634595,0.0003876812489112235
-0.4513927818472439,-0.4513927818472439,1.0001849254242672,0.0003861277304398095
-0.45104719323571774,-0.45104719323571774,1.0001550216456807,0.0003961940788979857
-0.4506196825495863,-0.4506196825495863,0.9997969663329705,0.00041820747019955635
-0.4504807637771592,-0.4504807637771592,1.0004524504001775,0.00038960537306006706
-0.45025841740571193,-0.45025841740571193,0.9998402108273297,0.00037517243228111835
-0.44983549135067735,-0.44983549135067735,1.0003292364343759,0.00040624886586758835
-0.44954352786735396,-0.44954352786735396,1.000638830092996,0.0004137790536255659
-0.44910002668766535,-0.44910002668766535,1.0004058649125371,0.0003755037083315241
-0.44868063250687557,-0.44868063250687557,0.999632260071909,0.0005159796927794096
-0.44850500877000743,-0.44850500877000743,0.9998237020299389,0.0004550481803169685
-0.44827388667545165,-0.44827388667545165,1.0004108759208914,0.00040064000770376255
-0.4479841658307123,-0.4479841658307123,0.999903847532971,0.00039392059011675984
-0.4475592600771051,-0.4475592600771051,0.9999903973310964,0.0004080732807549644
-0.44734925018201466,-0.44734925018201466,0.999445601789797,0.00039172165155572077
-0.44706338284522645,-0.44706338284522645,1.000283903242246,0.0004666576339626344
-0.4468875132464746,-0.4468875132464746,0.9999088879965654,0.00043120205430018305
-0.4466513631399721,-0.4466513631399721,0.9998362599744797,0.00043264150316194293
-0.44608122420249857,-0.44608122420249857,1.0005766213683602,0.0003988266009553984
-0.44575357161447754,-0.44575357161447754,0.9999307178276251,0.0003893767857594369
-0.4454073632339714,-0.4454073632339714,1.0003312575766665,0.00040835598288859186
-0.44524502931672033,-0.44524502931672033,0.999746499938144,0.00039457778403265825
-0.44495051680787584,-0.44495051680787584,1.0001607758272897,0.00041927527808728935
-0.44472082372376465,-0.44472082372376465,1.0008199560129767,0.00042762547837784477
-0.4445204398747592,-0.4445204398747592,0.9999025065602674,0.00039493509901110624
-0.4441864746178908,-0.4441864746178908,1.0004511252648345,0.0003712705402471859
-0.4438844066418824,-0.4438844066418824,1.000009887669501,0.0004438592964533723
-0.44356285041139926,-0.44356285041139926,0.9997888083200672,0.0004104346069400477
-0.4433652197381889,-0.4433652197381889,0.999743832211407,0.0003701035918285204
-0.44290199367605965,-0.44290199367605965,0.9999635730371585,0.00041381958616082274
-0.44250893173739314,-0.44250893173739314,1.0005709096702842,0.0004044780542420941
-0.44231211587175495,-0.44231211587175495,0.9999199647507206,0.0004082387666834877
-0.4420865341453464,-0.4420865341453464,0.9996893915033226,0.0004373045878231849
-0.44169405118373106,-0.44169405118373106,0.9999472455987004,0.00041186009044083294
-0.4413881347354618,-0.4413881347354618,1.000081699844556,0.00040846392533878587
-0.4409662044250581,-0.4409662044250581,1.0000816627750546,0.0003956179964565815
-0.4405338092583406,-0.4405338092583406,1.000304392794551,0.0005277626589244749
-0.44043252248739007,-0.44043252248739007,1.0002020603905348,0.0004346414258244992
-0.44033217754986254,-0.44033217754986254,0.9996491699189887,0.0004886155176531692
-0.440018548763328,-0.440018548763328,1.000514136309874,0.00035341478005333695
-0.4395454918812902,-0.4395454918812902,1.000267404704579,0.0003923437452656037
-0.4392958967575396,-0.4392958967575396,1.0000001025431624,0.00040444741131913386
-0.43919159937722724,-0.43919159937722724,0.9999836161792522,0.0005571338665164833
-0.43893900364273575,-0.43893900364273575,1.0004097624998072,0.00045751253301550937
-0.4387187346779683,-0.4387187346779683,1.0003014146854194,0.0004020822068312519
-0.43837892752490004,-0.43837892752490004,0.9994725879827693,0.00041252090775426427
-0.4380195289668336,-0.4380195289668336,0.999951424723086,0.00037140192570637553
-0.4376242168546014,-0.4376242168546014,1.0000375026882995,0.0004255096399446648
-0.4372950432043581,-0.4372950432043581,0.9999178762170455,0.0004394622580871952
-0.43711117049533643,-0.43711117049533643,0.9995381934828786,0.00041928110677507714
-0.4368003202325781,-0.4368003202325781,1.000313140726767,0.00038187462662485144
-0.43657163563621,-0.43657163563621,1.0002237054699872,0.00037271322197569503
-0.4363750917320431,-0.4363750917320431,0.9999475859679805,0.0003869641637704726
-0.4361629441169498,-0.4361629441169498,1.000233606898849,0.00038736640180149853
-0.43593018616593326,-0.43593018616593326,0.9998828616854517,0.0004141321374016918
-0.4356742704243516,-0.4356742704243516,1.0000437220028986,0.00039728682678957566
-0.4352403294564283,-0.4352403294564283,0.9996265504065345,0.00039553998771037706
-0.43494044026811024,-0.43494044026811024,1.0000978106588538,0.0003733970777916371
-0.4345631725489511,-0.4345631725489511,1.000218317501112,0.00045029242446625135
-0.4341375532436359,-0.4341375532436359,1.0002592465090543,0.00042034228219963983
-0.4338235224116943,-0.4338235224116943,1.0005176236976965,0.0003716083299755095
-0.4335042370330484,-0.4335042370330484,0.9995519590526655,0.0004112301349865898
-0.43316924403989104,-0.43316924403989104,0.9999637224294393,0.00040925668346995217
-0.43294204686026205,-0.43294204686026205,1.0002958082524682,0.00041476266754557605
-0.43256866727460874,-0.43256866727460874,0.9994642019035466,0.0004294481431303691
-0.43230767019995253,-0.43230767019995253,0.999873303742944,0.00039443231015159577
-0.4321215161457076,-0.4321215161457076,0.9997164530144664,0.0003857512458513435
-0.4317865773155063,-0.4317865773155063,1.000499943409411,0.00040118455022290994
-0.43134641632714193,-0.43134641632714193,1.0001160857491023,0.0003897811250155047
-0.43109115613551696,-0.43109115613551696,1.0002651622012941,0.0004956702147875544
-0.43098549743954206,-0.43098549743954206,1.000140077608453,0.00045443580546379315
-0.43070609141068417,-0.43070609141068417,1.0003433065238627,0.0003925312532218469
-0.4303587073663948,-0.4303587073663948,1.0001938407034614,0.0003884493086597539
-0.430029975961952,-0.430029975961952,0.9997958335224005,0.00042433473402805265
-0.42974907486714076,-0.42974907486714076,1.0000828768642376,0.0004374891977059468
-0.42941118909220677,-0.42941118909220677,1.0000676505134996,0.0004106846137849682
-0.4291500769511913,-0.4291500769511913,0.9997440504927679,0.0004500883176165693
-0.4286793144128751,-0.4286793144128751,0.9999556796885173,0.0003857217608783786
-0.4283935853127332,-0.4283935853127332,1.000028380917716,0.0003761202502832045
-0.4281636190622521,-0.4281636190622521,1.0004433556899333,0.0003752616673443556
-0.42783863645163367,-0.42783863645163367,1.000575278742775,0.0004062640477639277
-0.42767115441092757,-0.42767115441092757,0.9999637429108766,0.0004003622261568219
-0.42745079903543226,-0.42745079903543226,1.0000282460547871,0.00044894318245905626
