time,time,flux,flux_err
-0.499917176129505,-0.499917176129505,1.0001038575366634,0.00011281342290786517
-0.49982592004016624,-0.49982592004016624,1.0000521139190544,9.999878730147189e-05
-0.4997418877996097,-0.4997418877996097,1.0000163413348013,0.00010193436446209645
-0.4996769333789416,-0.4996769333789416,1.0000966473863302,0.0001050263521982292
-0.4995678057195619,-0.4995678057195619,1.0000830033606174,0.00010217393178815556
-0.49945709164167057,-0.49945709164167057,0.9998961254160902,0.00010117161740150888
-0.49926599449536296,-0.49926599449536296,0.9999388348135104,0.00010546955470285917
-0.4990595073439181,-0.4990595073439181,1.0000526760058484,0.0001011388541915252
-0.4988777562059113,-0.4988777562059113,0.9998789547404684,0.00010142518928348639
-0.49872637169100925,-0.49872637169100925,1.0000759944828126,0.00010343945467412761
-0.49858764804012023,-0.49858764804012023,0.9998905390106902,0.00010234790293777197
-0.49846624977144527,-0.49846624977144527,0.9999992355034146,0.00010002410516564997
-0.49839256817431304,-0.49839256817431304,0.9999067486398378,9.974067009547763e-05
-0.4981954303118982,-0.4981954303118982,0.9998765359677421,0.00010399735113200071
-0.49801307656089194,-0.49801307656089194,1.0001275321888425,0.00010235986374709258
-0.49797252313946955,-0.49797252313946955,1.0000529606408723,9.9956427113295e-05
-0.4979072340014682,-0.4979072340014682,1.0000325440011681,0.0001037052130364264
-0.49778193259553516,-0.49778193259553516,0.9999561733255835,0.00010237760201964484
-0.49766800864672406,-0.49766800864672406,0.9999800032176157,0.000100825865969671
-0.4975297827630129,-0.4975297827630129,0.9999179695403096,9.794831811885718e-05
-0.4973951399042562,-0.4973951399042562,0.9997082213145504,0.00010351768781597975
-0.49724834383669075,-0.49724834383669075,0.9999799674903642,0.00010011872438633613
-0.4971374191794894,-0.4971374191794894,0.9998591974387303,0.0001009949883193202
-0.49701931840827457,-0.49701931840827457,1.000060583391397,9.903593055129462e-05
-0.4969325193451368,-0.4969325193451368,1.0001562588666386,0.00010273986169599988
-0.4967871266700968,-0.4967871266700968,0.999877776130252,0.00010282037351783658
-0.4966689258151746,-0.4966689258151746,1.0000051895355222,0.00010394205627213516
-0.4965938530884159,-0.4965938530884159,1.000041998552176,0.000102410525044882
-0.4964803140843287,-0.4964803140843287,0.9999763420375034,0.00010118736584018584
-0.49633322814042913,-0.49633322814042913,0.9999044950473681,0.00010548452325754737
-0.4962395102476876,-0.4962395102476876,0.9998561782762847,0.00010262047479035806
-0.49612801334806134,-0.49612801334806134,1.0000163162021027,0.00010408495865641251
-0.49603751234171795,-0.49603751234171795,0.9999152787428336,0.00010322405058105122
-0.49594958541856615,-0.49594958541856615,1.0000390510011694,0.00010274152139846269
-0.49584807538049064,-0.49584807538049064,0.9999504967234956,0.00010047506441566607
-0.4958124891614716,-0.4958124891614716,1.0000336145339899,0.00010078243732865152
-0.495685996094835,-0.495685996094835,1.0001053991332804,0.00010369593833114191
-0.49555814900159023,-0.49555814900159023,0.9999062299124493,0.0001015660027407106
-0.49550169234134955,-0.49550169234134955,1.0000672245011988,0.00010111848662485909
-0.4953171392065997,-0.4953171392065997,1.0000409838637705,0.00010142303576915917
-0.4951543958559341,-0.4951543958559341,0.999969716445489,9.846913037303967e-05
-0.4949568390249624,-0.4949568390249624,0.9998961118696286,0.00010180324772332337
-0.494807236402994,-0.494807236402994,0.9999631950923149,0.00010100535425293334
-0.49468313202742137,-0.49468313202742137,0.9998718810423076,0.00010343061085701902
-0.4945212579346844,-0.4945212579346844,0.9998803389866728,0.00010287842985753283
-0.49440478492251716,-0.49440478492251716,1.000140702219922,0.00010257610792538754
-0.494318248815398,-0.494318248815398,0.9999140073126819,0.00010318395991784973
-0.49421497421353705,-0.49421497421353705,0.9999639036186423,0.00010317393157951748
-0.49415121029378495,-0.49415121029378495,0.9999522381078119,0.00010312380634061012
-0.49408649624165263,-0.49408649624165263,1.0000291989661585,0.00010327592253960648
-0.4939632787296432,-0.4939632787296432,0.9998298598895689,0.00010187273145481049
-0.4938451252906816,-0.4938451252906816,1.0000458638658205,0.00011005223223099884
-0.49373686616891066,-0.49373686616891066,1.0000245303836248,9.894568276457273e-05
-0.49364710439185727,-0.49364710439185727,1.0000587386654805,0.00010211394035886467
-0.4935119495916297,-0.4935119495916297,1.0000282229049018,0.00010030866584991403
-0.49333060992939864,-0.49333060992939864,0.9999882943742003,0.00010289694602649234
-0.4932179621726391,-0.4932179621726391,0.9998555437519103,0.00010258964483373391
-0.4931299153744476,-0.4931299153744476,0.9999290599065684,0.00010189759863475985
-0.4930261290290218,-0.4930261290290218,1.0000004744834678,0.00010149851749910556
-0.49297258002407035,-0.49297258002407035,0.9999015723266954,0.00010215997164056214
-0.4928589093440678,-0.4928589093440678,1.0000880210177157,0.00010231893997231187
-0.49271197393682087,-0.49271197393682087,0.9999924599138236,0.00010085614072755371
-0.49257649097562534,-0.49257649097562534,0.9998565130523366,0.0001009638653179116
-0.49242314755319966,-0.49242314755319966,0.9997908688013611,0.00010124209703477711
-0.4923570664104773,-0.4923570664104773,0.9999033693907888,0.00010511157729568598
-0.49226391356351085,-0.49226391356351085,1.0001218189677175,0.00010064708020017677
-0.4921937922619691,-0.4921937922619691,1.0001391993978397,0.00010308154221785365
-0.4920228161208797,-0.4920228161208797,0.9998842697674568,0.00010120484901726126
-0.49193456256834905,-0.49193456256834905,0.9999041814830653,0.0001012968316343274
-0.4918662492702424,-0.4918662492702424,0.9998339996437127,0.00010326779309271113
-0.4917391514958581,-0.4917391514958581,1.0000271164338201,0.00010084622041961762
-0.49164813169263655,-0.49164813169263655,1.0000262641094666,0.00010449096342160809
-0.49149728974152823,-0.49149728974152823,1.000023848632876,0.00010069363100355294
-0.4913631213828921,-0.4913631213828921,1.0001274531283633,0.00010033662576640797
-0.49122643517766845,-0.49122643517766845,0.9999107160456735,0.00010372305208845433
-0.49110328937968006,-0.49110328937968006,0.9999214500809973,0.00010340511671276072
-0.49100571080634836,-0.49100571080634836,0.9999291399948202,0.00010125132000795138
-0.49093860027860503,-0.49093860027860503,1.0000940704417354,9.97286463587405e-05
-0.4908424387671403,-0.4908424387671403,1.000013244147843,9.929251035953711e-05
-0.49076648963527986,-0.49076648963527986,0.9998428460360346,0.00010002806007854332
-0.4907120406976901,-0.4907120406976901,1.0000327339839814,0.00010200792555191595
-0.49060615393027546,-0.49060615393027546,1.0000917230958297,0.00010461438527405733
-0.4905238282874052,-0.4905238282874052,1.0000060907206954,0.00010039639822474698
-0.4904242132062791,-0.4904242132062791,0.9999589793276268,0.0001014512666982731
-0.4903444867915823,-0.4903444867915823,0.9999369762834027,0.00010593556011725108
-0.49023202701064295,-0.49023202701064295,0.9999685807079451,0.00010004524582727512
-0.49007827679088223,-0.49007827679088223,1.0000315811097655,0.00010229442328404782
-0.4899582984042354,-0.4899582984042354,0.9999059591997765,0.00010211984470202658
-0.48977976992828187,-0.48977976992828187,0.9999513557698678,0.00010134314035589553
-0.4896345098663005,-0.4896345098663005,0.9999365975136826,0.00010291774388438035
-0.4894877575614373,-0.4894877575614373,0.9999484394659197,0.00010165890467902804
-0.48936798223439837,-0.48936798223439837,0.9999312337830026,0.00010102834536736686
-0.4891998493825668,-0.4891998493825668,0.9998915377911055,9.982861520531949e-05
-0.4889984088236815,-0.4889984088236815,1.0000512877181706,0.00010006697976737896
-0.4889124250643363,-0.4889124250643363,0.9998249841655777,9.838166426898401e-05
-0.4887434010845027,-0.4887434010845027,0.9998578754451597,0.00010371521028846151
-0.4885814649962413,-0.4885814649962413,0.9999465077418614,0.00010043466955317291
-0.48846434300066904,-0.48846434300066904,1.0001695101593353,0.00010416951921614496
-0.48836087454037624,-0.48836087454037624,0.9999165981690435,9.95259018346423e-05
-0.4882781629348756,-0.4882781629348756,1.0001485440021791,0.0001016622641094621
-0.4881881029657961,-0.4881881029657961,1.0000630796535597,0.0001036815398592088
-0.48811759149248246,-0.48811759149248246,1.0000268821683878,0.00010301058249069014
-0.4880147581199708,-0.4880147581199708,1.0000436005805322,0.00010221736420315968
-0.48789069193371687,-0.48789069193371687,0.9998876409533974,0.00010517059546615365
-0.4877384433304542,-0.4877384433304542,1.0000314789635196,9.959120133445174e-05
-0.48758474010464853,-0.48758474010464853,1.0001963011166664,0.00010366586992454508
-0.4873717499191116,-0.4873717499191116,0.9999439821477962,0.00010227655320295548
-0.4872292221261887,-0.4872292221261887,1.0001826145343475,0.00010335221301786978
-0.48708785879571226,-0.48708785879571226,1.0001172508484772,0.00010225735822877071
-0.48697206979777546,-0.48697206979777546,1.000100705666401,0.00010121676749748541
-0.48689674781635406,-0.48689674781635406,1.0001061767428283,9.97227681443235e-05
-0.486777345144219,-0.486777345144219,0.9999279130154605,0.00010123292263098594
-0.486523506922822,-0.486523506922822,0.9999774906349819,0.00010131212871707836
-0.48645148188224996,-0.48645148188224996,1.0000032036740298,0.00010178334899251556
-0.48640168899728453,-0.48640168899728453,0.9998659069479953,0.00010275418579767272
-0.48630479389321407,-0.48630479389321407,0.9998882492925179,0.00010135971580137583
-0.4861601709577371,-0.4861601709577371,0.99993787861812,0.00010216587349556587
-0.4859880920732394,-0.4859880920732394,0.9997571366878526,9.971815557617421e-05
-0.48583515601421823,-0.48583515601421823,1.0001074946740502,0.00010333797267606722
-0.485730833074922,-0.485730833074922,1.0000900327683349,0.00010077506184535753
-0.48559485823934667,-0.48559485823934667,0.9999655896162023,0.00010106494325798712
-0.4854675435439276,-0.4854675435439276,0.9999671992781705,0.00010097464690220586
-0.4853900256486668,-0.4853900256486668,1.000041640756466,0.00010384794766515244
-0.48521072178773467,-0.48521072178773467,0.9999744035211812,0.00010435506375942377
-0.48512575280547027,-0.48512575280547027,0.9997994323937036,9.937124465249648e-05
-0.4850125249162375,-0.4850125249162375,1.0001700644094615,0.00010133069926716211
-0.48491688056819837,-0.48491688056819837,1.0001135203243705,0.00010124372801924056
-0.4848022210404451,-0.4848022210404451,0.9998956275196974,0.00010372130485682603
-0.4846980720278225,-0.4846980720278225,0.9999005600077322,0.00010166415825989565
-0.48458905192819657,-0.48458905192819657,0.9998835800128025,0.00010156426190665845
-0.48448657500048287,-0.48448657500048287,1.0000607948204085,0.00010434104498056345
-0.48437258453923276,-0.48437258453923276,1.000019289819932,9.974074400973165e-05
-0.4842979366367217,-0.4842979366367217,1.000076734921128,0.0001036492128810149
-0.4842474968769238,-0.4842474968769238,0.9999572568891514,9.909984693219928e-05
-0.48405119583258055,-0.48405119583258055,0.9999647712590811,0.00010293199877424867
-0.4839769942125713,-0.4839769942125713,0.9999649039365697,0.00010161685001493779
-0.48380357688292863,-0.48380357688292863,0.9999955965593099,0.00010167886151507901
-0.4836760772996058,-0.4836760772996058,0.9999949743171896,9.972411731386713e-05
-0.48346985426251193,-0.48346985426251193,0.9998917648432879,9.972755859428925e-05
-0.4833167237302405,-0.4833167237302405,1.0000847348893638,0.00010346321224000122
-0.4831890122157347,-0.4831890122157347,1.0000337294490504,0.00010034351326150446
-0.4830602268542862,-0.4830602268542862,0.9999304284454812,0.00010149739660246919
-0.4828794546352583,-0.4828794546352583,1.0000821739830095,0.00010492783783328166
-0.4828020026325248,-0.4828020026325248,0.9999486689541813,0.00010324382368150144
-0.48269147249229716,-0.48269147249229716,1.0000932249770078,0.00010252484464849863
-0.48261975598943535,-0.48261975598943535,1.0000229080594405,0.00010326189709699085
-0.4824887448638037,-0.4824887448638037,1.0000229189564207,0.00010453083852881803
-0.48237767139216886,-0.48237767139216886,0.9999103813504492,0.00010138974584021683
-0.48222410041853436,-0.48222410041853436,1.000025390061091,0.00010143826887740976
-0.482167408636451,-0.482167408636451,0.9999824797529959,0.00010203147379243531
-0.48200509216403586,-0.48200509216403586,1.0001407355266205,0.00010125469424168208
-0.4818714419991011,-0.4818714419991011,1.0000874445567827,0.00010396808438253131
-0.481669891099591,-0.481669891099591,0.9998920304039363,0.00010083075237806096
-0.48153793049641536,-0.48153793049641536,0.9999218513641625,0.00010286195672547065
-0.4814487449315493,-0.4814487449315493,0.9999602467314996,0.00010130911008554291
-0.48139791325156694,-0.48139791325156694,0.9999503223967852,0.00010318448980766298
-0.4812514753139112,-0.4812514753139112,0.9998938656146563,0.00010214909058446086
-0.48113870514644075,-0.48113870514644075,0.9999470695907811,0.00010202911847940823
-0.48096591692301444,-0.48096591692301444,0.9998699189817282,0.00010028344284960225
-0.48087179697904503,-0.48087179697904503,1.0000460145381918,0.00010065558088544075
-0.4808021267737786,-0.4808021267737786,0.9998780693601192,0.00010486794728595344
-0.480732197144971,-0.480732197144971,0.9999210474351783,0.00010066462525733805
-0.48066872114141007,-0.48066872114141007,1.000020889444311,0.00011569599984106671
-0.4804940649075434,-0.4804940649075434,1.0000543149656178,0.00010426375261166209
-0.4803999509618734,-0.4803999509618734,0.9999339982049757,9.99196906763424e-05
-0.4802933421051421,-0.4802933421051421,0.9999215612119882,0.00010315063221432767
-0.48015806733092176,-0.48015806733092176,1.000072639729794,0.00010300236523253017
-0.4800585695404152,-0.4800585695404152,1.0001557632436062,0.00010326144934959453
-0.47991864298455766,-0.47991864298455766,0.9999054354342392,0.00010110434965435149
-0.47978071022516816,-0.47978071022516816,1.0000772995782523,0.0001040165622552012
-0.4796446004809695,-0.4796446004809695,0.9999873908537639,9.99103660801103e-05
-0.4795290767491679,-0.4795290767491679,0.9999973444465514,0.00010496259056764655
-0.4794428100649384,-0.4794428100649384,0.9998908568446907,9.90881109381963e-05
-0.4793499352374056,-0.4793499352374056,0.9999220991349214,0.00010087449601494502
-0.47925954538150106,-0.47925954538150106,1.0001397152044273,9.80567777888194e-05
-0.47920056691145874,-0.47920056691145874,0.9998416846184597,0.00010133358588219424
-0.4790914049044659,-0.4790914049044659,0.9999888167972596,0.00010487632743687552
-0.4789805557986256,-0.4789805557986256,1.0000284718520984,0.00010099593541062185
-0.47886258720609476,-0.47886258720609476,0.9999388655050453,0.0001016213984449713
-0.4788074223761214,-0.4788074223761214,0.9999982365029588,0.00010000469456587161
-0.47870781916572014,-0.47870781916572014,1.0001617743967017,0.00010422048362952716
-0.47856623853367636,-0.47856623853367636,1.0001506752242135,0.00010410527920535306
-0.4784206603304483,-0.4784206603304483,0.9998811058134589,0.0001015947491829254
-0.47826889043280973,-0.47826889043280973,0.9999399525924877,0.00010243301559486615
-0.4781617339613149,-0.4781617339613149,0.9999832413785092,0.00010070386278029106
-0.4779961672873469,-0.4779961672873469,0.999845003530312,0.0001020317043318904
-0.4779066800896544,-0.4779066800896544,1.000108865168047,0.0001030987472742379
-0.47777488625943076,-0.47777488625943076,0.9999557833829614,0.00010363511150937195
-0.4776182894136582,-0.4776182894136582,1.0002044299493247,0.00010226049680184834
-0.4774580182223872,-0.4774580182223872,0.999964069668291,9.977129769195476e-05
-0.4773154431939474,-0.4773154431939474,0.9998018963917813,0.00010092672523000852
-0.4771930314054771,-0.4771930314054771,1.0000302556784457,0.00010362160883799357
-0.4770549967193801,-0.4770549967193801,0.9999555489854431,0.000100086118424814
-0.476922062743688,-0.476922062743688,1.0000297038702737,0.00010259072436398021
-0.4768157792670536,-0.4768157792670536,1.0001001765440147,0.00010166985725655584
-0.4767273819896218,-0.4767273819896218,1.0000363346491055,0.0001021687495606056
-0.47663391093228713,-0.47663391093228713,0.9999668874530816,0.00010498106876102265
-0.4765589801485476,-0.4765589801485476,1.0000364370423902,0.00010161933257981935
-0.47643979654530993,-0.47643979654530993,1.0001746127443867,0.00010243625720026021
-0.47631583572656383,-0.47631583572656383,0.9999980962451736,0.00010490243934497555
-0.47620581777882764,-0.47620581777882764,1.0000059515464301,0.00010021061152100356
-0.4760740771482233,-0.4760740771482233,1.000016048146898,0.00010028150583180905
-0.47591782912422786,-0.47591782912422786,0.9999568794003354,0.00010068843839769919
-0.47577371396764645,-0.47577371396764645,1.0000706088513371,0.00010261167526968791
-0.47561057673956386,-0.47561057673956386,0.9999047911771569,0.00010492036776778678
-0.4754932845040457,-0.4754932845040457,1.0000314775541128,0.00010226124688220083
-0.47539883061908766,-0.47539883061908766,0.999983909266882,0.00010157743121102042
-0.47534229404409417,-0.47534229404409417,1.0001106896929404,0.00010031546312351503
-0.475145391033584,-0.475145391033584,0.9999366088812243,0.00010095943369856885
-0.4750033613650885,-0.4750033613650885,1.0000832907117814,9.999353189525807e-05
-0.4749356124448241,-0.4749356124448241,0.9999631255276341,0.00010263380449213792
-0.47489368710448615,-0.47489368710448615,0.9999517075642288,9.833462149390453e-05
-0.4748214289349562,-0.4748214289349562,1.0000477402831254,0.00010393637381723886
-0.4746871392329922,-0.4746871392329922,0.9999589756480016,0.00010331382160577146
-0.47454629955245764,-0.47454629955245764,1.000149377949764,0.00010080796634412672
-0.47435837923694635,-0.47435837923694635,1.000016761442285,0.00010110011275812985
-0.47417900084547,-0.47417900084547,1.0000110907245712,0.00010285485275315174
-0.474026194059843,-0.474026194059843,1.0000407910651574,0.00010023597326038562
-0.4739097188743472,-0.4739097188743472,1.000071313166543,0.00010035563678368238
-0.47382728128068263,-0.47382728128068263,1.0000382785745023,0.0001008418825155966
-0.47368671291405917,-0.47368671291405917,0.999877190009814,0.00010510843188179817
-0.47360859281543527,-0.47360859281543527,0.999927553468994,9.934691012975278e-05
-0.4735126189123548,-0.4735126189123548,0.9999715052720692,0.00010339812401724001
-0.47341441522949024,-0.47341441522949024,1.000030460904766,0.00010028663135382089
-0.473257352066139,-0.473257352066139,1.0000188900909253,0.00010373341144010858
-0.4731300559986266,-0.4731300559986266,1.0000074247041721,0.0001023341507855397
-0.47300203901831994,-0.47300203901831994,1.00010742909084,0.00010112675585084461
-0.47289687393931673,-0.47289687393931673,1.0001493461778037,0.00010307678590709029
-0.4727717034256784,-0.4727717034256784,1.0000345967999604,9.950416001915656e-05
-0.472734554589988,-0.472734554589988,0.9999700870171037,0.00010294512471605358
-0.4725504136789823,-0.4725504136789823,1.0000787600864989,0.00010218727514606124
-0.4724612924379471,-0.4724612924379471,1.000102811523519,0.0001018897443031618
-0.47236223938016336,-0.47236223938016336,0.9999591459195913,9.989767769811777e-05
-0.4722307285410352,-0.4722307285410352,1.0000165229922682,0.00010028303971607539
-0.47214755064924246,-0.47214755064924246,1.000087630330657,0.00010341328386432587
-0.4720366545880097,-0.4720366545880097,0.9999370296920492,9.80267875566577e-05
-0.47189938398369125,-0.47189938398369125,0.9999318937621403,9.972651976824067e-05
-0.47175838378461776,-0.47175838378461776,0.9999156092808541,0.00010300909877078291
-0.4716221035887429,-0.4716221035887429,0.9999369952946495,0.00010283249145980214
-0.47148650352391996,-0.47148650352391996,0.9999298993639589,0.00010347015336602083
-0.4713196661206894,-0.4713196661206894,1.0001197207874697,0.00010298621647074798
-0.4712452526517154,-0.4712452526517154,1.000129395638103,0.00010183638736942064
