time,time,flux,flux_err
-0.49907734078151406,-0.49907734078151406,0.9995123675971607,0.0004280784940128321
-0.497530185119831,-0.497530185119831,1.000226534319846,0.00042708884825403754
-0.4964706928760279,-0.4964706928760279,1.000415786731451,0.0004262346712711709
-0.49556114448787414,-0.49556114448787414,1.0001595968974022,0.00043285765625898485
-0.49299779215944,-0.49299779215944,0.9999399421680646,0.00042589434912090814
-0.4913213321444346,-0.4913213321444346,0.9999166009563748,0.0004286229757241433
-0.48978548898448937,-0.48978548898448937,0.9995797518858174,0.0004290098287937084
-0.488678493151383,-0.488678493151383,0.99995018071159,0.000427666884030003
-0.487216809563688,-0.487216809563688,1.0001100954031157,0.00042423087132653083
-0.4848588191642193,-0.4848588191642193,0.9995830390082044,0.00042473315246764127
-0.48336926533957014,-0.48336926533957014,0.9990558267972167,0.0004483786354731861
-0.48215376847510927,-0.48215376847510927,0.9995897298738514,0.00042909635033012365
-0.4800457666991861,-0.4800457666991861,1.0002339379340288,0.000428201534449049
-0.4783788941655075,-0.4783788941655075,0.9998234631107004,0.00042688796768096637
-0.47728419986669907,-0.47728419986669907,0.9993621925448876,0.0004277922910231635
-0.4755886024024221,-0.4755886024024221,1.0001080951832386,0.0004305447128604942
-0.4737096287120949,-0.4737096287120949,1.000329877512956,0.0004230579273430615
-0.4724864148607594,-0.4724864148607594,0.9994422908869064,0.0004309750790365114
-0.47095240407943495,-0.47095240407943495,1.0001677077331634,0.00043167849754867485
-0.4698304086996359,-0.4698304086996359,0.9995480748061552,0.0004292145160909765
-0.4686368009308353,-0.4686368009308353,1.0001634663583974,0.0004296149088975231
-0.4672429217884201,-0.4672429217884201,1.0008105346249505,0.0004252864145209382
-0.46516837622184537,-0.46516837622184537,1.0010262553545748,0.0004280876059830058
-0.46410574229521445,-0.46410574229521445,1.001163809441883,0.0004429856910313942
-0.4628330872001243,-0.4628330872001243,0.9995413589003681,0.0004304975234025518
-0.46146615824400217,-0.46146615824400217,1.0004777506784333,0.0004293111687508136
-0.4604536438448122,-0.4604536438448122,1.0007065892599776,0.0004321829642939364
-0.45923394921410365,-0.45923394921410365,1.0002466417202565,0.00042657829592116045
-0.45825907128164545,-0.45825907128164545,0.9998587717864714,0.0004283700734702164
-0.4575110444711754,-0.4575110444711754,1.0004562688987606,0.000431364483665892
-0.45565386792295615,-0.45565386792295615,1.0000647291543312,0.00043049086079035594
-0.45459406306035816,-0.45459406306035816,0.9996144483550822,0.0004255271030606885
-0.45358931063528873,-0.45358931063528873,1.0002123864375632,0.0004294065817652839
-0.45249740180443043,-0.45249740180443043,0.9999201173975225,0.0004301812273635808
-0.4516142194872373,-0.4516142194872373,1.0004521568170996,0.00043026898714329547
-0.4504570769247948,-0.4504570769247948,0.99997272938374,0.00042845837430255027
-0.44895728945557495,-0.44895728945557495,0.9999155739417128,0.00042786902283659095
-0.4479733538581058,-0.4479733538581058,0.9989807160813932,0.00042958345106664745
-0.4459044000104768,-0.4459044000104768,0.999675253232103,0.0004286177694616855
-0.44501433465920853,-0.44501433465920853,1.000112515776142,0.0004450692948597138
-0.44416417417669435,-0.44416417417669435,1.0001213091054262,0.0004306414149019202
-0.44269934685435147,-0.44269934685435147,0.9997562215989539,0.0004284670817245709
-0.4410427237628028,-0.4410427237628028,0.9995620862544323,0.0004282941162312134
-0.43967643399228107,-0.43967643399228107,0.9995635508479854,0.00042988384343497935
-0.43827049543178875,-0.43827049543178875,1.0004038053737443,0.0004303878956253901
-0.4358620215483825,-0.4358620215483825,0.999671830928644,0.0004282366965792909
-0.43455342958914117,-0.43455342958914117,0.9995866364339323,0.00042955363005140926
-0.43352204561961116,-0.43352204561961116,1.0003250860628217,0.0004380254043881545
-0.4326930052804528,-0.4326930052804528,1.0002741252124594,0.0004299188615406209
-0.4315201562581933,-0.4315201562581933,1.0005842186172413,0.0004278218294116013
-0.42974767078412696,-0.42974767078412696,0.9997401435238796,0.0004288671116037029
-0.42877094249706715,-0.42877094249706715,1.0004712554372204,0.0004286144034232794
-0.4269705058060936,-0.4269705058060936,0.9997889043040029,0.0004299687471052498
-0.4262377996506984,-0.4262377996506984,1.0003083176227476,0.00044520885056107285
-0.42499836461938684,-0.42499836461938684,0.9992454357108629,0.0004330739178723589
-0.42347199274372543,-0.42347199274372543,0.9993585571897414,0.00042932434377480395
-0.4219077373942127,-0.4219077373942127,1.000048507675016,0.0004303586414413698
-0.4209998485632241,-0.4209998485632241,1.000062216202441,0.00042706739667603273
-0.41978069931064965,-0.41978069931064965,1.0002391188505322,0.00043080237243888896
-0.4179080081288703,-0.4179080081288703,1.0005534813019392,0.0004298629263448675
-0.4162236001182464,-0.4162236001182464,0.9997609086751981,0.00042770959474853495
-0.4147260682351771,-0.4147260682351771,1.0000142845034856,0.0004313205190505986
-0.4137496909563197,-0.4137496909563197,1.000184149350765,0.0004289513071129133
-0.41250369209883503,-0.41250369209883503,0.9995334730885744,0.0004287287908727747
-0.4104199702371261,-0.4104199702371261,1.0003259035820604,0.000424513831585914
-0.4088644136878429,-0.4088644136878429,0.9994873169722774,0.0004301622927871754
-0.40781863675802016,-0.40781863675802016,0.9995803690479252,0.00042820462657869936
-0.40679439275700136,-0.40679439275700136,1.0000484779864234,0.00044306501630639376
-0.4049440086382674,-0.4049440086382674,0.999899201124531,0.0004294657614256593
-0.40337913495895916,-0.40337913495895916,1.000307041221959,0.00043014572242742034
-0.40225190047494835,-0.40225190047494835,1.0005089080826255,0.00042793381193840927
-0.40124140209663894,-0.40124140209663894,1.0004635638516197,0.0004339540303478583
-0.4003608409577282,-0.4003608409577282,1.0010560749058066,0.0004292515755105933
-0.39770144298818194,-0.39770144298818194,1.000088950214996,0.00042871596928641933
-0.3964545277616708,-0.3964545277616708,1.0003573341395737,0.00042998711585822726
-0.3955767015722813,-0.3955767015722813,1.0005416137153993,0.00042889837498489414
-0.39469598240684717,-0.39469598240684717,1.0005367516818164,0.0004308255500632384
-0.39265729984181236,-0.39265729984181236,1.0002280846223122,0.00043195447746694274
-0.3910235685820226,-0.3910235685820226,1.0004342451751875,0.00042584378877286774
-0.3893815045856172,-0.3893815045856172,1.0001410363088088,0.0004290166539377766
-0.3884255453274818,-0.3884255453274818,1.000683635323698,0.00043488061011530464
-0.3874792267815792,-0.3874792267815792,1.0005237227748833,0.00042741939017645355
-0.3866649131174199,-0.3866649131174199,1.0003487596483187,0.00043263064776081486
-0.38539632658212214,-0.38539632658212214,1.0002749339350072,0.0004277426208654163
-0.3836125517220353,-0.3836125517220353,1.0002444064497529,0.0004281489479150007
-0.3821700223677908,-0.3821700223677908,1.0000975607437765,0.00043190316884558647
-0.3810222987900488,-0.3810222987900488,1.0001165316880596,0.00042839166065462034
-0.37925842769473095,-0.37925842769473095,1.0004314309175526,0.0004317762578472527
-0.37755206620058746,-0.37755206620058746,0.9997591824547735,0.0004287729856782841
-0.3765369526532595,-0.3765369526532595,1.000626207298375,0.00042799000984894604
-0.37565765092003855,-0.37565765092003855,1.0003576996850443,0.0004307975044383341
-0.3735411692527123,-0.3735411692527123,1.0000228113566756,0.0004316469568466979
-0.3719968995268573,-0.3719968995268573,1.0001313166779626,0.0004251400692098531
-0.37056925058277557,-0.37056925058277557,0.9997147884495942,0.00043018506616316856
-0.36939327699219576,-0.36939327699219576,1.000530753647825,0.0004324957859335914
-0.36858692691894246,-0.36858692691894246,1.000207629876384,0.00043053900557246704
-0.36808090308186364,-0.36808090308186364,1.0003077647779552,0.0004303909035624524
-0.3674422113370383,-0.3674422113370383,1.000088751789183,0.00042766650392460825
-0.3665094282172504,-0.3665094282172504,1.000137196021394,0.0004293529916919095
-0.36483676220377675,-0.36483676220377675,0.9999701516831625,0.00042961948792451314
-0.3636896064912435,-0.3636896064912435,0.9998048330496967,0.0004260848960930091
-0.36229681258118945,-0.36229681258118945,1.0006582166200488,0.0004294754020154861
-0.3608970708155539,-0.3608970708155539,0.9999385631259354,0.0004309771838215952
-0.3594412663587718,-0.3594412663587718,0.9998492334488853,0.0004316147975633562
-0.35884046558639965,-0.35884046558639965,1.0000403507170752,0.0004279495566921781
-0.3577694559804513,-0.3577694559804513,0.9998313388855943,0.00042684313376246155
-0.35701605818758253,-0.35701605818758253,1.0002056125929097,0.00043341411207906957
-0.35547365618112964,-0.35547365618112964,0.9994520739391886,0.0004331066101821011
-0.3536703912905068,-0.3536703912905068,1.0002865205393114,0.00042757683758474374
-0.3526966666555381,-0.3526966666555381,1.0003076239300759,0.0004311552856267729
-0.35170378431794236,-0.35170378431794236,1.000050164197432,0.0004316804017160076
-0.35042109613423233,-0.35042109613423233,0.9996713133607674,0.0004317959229193216
-0.34931500963284634,-0.34931500963284634,0.9994514612830289,0.0004309237812341525
-0.34797977625421483,-0.34797977625421483,1.000665235028469,0.00042828852895547694
-0.3463760849757819,-0.3463760849757819,0.9999832005189043,0.0004292177844534905
-0.3450083675532369,-0.3450083675532369,0.9993719086537831,0.00042375540274771945
-0.3440772859641584,-0.3440772859641584,1.0003134426041325,0.00043034493560490555
-0.3431374104868155,-0.3431374104868155,0.9996622914248094,0.00042946223432146406
-0.34108072622329927,-0.34108072622329927,1.0006333247749644,0.0004319408863530311
-0.3397120460707811,-0.3397120460707811,1.0003779860018656,0.0004289868148581339
-0.33870175365736943,-0.33870175365736943,1.0009573171553303,0.00042704363651729845
-0.3375922680745134,-0.3375922680745134,1.0005615145943039,0.0004326444308828753
-0.33532175614964216,-0.33532175614964216,1.0008996516834872,0.00043173541081067637
-0.33419063694163925,-0.33419063694163925,0.9997554899018549,0.0004252669335948759
-0.3330030386976432,-0.3330030386976432,1.0001587385374955,0.0004307456197978028
-0.33139899417146806,-0.33139899417146806,1.0002804361963753,0.0004299493482931917
-0.3301376712086494,-0.3301376712086494,0.9993443605014326,0.00043154171769455886
-0.32840453521785096,-0.32840453521785096,0.9998534882175513,0.00042557010794586054
-0.3269544778944692,-0.3269544778944692,1.0000216471602132,0.0004282953439106384
-0.3258545616597985,-0.3258545616597985,1.0002164211685673,0.00044571930276394273
-0.3247326222000993,-0.3247326222000993,1.0004082775444636,0.00043274251774185954
-0.3235839695204049,-0.3235839695204049,1.0001998184038172,0.0004246327803897722
-0.32152877533226276,-0.32152877533226276,0.999890298075567,0.0004308984471200411
-0.3197828685049899,-0.3197828685049899,1.0001831186548804,0.0004272830183515054
-0.3187670726008946,-0.3187670726008946,1.0004206292051756,0.00042939586731208874
-0.3162398838059744,-0.3162398838059744,1.0004712231871509,0.0004292602123233037
-0.3142443737902795,-0.3142443737902795,1.0005271643226716,0.00042895184128137356
-0.3124420362946694,-0.3124420362946694,0.9997969712653703,0.00042906368189394976
-0.3106382209152798,-0.3106382209152798,0.999646687549928,0.00043027900739531775
-0.30853515679191335,-0.30853515679191335,0.9995657846594206,0.0004248399105735531
-0.30657725230994404,-0.30657725230994404,0.9998234016040015,0.0004448555813563776
-0.3053047877838253,-0.3053047877838253,0.9998015577238366,0.00042907234228817953
-0.3028836589714047,-0.3028836589714047,1.0002593917197475,0.0004281567692010691
-0.3013368095285841,-0.3013368095285841,1.00058488167333,0.00042704833592809445
-0.3003053745211218,-0.3003053745211218,1.0000749371187898,0.00042568433571789745
-0.2996370503882645,-0.2996370503882645,1.0004277887500512,0.000430392686177734
-0.29757943901640826,-0.29757943901640826,0.9998211763293625,0.00043050795543851287
-0.2958460648093023,-0.2958460648093023,1.000461206916325,0.0004238891579691516
-0.294413146856823,-0.294413146856823,1.0001127806935228,0.0004305646865351275
-0.29291103640862276,-0.29291103640862276,1.0003875486477283,0.00042920913646554313
-0.2911411269771634,-0.2911411269771634,0.9995220183671846,0.0004254788774951272
-0.28921583949995694,-0.28921583949995694,0.9994289501302969,0.0004234443995658594
-0.28725857228128004,-0.28725857228128004,0.9994782164085434,0.0004470731800839934
-0.285978742640873,-0.285978742640873,0.9999026971662257,0.0004313108060435366
-0.2838520796256489,-0.2838520796256489,1.0004507082684446,0.0004282040234945614
-0.28242497134633593,-0.28242497134633593,0.9990086226606,0.0004251711913560075
-0.2813241507508792,-0.2813241507508792,0.9999100557413524,0.0004267569444751605
-0.28021230136655506,-0.28021230136655506,1.0002496300936183,0.000432449325939193
-0.2779160258331103,-0.2779160258331103,0.999556625743107,0.000425904339279766
-0.2764443851527176,-0.2764443851527176,0.999869883337667,0.00042767262051902536
-0.2748759176392923,-0.2748759176392923,0.9998945339164746,0.00043212763943319707
-0.2738680793074309,-0.2738680793074309,0.9998286832802833,0.00042864213302279137
-0.27254890128824627,-0.27254890128824627,1.0008740413260493,0.00042846942739361573
-0.27072323876054727,-0.27072323876054727,0.9998064737112464,0.000423195944570378
-0.2683104344148887,-0.2683104344148887,1.000437413542796,0.00044241581446121937
-0.26698074911837466,-0.26698074911837466,0.9997504660452758,0.000428399719578726
-0.26541017958224983,-0.26541017958224983,0.9996186823341986,0.0004292431646776951
-0.26448958661640065,-0.26448958661640065,0.9997207442399869,0.00043353324290185244
-0.2633294288898469,-0.2633294288898469,1.0001194232853186,0.0004267466891500116
-0.26229907533997904,-0.26229907533997904,1.0005496518046155,0.0004285886234328161
-0.26112210631690685,-0.26112210631690685,1.0003413792562599,0.0004293524065546889
-0.25900191335967976,-0.25900191335967976,0.9995537684695661,0.0004289005498257704
-0.2578597591942525,-0.2578597591942525,1.0002075961213064,0.0004269484731766793
-0.25634879918361547,-0.25634879918361547,1.0002640789360515,0.00042891080297183275
-0.2555229540957953,-0.2555229540957953,1.0003036857570282,0.00043153439588043457
-0.25453768335428323,-0.25453768335428323,1.0000675280770819,0.00043187992691208385
-0.25382843796978705,-0.25382843796978705,1.0003495902199844,0.00042896964572266096
-0.25291080692550166,-0.25291080692550166,0.999977483654017,0.00042910537089712805
-0.25200180586543863,-0.25200180586543863,0.9998831647060822,0.00042688625296073614
-0.24956098836555612,-0.24956098836555612,0.9997372521311337,0.0004416680676810984
-0.24856909769878258,-0.24856909769878258,1.000128525108965,0.00043006342786965193
-0.24732871081941993,-0.24732871081941993,1.0000047029188819,0.00043342895621093457
-0.2456946999183856,-0.2456946999183856,1.0003699444711598,0.0004257577785467735
-0.24424270868184977,-0.24424270868184977,1.0000033072183816,0.00042818606381320716
-0.2431009244406596,-0.2431009244406596,1.000745075482826,0.00042844601847907257
-0.24157008685870096,-0.24157008685870096,0.9997868286414111,0.0004310431218016108
-0.23938377793092513,-0.23938377793092513,1.0003019581311414,0.00042917461640577743
-0.2381279563138378,-0.2381279563138378,0.9995851603035385,0.0004281460063023671
-0.2370288977632299,-0.2370288977632299,0.9998081760338444,0.00043162802104496946
-0.23617814624740277,-0.23617814624740277,1.000112256152423,0.00042995811229851
-0.23507110132777598,-0.23507110132777598,0.9998476125484279,0.0004304450641780035
-0.2336249362604576,-0.2336249362604576,0.9998082147567452,0.00042824465198986367
-0.23296732526359848,-0.23296732526359848,0.9999818111766314,0.00042881923820306474
-0.23141421504988102,-0.23141421504988102,0.9999727614355436,0.00043039016516417683
-0.2303182472489425,-0.2303182472489425,0.9994250456121909,0.0004437850832156796
-0.22934701522317483,-0.22934701522317483,1.0003145791012669,0.0004309154941974923
-0.22781577544519677,-0.22781577544519677,1.0005297729705291,0.00043298415747260844
-0.22633457277261188,-0.22633457277261188,1.0011236962681402,0.00043058014330992427
-0.22524448786280118,-0.22524448786280118,1.0006781463441263,0.00042520374212708047
-0.22397505595290568,-0.22397505595290568,1.0000579150957662,0.00043090894116755137
-0.22252775052329526,-0.22252775052329526,0.9999062367883805,0.0004291088579319436
-0.22038398463919293,-0.22038398463919293,0.9991888243490061,0.00042761508774160343
-0.218803231860511,-0.218803231860511,0.9998563010367905,0.00042968674986071056
-0.21755769006558695,-0.21755769006558695,1.0003378127589497,0.00042901997270811674
-0.21614178439049284,-0.21614178439049284,1.0002635618989526,0.0004298186294705136
-0.21431141221692088,-0.21431141221692088,1.000567333656411,0.00042624979708614965
-0.21273743026104058,-0.21273743026104058,0.9999017086981798,0.0004287477931814997
-0.21128610257728725,-0.21128610257728725,1.000224006502004,0.0004443240669006549
-0.21032391181652202,-0.21032391181652202,1.000248895970884,0.00043215326708840457
-0.20854522150184493,-0.20854522150184493,0.9993569823127562,0.0004307055267668598
-0.20716577917337417,-0.20716577917337417,0.9998646418908835,0.000429537228038365
-0.20613590799766826,-0.20613590799766826,1.0004553392616977,0.0004281662619769983
-0.20528715236869174,-0.20528715236869174,0.9996787358356027,0.0004338443046464943
-0.20452295631839662,-0.20452295631839662,0.999721477090515,0.00043137730177195144
-0.20278490046184744,-0.20278490046184744,0.9999735090482739,0.0004296033599864751
-0.20098402507719584,-0.20098402507719584,0.9995350592337428,0.00042711912516310037
-0.1997766896500252,-0.1997766896500252,1.000513011791505,0.00042654281922411977
-0.1988947908714181,-0.1988947908714181,1.0001982186677978,0.00043308866320852606
-0.19806496422097553,-0.19806496422097553,0.9994007642658499,0.0004396731195818818
-0.19602392475644592,-0.19602392475644592,1.0001991489930133,0.00042547043822892337
-0.1948250458473922,-0.1948250458473922,1.0005015383377116,0.00042735844587098333
-0.19318844038061797,-0.19318844038061797,0.9999775657325376,0.0004289752228605428
-0.1923554922861513,-0.1923554922861513,0.9997590563118788,0.00043469041572481314
-0.19159280818712432,-0.19159280818712432,1.0001104242427015,0.0004296686012168075
-0.19067161838029278,-0.19067161838029278,1.000637392536447,0.0004320265673856947
-0.18966975856455975,-0.18966975856455975,1.0000192063037143,0.0004283216406903703
-0.1876138682695455,-0.1876138682695455,1.000004266082202,0.0004286022940649853
-0.18621487387281377,-0.18621487387281377,0.9997524783465581,0.00043214178448889836
-0.18503295663540484,-0.18503295663540484,0.9996993672620438,0.0004303886640835251
-0.18282754936954007,-0.18282754936954007,0.9999510180844201,0.00043167328119822056
-0.18129366733483038,-0.18129366733483038,1.000282136562093,0.00043237143570606354
-0.18055173280881717,-0.18055173280881717,1.0004588332448618,0.00042580107138234823
-0.17978647907148115,-0.17978647907148115,0.9998158131319705,0.0004302566418630374
-0.17872060680383584,-0.17872060680383584,0.9998064452216603,0.0004326556558843028
-0.17633697535202372,-0.17633697535202372,1.000259420951339,0.000426112557517967
-0.1750977568080998,-0.1750977568080998,1.0003580505896021,0.00042925906214879314
-0.17354691107175313,-0.17354691107175313,0.9995374721746556,0.0004287373246430892
-0.17269037309743,-0.17269037309743,0.9997646742674607,0.0004320336549933026
-0.1719466047201422,-0.1719466047201422,1.000633493394202,0.00043106149183814036
-0.17107110677170567,-0.17107110677170567,0.9993708554361783,0.00042961268365957134
-0.16952268026216188,-0.16952268026216188,1.000293169215306,0.00042721152354776226
-0.1679635871987557,-0.1679635871987557,0.9996959453607642,0.000425487457522909
-0.1662040218419861,-0.1662040218419861,1.0003075506236208,0.00042962942033262033
