time,time,flux,flux_err
-0.4999436874469782,-0.4999436874469782,0.9993986545768573,0.0025721897878538268
-0.4998356616543062,-0.4998356616543062,0.9979127655595376,0.0024517764811535277
-0.4997119170225221,-0.4997119170225221,1.0010668651234074,0.0025732219347542598
-0.49959614410621533,-0.49959614410621533,1.0001298810268684,0.0027632238003665846
-0.49949562049170665,-0.49949562049170665,1.0021446862848693,0.0025206385655861664
-0.49940400805050517,-0.49940400805050517,1.0026346043523955,0.0023674831948910817
-0.499320010783611,-0.499320010783611,1.0016215776458934,0.0021939547181933187
-0.4992291974012069,-0.4992291974012069,0.9998966432754047,0.0026456595326631027
-0.49912916645210503,-0.49912916645210503,0.9974535232594205,0.0023431869899596665
-0.4990459273048792,-0.4990459273048792,1.00089947526385,0.002432781160213885
-0.498957629124191,-0.498957629124191,1.0011965375932332,0.0023499763042084546
-0.4988624463313542,-0.4988624463313542,0.9961856661753623,0.0024436303600728205
-0.49876994851479994,-0.49876994851479994,1.0034961099721795,0.0024529994848572715
-0.498682848015806,-0.498682848015806,0.9993549710237126,0.002191255346262523
-0.4985920437897384,-0.4985920437897384,1.0028375382516646,0.0026499050821060166
-0.49849706673983507,-0.49849706673983507,1.000217938943258,0.0023474600867994444
-0.4984067434579231,-0.4984067434579231,0.999191436659044,0.0024366865109371263
-0.4983154137449802,-0.4983154137449802,0.9988805729009975,0.002350185143636867
-0.49823034877685685,-0.49823034877685685,1.0013118053953103,0.0024431592859316042
-0.4981307669055049,-0.4981307669055049,1.000246523695124,0.002462594816097678
-0.49804163976727833,-0.49804163976727833,1.0007965953174902,0.0021890612441785484
-0.49795252292245495,-0.49795252292245495,1.0010418517032016,0.0024721937824100136
-0.4978622774419982,-0.4978622774419982,0.9984940882073887,0.002534228227954253
-0.4977645255043022,-0.4977645255043022,0.9986396227341542,0.0024406173129292055
-0.4976806468760181,-0.4976806468760181,0.9994777889860929,0.0021071499065300737
-0.49759080273167483,-0.49759080273167483,0.9976422145897539,0.0026558343855660835
-0.49748855118863206,-0.49748855118863206,1.0025910336122803,0.0024630042216375178
-0.4974046691904569,-0.4974046691904569,0.9996451863462463,0.0023193924637088235
-0.49731922169426424,-0.49731922169426424,0.9990137959632992,0.0023494353500217776
-0.4972251218386276,-0.4972251218386276,1.0005285787760603,0.0025366899461712602
-0.4971293871655142,-0.4971293871655142,1.0005633801411062,0.002438786602758658
-0.4970485444298923,-0.4970485444298923,1.0018908985519572,0.0021073261136836025
-0.49695870600670344,-0.49695870600670344,1.0012218511555853,0.0026537047177544537
-0.496856449203289,-0.496856449203289,0.9990880720225113,0.0024580317781059376
-0.4967725672724512,-0.4967725672724512,0.9985197027244761,0.002319798279560873
-0.49668712005948235,-0.49668712005948235,1.000379871516874,0.0023415762484642554
-0.4965930231053541,-0.4965930231053541,1.00091454198604,0.002535015227984396
-0.4964972829532037,-0.4964972829532037,0.9977610279250035,0.0024404065497246824
-0.49641644199404666,-0.49641644199404666,1.0005350031993374,0.0021028784878498767
-0.4963266092911816,-0.4963266092911816,0.9986850765200085,0.002650651888084888
-0.49622434722728387,-0.49622434722728387,1.0008465919119178,0.002455255384998738
-0.49614046536478684,-0.49614046536478684,1.001784771801423,0.002326995100177246
-0.49605501843304933,-0.49605501843304933,1.0015534347834323,0.0023350089783926277
-0.4959609243811897,-0.4959609243811897,1.0086351734099746,0.0025308320221493607
-0.49586517875026315,-0.49586517875026315,1.0022744499245475,0.0024361636064022855
-0.49578433956862894,-0.49578433956862894,0.99769942588508,0.0020997256348452165
-0.4956945125855178,-0.4956945125855178,0.9991523951621311,0.0026481186530169566
-0.4955922452605684,-0.4955922452605684,1.0003394520650937,0.002451106151213332
-0.49550836346725546,-0.49550836346725546,0.9983897179535288,0.0023348101416117172
-0.4954229168150327,-0.4954229168150327,1.0010967102008441,0.0023309081315335952
-0.49532882566605496,-0.49532882566605496,0.9992483631278894,0.002531691907711535
-0.49523307455736615,-0.49523307455736615,0.999669170906232,0.0024402703408284818
-0.49515223715395323,-0.49515223715395323,0.9978994115716739,0.0020998081002517235
-0.49506241588973127,-0.49506241588973127,1.003649689457357,0.0026547069817686496
-0.4949601433032356,-0.4949601433032356,1.0016838622719273,0.002453084710779719
-0.4948762615803581,-0.4948762615803581,0.9982851036433296,0.0023344077684685997
-0.4947908152058673,-0.4947908152058673,0.9998170608775723,0.0023334236123096013
-0.4946967269600364,-0.4946967269600364,0.9973715242891054,0.0025305757967987556
-0.49460097037388306,-0.49460097037388306,1.0003149782138845,0.0024428499645458525
-0.4945201347497054,-0.4945201347497054,1.0003735906790068,0.002100934714889902
-0.4944303192036479,-0.4944303192036479,1.002680695987421,0.0026558061393396246
-0.4943280413553147,-0.4943280413553147,1.0017661687488197,0.002447153440496078
-0.49424415970361013,-0.49424415970361013,1.0017833213058542,0.0023328032624977796
-0.49415871360530944,-0.49415871360530944,0.9987474730591102,0.0023407945861435844
-0.494064628263267,-0.494064628263267,0.999730993494145,0.002527186120565533
-0.49396886620039737,-0.49396886620039737,1.0003553826463745,0.002439946512149536
-0.4938880323562046,-0.4938880323562046,0.9998044213847767,0.0021053730358760107
-0.493798222527824,-0.493798222527824,0.9979974540668076,0.002656987756873039
-0.4936959394167374,-0.4936959394167374,0.997520414796113,0.002445262610147023
-0.4936120578372957,-0.4936120578372957,0.9991579347158719,0.0023295815424671613
-0.4935266120132319,-0.4935266120132319,0.9986437285858655,0.002350223349600499
-0.4934325295757723,-0.4934325295757723,1.0011655059731517,0.0025287197955264347
-0.4933367620365793,-0.4933367620365793,1.0038962979232733,0.002437539049059232
-0.49323279672243886,-0.49323279672243886,0.9989830305313889,0.0023276621441530245
-0.4931443170288439,-0.4931443170288439,0.9989588653836645,0.002348412605758022
-0.49304806919395644,-0.49304806919395644,1.0020383405707156,0.002518100100546963
-0.49295258727138247,-0.49295258727138247,1.0003690254841244,0.0024400581007852987
-0.49286655510358274,-0.49286655510358274,1.0010661291953207,0.002111523526871975
-0.4927767544214241,-0.4927767544214241,1.000453555832914,0.0026525270122667974
-0.49268266770056074,-0.49268266770056074,1.0006027101474007,0.0024133092511796008
-0.49259249006204014,-0.49259249006204014,1.0000779291306663,0.002357543226894238
-0.49250513603910734,-0.49250513603910734,0.9984958757360534,0.0023533253064375995
-0.49241596829177325,-0.49241596829177325,0.9987986236714406,0.0025150233001823507
-0.4923204853536006,-0.4923204853536006,0.9988219997738481,0.002445094985424691
-0.49223445273814476,-0.49223445273814476,0.9972091762092719,0.002111713888280661
-0.49214465777176813,-0.49214465777176813,1.0022689487406349,0.002657945511805345
-0.492050564632364,-0.492050564632364,1.000466830619732,0.00241620100705651
-0.49196038937779674,-0.49196038937779674,1.0006114900925618,0.0023586757161908724
-0.4918730344701935,-0.4918730344701935,0.998748573854764,0.0023565154075813593
-0.49178386739913904,-0.49178386739913904,1.0010313160765731,0.0025197016971213776
-0.4916883834452051,-0.4916883834452051,1.0017212719903061,0.0024469538933402928
-0.4916023503834424,-0.4916023503834424,1.0010788284796621,0.0021121326290613716
-0.4915125611320164,-0.4915125611320164,1.0020742114280563,0.002655278687636964
-0.4914184615720053,-0.4914184615720053,0.9955135494207665,0.002417852152606017
-0.4913282887061044,-0.4913282887061044,1.0014551281623736,0.0023594412808922555
-0.49124093291032694,-0.49124093291032694,0.9988049921034519,0.0023550727621177705
-0.49115176651646664,-0.49115176651646664,1.0004829342151738,0.002515028239129731
-0.4910562815466413,-0.4910562815466413,1.0016459925639076,0.0024553812143500043
-0.4909702480395701,-0.4909702480395701,1.0012471984075455,0.0021080835076507454
-0.4908804645026471,-0.4908804645026471,0.9996932592010375,0.002654479533811833
-0.49078635851952657,-0.49078635851952657,0.9989590460864551,0.00241525412573151
-0.49069618804633636,-0.49069618804633636,0.9963655386899004,0.002358902558429208
-0.490608831358702,-0.490608831358702,0.9997902232784858,0.0023527817814588893
-0.49051865426484936,-0.49051865426484936,1.0006712903965151,0.0025152608808310865
-0.49041912276557653,-0.49041912276557653,0.9988013112422568,0.002459142587882948
-0.4903330888141376,-0.4903330888141376,0.9988884156786453,0.0021057430261996204
-0.4902483678833214,-0.4902483678833214,0.9989263630873889,0.0026564396139470265
-0.4901491985832074,-0.4901491985832074,1.0019394854666408,0.002416415145406174
-0.490059030506999,-0.490059030506999,1.0005498930402434,0.0023601140954151376
-0.4899767298164058,-0.4899767298164058,1.00258830714645,0.0023513974442813507
-0.4898825078878687,-0.4898825078878687,0.9985375097668557,0.0025167638913297036
-0.4897870208864056,-0.4897870208864056,1.0004198346117723,0.0024621943123615845
-0.4897009864921621,-0.4897009864921621,1.0001183286601663,0.0021014208257239477
-0.4896162712744669,-0.4896162712744669,0.9968014947829895,0.002657645071857823
-0.48951709554734607,-0.48951709554734607,1.0013780460422192,0.0024171603183222147
-0.4894269298723685,-0.4894269298723685,0.9969188821095422,0.00235996210696143
-0.4893446282828592,-0.4893446282828592,1.002386237864536,0.0023439516967885873
-0.48925040703501776,-0.48925040703501776,0.9991143356804427,0.0025190617611705016
-0.4891549190171105,-0.4891549190171105,1.0004233939921234,0.002462962804469481
-0.4890688841809315,-0.4890688841809315,1.0004041131154708,0.002098536681159562
-0.48896536736712337,-0.48896536736712337,0.9994468600881555,0.002338987153355859
-0.48886103312570056,-0.48886103312570056,1.0016679032710862,0.002517337846758864
-0.48877158806705623,-0.48877158806705623,0.9987883821951726,0.0022044153643395047
-0.4886835792304801,-0.4886835792304801,1.0004160132674484,0.002359256489213892
-0.4885948033194104,-0.4885948033194104,0.9978077138327492,0.0026509942791389423
-0.48849835926292046,-0.48849835926292046,0.9996686875963652,0.0021796403995863653
-0.48841156689006693,-0.48841156689006693,1.000570394970065,0.0024504419905626612
-0.488324412479966,-0.488324412479966,1.000465910920757,0.0024663608391070594
-0.48822893228899744,-0.48822893228899744,1.000496637515759,0.0025185733683350327
-0.4881394845275828,-0.4881394845275828,0.9990315057656171,0.002191798318336491
-0.48805147862295184,-0.48805147862295184,0.9988795123828806,0.0023664224248480087
-0.487962706737828,-0.487962706737828,0.9995757466488275,0.0026478871604338856
-0.48786625349964013,-0.48786625349964013,1.0007752562982457,0.0021756945632715775
-0.48777946504217695,-0.48777946504217695,0.9992735221710343,0.002451334816277073
-0.4876923149647062,-0.4876923149647062,1.0000608972003544,0.002470653469467295
-0.4875968314624025,-0.4875968314624025,1.0015164356587851,0.002517694357982031
-0.4875073809966025,-0.4875073809966025,1.003141297912109,0.0021873553120096327
-0.4874193780278482,-0.4874193780278482,0.9987820765493651,0.0023627463422472112
-0.48733061016661594,-0.48733061016661594,0.9992905807022611,0.0026478636629326743
-0.4872341477449666,-0.4872341477449666,0.998741110533232,0.0021727608958623133
-0.48714736320416707,-0.48714736320416707,1.0010959684266658,0.0024415950023937596
-0.4870602174609019,-0.4870602174609019,0.9998275188269208,0.002472432419823738
-0.48696473064615164,-0.48696473064615164,0.9957546542354241,0.002513837438044607
-0.48687527747395476,-0.48687527747395476,1.0001487357027228,0.0021828810827255003
-0.48678727744553996,-0.48678727744553996,1.0005528557929741,0.002362307699305088
-0.4866985136058851,-0.4866985136058851,1.000320189948456,0.0026448192092687352
-0.4866020419992111,-0.4866020419992111,1.0000969264565105,0.002171990812940177
-0.4865152613760621,-0.4865152613760621,1.0009142617990385,0.002435459236693139
-0.486428119968361,-0.486428119968361,1.0021437102396273,0.0024727397443929443
-0.4863326298398604,-0.4863326298398604,1.0007420932378452,0.0025092281695710808
-0.48624317395975963,-0.48624317395975963,1.0009890115905735,0.002183362904328831
-0.4861551768757607,-0.4861551768757607,0.9999791653847078,0.002362663212858954
-0.4860664170560334,-0.4860664170560334,0.9987611351351975,0.002644350204807132
-0.4859699362622131,-0.4859699362622131,0.9986020074733059,0.0021763799266619416
-0.4858831595581442,-0.4858831595581442,0.999664751022365,0.0024345041318419693
-0.48579602248737574,-0.48579602248737574,0.9987782587274461,0.0024750788777594735
-0.4857005290439062,-0.4857005290439062,1.0013397544925218,0.0025099960196300905
-0.4856110704538324,-0.4856110704538324,1.0004154087451016,0.0021903338449543526
-0.4855230763187642,-0.4855230763187642,0.9987725511413084,0.0023636502879918835
-0.4854343205168384,-0.4854343205168384,0.9988677430280737,0.002646226287072492
-0.48533783053378843,-0.48533783053378843,0.9995693560340595,0.0021842949656017954
-0.4852510577501981,-0.4852510577501981,1.0006007729583828,0.002434957486376336
-0.4851639250180725,-0.4851639250180725,0.9992939465346279,0.0024759623284116524
-0.48506842825869895,-0.48506842825869895,1.0010333702132779,0.0025074098548387375
-0.4849769441976811,-0.4849769441976811,0.9993749887706634,0.0021942144671125226
-0.48488591887634414,-0.48488591887634414,0.9997071443362525,0.0023635004638394345
-0.4848022239880301,-0.4848022239880301,0.9995870879978874,0.0026452154298669183
-0.4847006679160778,-0.4847006679160778,1.000917555484063,0.0021875259494914543
-0.4846084323309633,-0.4846084323309633,1.001663439321936,0.0025215326273904395
-0.4845258747684795,-0.4845258747684795,1.001048727366396,0.0023606844495919492
-0.48442650802744114,-0.48442650802744114,0.9988029045002209,0.00253752289554879
-0.4843330332317827,-0.4843330332317827,0.9997987156806843,0.002313763082528561
-0.48424980867465806,-0.48424980867465806,1.0021154368421281,0.0024360322730183066
-0.4841626828873956,-0.4841626828873956,0.9994263227374184,0.002474985430919185
-0.48405844840954587,-0.48405844840954587,1.0007843195332602,0.0021841820193734306
-0.48397633378906235,-0.48397633378906235,0.9988446652726223,0.0025160120734429707
-0.4838897287262114,-0.4838897287262114,1.0006506786550946,0.0023591426276264767
-0.48379440709546556,-0.48379440709546556,0.9998797615382324,0.0025338086725082212
-0.4837009319473239,-0.4837009319473239,0.9982250717687716,0.0023106201407247103
-0.4836126499952229,-0.4836126499952229,0.9988777905345814,0.0024396910766516693
-0.4835255285503507,-0.4835255285503507,0.9996439169327426,0.002471487071649659
-0.48342496626557574,-0.48342496626557574,1.0016337118440561,0.0025042859269798754
-0.48334055480225474,-0.48334055480225474,1.002515120948917,0.0022005979935036265
-0.4832525713173254,-0.4832525713173254,0.9978410640116181,0.00236325225202635
-0.48315877306511085,-0.48315877306511085,1.0008775783032724,0.0026415652977317865
-0.48306730688299737,-0.48306730688299737,0.9997973599676342,0.0021787453513385973
-0.48298054822394576,-0.48298054822394576,0.9997317182470018,0.00244377045631787
-0.4828934311233226,-0.4828934311233226,1.0000230241490584,0.0024724896145440225
-0.48279286551805073,-0.48279286551805073,1.0000056797762835,0.002498111122807996
-0.48270845133597573,-0.48270845133597573,0.9963999230710613,0.0021987858362879204
-0.4826204708194702,-0.4826204708194702,1.001598536641369,0.0023621790266883627
-0.48252667657614623,-0.48252667657614623,0.9985750083484337,0.002641909199779557
-0.482435201195608,-0.482435201195608,0.9986183990271377,0.002172468804402852
-0.48234338957209816,-0.48234338957209816,0.9985681864604128,0.0024453528703676907
-0.48226133370818475,-0.48226133370818475,1.001012568380874,0.0024673736234351474
-0.4821557078904036,-0.4821557078904036,1.0015729313294426,0.002498199501746263
-0.48207129098758517,-0.48207129098758517,1.0004890089929028,0.002199501666739154
-0.4819859981366122,-0.4819859981366122,0.9991396954002993,0.0025662596208558706
-0.4818918954049856,-0.4818918954049856,1.0008921753405229,0.0024433797815012668
-0.4817980386262725,-0.4817980386262725,1.0021780565645901,0.0021734907282238863
-0.4817112878218829,-0.4817112878218829,1.0009916319214107,0.0024465477904358052
-0.48162923630508414,-0.48162923630508414,0.9992118089367388,0.0024682004293371243
-0.48152360716441367,-0.48152360716441367,0.9978646887336973,0.0025009824597319514
-0.4814341306411706,-0.4814341306411706,0.9981006335469539,0.00219523773508872
-0.48134884152427304,-0.48134884152427304,1.0007333767999556,0.002568450120523863
-0.48125979818097875,-0.48125979818097875,1.0000637699255512,0.0024441044225153555
-0.4811608760594055,-0.4811608760594055,0.9999314511343403,0.0021707518231203716
-0.48107412918422054,-0.48107412918422054,0.9983737042390393,0.0024454224210097696
-0.4809920820163335,-0.4809920820163335,0.9999216869168714,0.0024690145039484635
-0.48089150644950107,-0.48089150644950107,1.0007939578373881,0.0025053935135295434
-0.48080202720167764,-0.48080202720167764,0.9970424677464329,0.0021941526772454823
-0.4807167418208046,-0.4807167418208046,1.0028756266083678,0.0025682467045202596
-0.4806277009702654,-0.4806277009702654,0.9996007627149167,0.0024473435441680876
-0.48052877039908,-0.48052877039908,0.9998485032750896,0.00217018707652315
-0.48044202745498693,-0.48044202745498693,1.000324734593717,0.0024452529687002907
-0.48035998463728546,-0.48035998463728546,1.0014282098412042,0.002473529432981076
-0.48025940574519055,-0.48025940574519055,1.0016276120610823,0.0025095079956535516
-0.4801699237708384,-0.4801699237708384,1.0003644066021782,0.002190023957093855
-0.480084642128319,-0.480084642128319,0.9991561533592895,0.002565830892380052
-0.4799956037731882,-0.4799956037731882,0.999207152774092,0.0024482361556383073
-0.4798966647483482,-0.4798966647483482,0.9982209140455925,0.0021685420778002735
-0.4798089143567559,-0.4798089143567559,1.0006996349946642,0.002446629019319459
-0.479722830373035,-0.479722830373035,1.0001590027501872,0.002474031096958898
-0.47962730505209095,-0.47962730505209095,0.9985595379966516,0.00251221366582998
-0.4795293567357213,-0.4795293567357213,1.002058382748884,0.0023214625801627536
-0.4794428012404609,-0.4794428012404609,0.997918522696976,0.002438993635511908
-0.47935339280817574,-0.47935339280817574,1.0008366876498815,0.00245047212466568
-0.47925339446379667,-0.47925339446379667,1.0020303328411235,0.002535452165100387
-0.47916867207384256,-0.47916867207384256,0.9983183738982356,0.002179393528157576
-0.4790807082589758,-0.4790807082589758,1.0008418966266603,0.0023660831374752835
-0.4789869364446872,-0.4789869364446872,1.0005446358360195,0.0026421959173851548
-0.4788954094999994,-0.4788954094999994,0.9980356134913064,0.0021704549734563308
-0.4788086767822527,-0.4788086767822527,0.9993788419812049,0.00243742478538814
-0.47872129563808696,-0.47872129563808696,0.9996031116862631,0.0024509068334496063
-0.47862129361140404,-0.47862129361140404,1.0022230327173762,0.0025327049446403124
-0.47853656866603556,-0.47853656866603556,1.0032386797945372,0.0021827599490269684
-0.47844860784772436,-0.47844860784772436,0.9989305334719581,0.0023630402158135383
-0.47835484003010437,-0.47835484003010437,0.9995849536222121,0.0026407989856773615
-0.478263303872717,-0.478263303872717,1.0000039222346753,0.0021711626522213506
-0.4781765750912463,-0.4781765750912463,0.9962205366091534,0.0024292981538519753
-0.47808919848143033,-0.47808919848143033,0.9993987283945958,0.0024454892272734773
-0.47798919276913876,-0.47798919276913876,1.0008274045324324,0.0025284110615753723
-0.4779044652673846,-0.4779044652673846,1.0010439006186647,0.0021812315436874003
-0.47781650745015297,-0.47781650745015297,1.0000757123708461,0.002360245029123115
-0.4777227436275261,-0.4777227436275261,1.0008302557870896,0.002641490861610309
-0.4776281641208186,-0.4776281641208186,0.9983671775236814,0.002175753179108853
