time,time,flux,flux_err
-0.4999376495100781,-0.4999376495100781,0.9999632066931582,0.00011465136026961447
-0.49981764098023024,-0.49981764098023024,0.9999231383509968,0.00011412299813569178
-0.49971611601722543,-0.49971611601722543,0.9998780392848948,0.00010489830161546101
-0.49964336729899517,-0.49964336729899517,1.0001343239177083,0.00010446814018229987
-0.49960043504470375,-0.49960043504470375,1.0000305569014318,0.00010154659835585306
-0.4995171922862937,-0.4995171922862937,0.9999215046471022,0.00010365653915919975
-0.4994290440023178,-0.4994290440023178,0.9999464526050982,0.00010457259633908605
-0.4993400781117089,-0.4993400781117089,1.000079179325875,0.00010346703079916326
-0.4992370609616046,-0.4992370609616046,1.0000192449910714,0.000103654284933552
-0.4991427954955725,-0.4991427954955725,1.000177691944914,0.00010375602024578607
-0.4990333669651591,-0.4990333669651591,1.000170753881159,0.00010514092902566099
-0.49888419348935714,-0.49888419348935714,1.0002561071206464,0.00010708946174509271
-0.49862404209197847,-0.49862404209197847,0.9999123270448772,0.00010895058039634179
-0.49839260728476803,-0.49839260728476803,0.999898574264434,0.00010434916030414232
-0.4982241095291101,-0.4982241095291101,0.9998940322248501,0.0001060156432091119
-0.49796764538259597,-0.49796764538259597,1.0000182125320347,0.0001107680726889676
-0.497547233790101,-0.497547233790101,1.0001650637443409,0.00010817289984720549
-0.49716915044482446,-0.49716915044482446,1.000081163913326,0.00011276883967547707
-0.4968767174854293,-0.4968767174854293,1.0000119447989644,0.00010960462899259735
-0.49664409129109116,-0.49664409129109116,1.0000903553396834,0.00010824980921390022
-0.4963752757619659,-0.4963752757619659,1.0002398099487286,0.00010564736613761597
-0.4960537225102598,-0.4960537225102598,1.000223604228498,0.00010932276352874619
-0.49550220991513927,-0.49550220991513927,0.9999768254825929,0.00010054507382407651
-0.49522540637772183,-0.49522540637772183,0.9997766217143014,0.000104947586638243
-0.4946800256351708,-0.4946800256351708,0.999923529180317,0.0001024917556831782
-0.49426294738150317,-0.49426294738150317,1.0000624075534499,0.00010509789942803106
-0.49391591055245954,-0.49391591055245954,0.9999344547994241,0.00010362433871289453
-0.49360182601958513,-0.49360182601958513,0.9998544571843029,0.00010033609523370358
-0.4934453604393639,-0.4934453604393639,0.9998213172588537,0.0001000571778574811
-0.4932830908743199,-0.4932830908743199,1.0000375081587272,0.00010029451499090562
-0.49309450910877783,-0.49309450910877783,0.9998836800214619,0.0001008248333073796
-0.4928268298142939,-0.4928268298142939,0.9998230748629116,0.00010059551136775678
-0.49246025906613794,-0.49246025906613794,1.0002466828755732,0.00010063225236406467
-0.4921930935037381,-0.4921930935037381,0.999928790147617,0.0001031928812824481
-0.4920406907709548,-0.4920406907709548,0.9999183800746334,0.00010198667698420757
-0.491896979053854,-0.491896979053854,1.0000432438129168,0.00010256558456211341
-0.49176538196843467,-0.49176538196843467,1.0001002382693702,0.00010252750244038874
-0.4916349241968419,-0.4916349241968419,1.0001212492061842,0.00010205359250159306
-0.49150803089360123,-0.49150803089360123,1.0001420808275783,0.00010253302213950079
-0.49137794375856175,-0.49137794375856175,1.0000335066997486,0.00010251175373481535
-0.49124747561800175,-0.49124747561800175,0.999917652962681,0.00010193304702060123
-0.491153552626929,-0.491153552626929,0.9999177694344183,0.00010195791030648534
-0.4910575019355747,-0.4910575019355747,1.0001217690281954,0.00010189582107602893
-0.49097257539615385,-0.49097257539615385,0.9999024133610016,0.00010304479127253262
-0.4908770268310036,-0.4908770268310036,0.9999841277096675,0.00010206566942061493
-0.49075200618681264,-0.49075200618681264,1.000041621979729,0.00010199975003943496
-0.4905696477821039,-0.4905696477821039,1.0000015235713469,0.00010151961546561955
-0.49046854564367093,-0.49046854564367093,0.999970689396292,0.00010124534211427172
-0.49039830586116295,-0.49039830586116295,0.9998463724472554,0.00010126380180248695
-0.49032809278651257,-0.49032809278651257,0.9999605443232469,0.00010131523122306534
-0.49024709170626013,-0.49024709170626013,1.0001701268010277,0.00010189481105374266
-0.4901475321508769,-0.4901475321508769,0.9997949479040706,0.0001019596449638178
-0.4900252557199565,-0.4900252557199565,1.0000630265467008,0.00010129789203434491
-0.48989106263325083,-0.48989106263325083,0.99987484749944,0.00010129064526491913
-0.4897881606244482,-0.4897881606244482,0.9999290704957975,0.00010251389113935881
-0.48969641089715876,-0.48969641089715876,0.9997694333252859,0.00010386001697846782
-0.489596858452569,-0.489596858452569,0.9998309129668211,0.00010446146254499347
-0.48949367355162393,-0.48949367355162393,0.9999536041331838,0.00010330042228502394
-0.4894130576154566,-0.4894130576154566,0.9999785743549243,0.00010590815801640792
-0.4893437376624206,-0.4893437376624206,0.9999174109785589,0.00010386994740374045
-0.48924829387542557,-0.48924829387542557,0.9998414586585408,0.00010132684574094155
-0.4891537974406674,-0.4891537974406674,1.00009669587621,0.00010391751869935121
-0.4890668448417273,-0.4890668448417273,0.9998867756920339,0.00010508653763187389
-0.4889581665571313,-0.4889581665571313,1.0000384753131244,0.00010577048572353789
-0.4887868054283899,-0.4887868054283899,1.0000963320908383,0.00010358367394883283
-0.4886641774013697,-0.4886641774013697,1.000279148545263,0.00010322611972225181
-0.4885337737701775,-0.4885337737701775,1.000017966294431,0.00010578575352105913
-0.4883260962589702,-0.4883260962589702,1.0000950470690444,0.00010706931561670602
-0.4880073203050415,-0.4880073203050415,0.9999629507958311,0.00011091392360579878
-0.4876895453016914,-0.4876895453016914,1.0001096376600178,0.0001082670681298869
-0.4874107103663846,-0.4874107103663846,0.9998305322784986,0.00010934604280849123
-0.4870327723096125,-0.4870327723096125,0.9999221776497131,0.00011028675076655998
-0.48680336168035865,-0.48680336168035865,0.9999452352103205,0.0001089068807991754
-0.48660016165304115,-0.48660016165304115,1.0001525463393226,0.00010941141067519608
-0.48646813878949613,-0.48646813878949613,0.9999739756533537,0.00010833597292631857
-0.4863018678770459,-0.4863018678770459,1.0000815978415072,0.00010903071865469157
-0.4861202117826906,-0.4861202117826906,0.9998806177665882,0.00010948010978154368
-0.4859650948725175,-0.4859650948725175,0.9998995839817079,0.00010871349297919848
-0.48583503359986935,-0.48583503359986935,1.0001481208401373,0.00010774762299460708
-0.4857230844689184,-0.4857230844689184,0.9999642484834557,0.00010937657872996723
-0.4855905045485997,-0.4855905045485997,0.9998514883741224,0.00010900425245490013
-0.485445998168143,-0.485445998168143,0.999962428223888,0.0001082232279559744
-0.48529080343287206,-0.48529080343287206,0.9999151999187271,0.00010363484733179954
-0.48508448873690213,-0.48508448873690213,1.000077073656016,0.00010606199365538935
-0.484822122897458,-0.484822122897458,1.0000182634357988,0.0001090969977605904
-0.48465336650042445,-0.48465336650042445,1.0000673722445559,0.00010806998019232867
-0.48444780288045874,-0.48444780288045874,0.9999968539674062,0.00010922247758882819
-0.48424618997451035,-0.48424618997451035,1.0002265488889548,0.00010837096349912182
-0.4841119608099689,-0.4841119608099689,1.0000192088905524,0.00010588878953085087
-0.48398350987336014,-0.48398350987336014,0.9998862415801744,0.00010586111035263927
-0.48385500228469025,-0.48385500228469025,1.000094570197501,0.0001059087872820578
-0.4837294593911793,-0.4837294593911793,0.999895774729637,0.00010764606095649469
-0.4835849883391347,-0.4835849883391347,1.0002222454230538,0.00010508843175514151
-0.48338746246445224,-0.48338746246445224,0.9999681716128086,0.00010941445292966555
-0.48301768638048087,-0.48301768638048087,1.0000537839694832,0.00011210222416959735
-0.4825921952186036,-0.4825921952186036,0.9999585639362767,0.00011272684980080383
-0.4823358447494684,-0.4823358447494684,1.0000020502514364,0.00010105308787052998
-0.4821442416017817,-0.4821442416017817,0.9999195034715747,0.00010108629621308047
-0.48200208308771836,-0.48200208308771836,1.0002283867593966,0.00010188919583156564
-0.4814570318332699,-0.4814570318332699,1.0001867304297514,0.00010244525177346444
-0.4809250136109767,-0.4809250136109767,1.000003487390112,0.00010050009143022425
-0.4805976622956223,-0.4805976622956223,1.0000071978121352,0.00010001641334964363
-0.48026683123898695,-0.48026683123898695,0.9999693548219284,9.958484773989568e-05
-0.4791553783259587,-0.4791553783259587,0.9998664779664589,0.00010400901451998034
-0.47863459195723407,-0.47863459195723407,1.0000671802856878,0.00010138450901159992
-0.47844979473520655,-0.47844979473520655,0.9999840702365722,0.00010188151778604461
-0.4783005605211656,-0.4783005605211656,0.9998549106793029,0.00010320348033095212
-0.4781755244388478,-0.4781755244388478,0.9999869005311954,0.00010416268494222601
-0.47808625867328375,-0.47808625867328375,1.0000561363925269,0.00010416741944609551
-0.4779900255540269,-0.4779900255540269,1.0000413491993994,0.00010376685498878966
-0.47792846511583775,-0.47792846511583775,0.999922145479227,0.00010356500983633842
-0.47786018964616234,-0.47786018964616234,0.9999098928173001,0.00010402443588806791
-0.4777899245636945,-0.4777899245636945,1.0000979746687342,0.00010355991486884495
-0.47771891857337323,-0.47771891857337323,1.0000510154883608,0.00010487693232936156
-0.47763571360337664,-0.47763571360337664,1.0001173072555987,0.00010402838993118825
-0.47755858514356075,-0.47755858514356075,0.9999823522507774,0.00010443722496804413
-0.4774887737330573,-0.4774887737330573,1.0001772138435956,0.0001029337280796511
-0.4774209462200815,-0.4774209462200815,0.9999419314412137,0.00010472066084798472
-0.47733895546552957,-0.47733895546552957,0.9998740276213299,0.0001038516790196101
-0.4772589921762119,-0.4772589921762119,1.0000775961297377,0.00010444301532426782
-0.4771893567405641,-0.4771893567405641,1.000080428461022,0.00010455812726993649
-0.4771322401451471,-0.4771322401451471,1.0000566258434234,0.00010428265341299761
-0.47707240182135136,-0.47707240182135136,0.9999783924006771,0.0001034162613398592
-0.47699881020307655,-0.47699881020307655,0.9999677061701988,0.00010444504136827338
-0.47693025004409717,-0.47693025004409717,0.9998857350307894,0.00010574887520964317
-0.47684864241673497,-0.47684864241673497,1.0002035849286524,0.00010577939592228556
-0.4767570618707396,-0.4767570618707396,0.9999940660091013,0.00010548709370091331
-0.47666345174293384,-0.47666345174293384,0.9999976030863451,0.00010549763689710368
-0.4765778257016791,-0.4765778257016791,1.0000292832091697,0.00010343461526837626
-0.4765248321506078,-0.4765248321506078,0.999931743236709,0.00010496784076113796
-0.47645570912063706,-0.47645570912063706,1.000049753273993,0.00010444491544433811
-0.47639312297833386,-0.47639312297833386,1.0001748033238578,0.00010378658597356681
-0.4763272084725031,-0.4763272084725031,1.000104383362785,0.00010494519020826584
-0.4762424429769453,-0.4762424429769453,0.9999197455553135,0.0001054767220167596
-0.4761491433644551,-0.4761491433644551,0.9999076748051066,0.0001054902494396543
-0.4760589245874144,-0.4760589245874144,0.9999217103091554,0.00010594142707727355
-0.4759693498650449,-0.4759693498650449,0.999966283033458,0.0001054950786186203
-0.47588269786647286,-0.47588269786647286,0.9998792144608167,0.00010438483587104498
-0.4758078694714641,-0.4758078694714641,1.000053336259961,0.0001054438176689899
-0.47571555225877094,-0.47571555225877094,1.0000527379608617,0.00010550446097510181
-0.4756373945841915,-0.4756373945841915,0.9998215338200751,0.00010572689313614746
-0.4755584748258116,-0.4755584748258116,0.9999303652631084,0.0001058863608331668
-0.4754865713410254,-0.4754865713410254,0.9999559538265717,0.00010540799683067528
-0.4754128396874876,-0.4754128396874876,1.0000525890969036,0.00010539988664058288
-0.4753367900753801,-0.4753367900753801,0.9999942754989855,0.00010572513851600689
-0.47528035305731464,-0.47528035305731464,1.0001215428254906,0.00010335282905638856
-0.47521971063906676,-0.47521971063906676,1.0000245757682515,0.00010540920313638501
-0.4751487254659878,-0.4751487254659878,1.000073704978259,0.00010517429674575664
-0.47508734167422517,-0.47508734167422517,1.0001317460989865,0.00010542118698318277
-0.4750046821500291,-0.4750046821500291,1.0000229292124474,0.00010591732669726299
-0.47491659219303983,-0.47491659219303983,0.9999809135847743,0.00010591603461832646
-0.4748087051615585,-0.4748087051615585,1.0001242589275592,0.00010588671662990635
-0.4746998279057152,-0.4746998279057152,1.0000292291796946,0.00010486455041474876
-0.47463329908714513,-0.47463329908714513,0.9998015796455462,0.00010526016270264916
-0.47457153616269354,-0.47457153616269354,1.0001181085346844,0.00010630816770060392
-0.4745068913274736,-0.4745068913274736,1.0000281309291408,0.0001041981630845838
-0.47442357119798545,-0.47442357119798545,0.9999077219862583,0.00010491664858916334
-0.47432996977149744,-0.47432996977149744,1.000003972685872,0.00010505392280475687
-0.47421157327553376,-0.47421157327553376,0.9998790912487145,0.00010407530127857726
-0.47412826658182894,-0.47412826658182894,1.0001125942499567,0.00010418235849176988
-0.4740274323230551,-0.4740274323230551,0.9998758102917529,0.00010405955135651276
-0.4739282281996566,-0.4739282281996566,0.999813763000799,0.00010394618728775494
-0.4738327341619879,-0.4738327341619879,1.0000263527075544,0.0001028963373732717
-0.4737402974104043,-0.4737402974104043,1.0001162232759793,0.00010283299716755841
-0.4736383679024584,-0.4736383679024584,1.0000011460966602,0.00010394314771981924
-0.47349229828687384,-0.47349229828687384,1.0000951822873347,0.00010506879779759936
-0.47328428211912976,-0.47328428211912976,1.0000748328120619,0.0001060030356341823
-0.4731079238496022,-0.4731079238496022,0.9998342016733011,0.00010615632183029431
-0.47293403395160566,-0.47293403395160566,1.0000225549952404,0.00010894621040311839
-0.47282733752872447,-0.47282733752872447,1.0000908164077522,0.0001076738848816421
-0.47271352101815867,-0.47271352101815867,0.9998511939385146,0.0001076779006241082
-0.4726186269283062,-0.4726186269283062,0.9999882322067457,0.00010394144124726458
-0.47250151708140037,-0.47250151708140037,0.9997449235930498,0.00010629765472911657
-0.47232040690578286,-0.47232040690578286,0.999935838442495,0.00010614880153449167
-0.4721376066278026,-0.4721376066278026,0.9999451581838719,0.00010486142424895548
-0.47198230802532637,-0.47198230802532637,1.0000149954472115,0.00010364494514756232
-0.4718208208258147,-0.4718208208258147,0.9999955619351777,0.00010260639283003083
-0.4716529336437816,-0.4716529336437816,1.0000253111192545,0.00010129594383703881
-0.4715249204586144,-0.4715249204586144,0.9998971575197089,0.00010254146677583584
-0.471394038375729,-0.471394038375729,1.0001039038739683,0.00010428788395711391
-0.471178636104014,-0.471178636104014,0.9998807203219109,0.00010481489197318114
-0.47098898374388226,-0.47098898374388226,1.0000310902932616,0.000103465272290022
-0.4708273795309651,-0.4708273795309651,0.9999914128704612,0.00010400229736320539
-0.47060222759246245,-0.47060222759246245,0.999907705793663,0.00010399142782442643
-0.47039418142812794,-0.47039418142812794,0.9999608717873075,0.00010479380673942115
-0.4700490377326787,-0.4700490377326787,0.9999759098809164,0.00010635920117942947
-0.4696422083208745,-0.4696422083208745,1.0000903683970475,0.00010525057777379784
-0.46922466065661866,-0.46922466065661866,0.9998712933696614,0.00010432183765061182
-0.4690085136557173,-0.4690085136557173,0.9999905494445993,0.00010256595882088604
-0.46879092018425583,-0.46879092018425583,0.999775079224617,0.00010128570670121628
-0.46855119714164173,-0.46855119714164173,1.000015157263512,0.00010100577821210593
-0.4683442187277251,-0.4683442187277251,1.000013545046431,0.00010274722215444481
-0.467474103630957,-0.467474103630957,1.000116493444266,0.00010203593227619699
-0.46726937277562686,-0.46726937277562686,1.0000708265951999,0.0001022444449492204
-0.4670394223132462,-0.4670394223132462,0.9999292552378799,0.00010084407173986607
-0.4666194225974323,-0.4666194225974323,0.9999276217273529,0.0001047236444595058
-0.4662869058432989,-0.4662869058432989,1.0000031411124581,0.00010435291529569111
-0.46604623253660976,-0.46604623253660976,1.0001618333911595,0.0001047158689544796
-0.4656609792400559,-0.4656609792400559,1.0001897641641642,0.0001014511835722341
-0.46471275083749786,-0.46471275083749786,1.000053049058765,0.00010112755923039568
-0.4644020354084205,-0.4644020354084205,1.0001371564900603,0.00010216562983130244
-0.46401397004083267,-0.46401397004083267,1.0000583257896802,0.00010246660779071022
-0.4636952760287386,-0.4636952760287386,1.000070994641543,0.00010143524714449227
-0.4635180027136812,-0.4635180027136812,1.0002040861241643,0.00010100197254560877
-0.46332634186255744,-0.46332634186255744,1.0001188137123873,0.00010232419375359801
-0.46319813902446183,-0.46319813902446183,0.999889218971455,0.00010062807727119331
-0.46308440855355004,-0.46308440855355004,0.9999534488456939,0.00010220640283383141
-0.46294986187349424,-0.46294986187349424,0.9999877330239813,0.00010242585450481539
-0.46284391084627713,-0.46284391084627713,1.0001441719663617,0.00010050141859061892
-0.46271064576576465,-0.46271064576576465,1.0001675172633209,0.0001006457602857767
-0.462592779485567,-0.462592779485567,0.9999009821286624,0.00010220873396046801
-0.46245124349807154,-0.46245124349807154,1.0000444350145534,0.00010422993087562907
-0.4623073960552574,-0.4623073960552574,0.9999096080370306,0.00010507800004576917
-0.4621701004507486,-0.4621701004507486,0.9999418829980629,0.00010707090945248241
-0.4620258954935707,-0.4620258954935707,1.0001133876726656,0.0001051303307471239
-0.46188580746238583,-0.46188580746238583,0.9999168803139439,0.00010714323683499037
-0.4617452093829343,-0.4617452093829343,1.0001059291069159,0.00010515363022722571
-0.461602114525158,-0.461602114525158,0.9998968737757862,0.00010730322977741565
-0.461488129805366,-0.461488129805366,0.9999631765626725,0.0001042529957180852
-0.4613544714447926,-0.4613544714447926,1.0000393334673647,0.00010531876129605004
-0.46120708709713654,-0.46120708709713654,1.0002386229016889,0.00010762060719004496
-0.4610755676003464,-0.4610755676003464,1.0000884735049607,0.00010543046363527505
-0.4609293677312962,-0.4609293677312962,1.0000784864293706,0.00010463987302431683
-0.46079271058406446,-0.46079271058406446,0.9999825479608646,0.00010861709703331937
-0.46066576519588126,-0.46066576519588126,1.0000570975493615,0.00010469403905250647
-0.46055848354517365,-0.46055848354517365,1.0001068910184494,0.00010149941445860844
-0.4604191504236951,-0.4604191504236951,1.0001859153877457,0.00010234783455501727
-0.46029401443665846,-0.46029401443665846,0.9997253662568195,0.00010146172274934308
-0.4600851899354893,-0.4600851899354893,1.0000467456809796,0.00010460609318514293
-0.4597560720387264,-0.4597560720387264,0.9999905532746289,0.0001029891373561583
-0.45930478276568465,-0.45930478276568465,1.0001725076012022,0.00010102128877088941
-0.4590905812830897,-0.4590905812830897,1.0002078285337748,0.00010085815813788769
-0.45894718352719793,-0.45894718352719793,1.0000718162769764,0.00010073288391620713
-0.458738728469325,-0.458738728469325,0.999875958236637,0.00010099531834395648
-0.45851297321059975,-0.45851297321059975,0.9999422698119631,0.00010629910069172353
-0.4579419908441196,-0.4579419908441196,1.0000095029769198,0.0001054798970846024
-0.4574524665840727,-0.4574524665840727,0.9999957744722077,0.00010317407983591092
-0.4571444299959694,-0.4571444299959694,1.0000466791836744,0.00010175046743518264
-0.45660487373461367,-0.45660487373461367,1.0000022883524637,0.0001047428655913825
-0.4561263847135706,-0.4561263847135706,1.0000688092416814,0.0001040447231044622
-0.45581964075463477,-0.45581964075463477,1.0000405322205754,0.00010567251440640135
-0.4556003237776167,-0.4556003237776167,0.9999988180169789,0.00010457703118208607
