time,time,flux,flux_err
-0.4998663065889559,-0.4998663065889559,0.9997735083574751,0.00017999368320482457
-0.4996133279849649,-0.4996133279849649,1.0000226238324033,0.00018830071995055902
-0.4994893625765447,-0.4994893625765447,0.9997609483406839,0.0001765701441989131
-0.4994109030697776,-0.4994109030697776,0.9998502352827122,0.0001826428417584034
-0.49923361636538177,-0.49923361636538177,1.0000696579057902,0.00017633288802352225
-0.49909134648769393,-0.49909134648769393,1.0001451345356824,0.00017978381129096126
-0.4989726749219699,-0.4989726749219699,0.9998933179071123,0.00016152401196565123
-0.49876723780253085,-0.49876723780253085,0.9997999069227248,0.00017216827019789812
-0.49863630578183804,-0.49863630578183804,1.000232827779709,0.00016120036724021674
-0.49842729209631215,-0.49842729209631215,0.9999584685775396,0.00016752024288584048
-0.49827057557777155,-0.49827057557777155,1.0001117017147192,0.00017122684847570608
-0.4981935541560233,-0.4981935541560233,1.0001277167469242,0.00016832197873222697
-0.4980528346801293,-0.4980528346801293,1.0000657331286915,0.00016904589549435835
-0.4979567489521287,-0.4979567489521287,1.0000643869161976,0.00016839820090077794
-0.49780888225068337,-0.49780888225068337,0.9999560259319111,0.00016448837149370615
-0.49764923327238647,-0.49764923327238647,1.000152015276292,0.00016755324091359056
-0.49747567941449233,-0.49747567941449233,0.9999721223824377,0.00016265802049426648
-0.4973758254323911,-0.4973758254323911,1.000062060548618,0.00016720457433222374
-0.4972647419243003,-0.4972647419243003,0.9999417841254863,0.00016453089313248008
-0.4971382730800542,-0.4971382730800542,0.9997439430310507,0.00016425163476039921
-0.49695065948035333,-0.49695065948035333,1.0001527488605209,0.0001692318057242665
-0.49680224291878405,-0.49680224291878405,0.9997122077067399,0.00016774987015916835
-0.4966919858568872,-0.4966919858568872,1.0000933338684326,0.00017032100267689465
-0.49661505677213424,-0.49661505677213424,1.0001981244883258,0.00017008365319378174
-0.4964544071604905,-0.4964544071604905,0.9999002035077618,0.0001812662791307571
-0.4961952444748022,-0.4961952444748022,0.9998750010264285,0.00015981519113867352
-0.49594586570965477,-0.49594586570965477,0.9998588763459365,0.0001702147050377677
-0.4958312158982153,-0.4958312158982153,0.9998381556098579,0.0001699482429823216
-0.49572253055957843,-0.49572253055957843,1.000185014145144,0.00016333626765161835
-0.4956469279582961,-0.4956469279582961,0.9999055348409369,0.00016396716104390992
-0.4954603400445194,-0.4954603400445194,0.9999437158426208,0.00016464845539543446
-0.4953411299415166,-0.4953411299415166,1.000026295134718,0.00018094843909590948
-0.49525225496618075,-0.49525225496618075,0.999837405356826,0.00017899867265256427
-0.495125802297116,-0.495125802297116,1.000479259802208,0.00016908020589762607
-0.49498119211784797,-0.49498119211784797,1.0002185228016602,0.00017072113838616172
-0.4948675702500623,-0.4948675702500623,1.0000838609300076,0.0001679523713588843
-0.4946488927169412,-0.4946488927169412,0.9998051253931133,0.00016920738926031657
-0.49446341758521156,-0.49446341758521156,0.9999027144897352,0.0001692525130461068
-0.494322861458204,-0.494322861458204,0.9998814678049263,0.0001724868516435091
-0.4942366857721936,-0.4942366857721936,0.9998621795620919,0.00015869842065358486
-0.4940977618403849,-0.4940977618403849,0.9997095172372166,0.0001669923978658074
-0.4939870829512074,-0.4939870829512074,1.0002524130068715,0.00016797177850253882
-0.49384044833277585,-0.49384044833277585,1.0005424080969572,0.0001711184918007601
-0.49370666159011306,-0.49370666159011306,1.0001171463552514,0.00016903926937399745
-0.493575997363223,-0.493575997363223,0.9999245688447942,0.0001654116817653789
-0.493492417143716,-0.493492417143716,1.0000624857265854,0.00016254423160853908
-0.4934055286772491,-0.4934055286772491,1.0000699961481123,0.0001662605592501769
-0.49327493209639217,-0.49327493209639217,0.9999828900022297,0.00017414549060474745
-0.4931607356287714,-0.4931607356287714,1.0000320615244647,0.0001614890319488939
-0.49305036670848496,-0.49305036670848496,0.9999126787408963,0.00016166284683286368
-0.49291309718464615,-0.49291309718464615,1.0000552689792015,0.00017445297013449974
-0.4927776225864363,-0.4927776225864363,0.9999714190988621,0.00018386467642912
-0.49262847902064094,-0.49262847902064094,0.9999246543470008,0.00016790697121797266
-0.49243192889625786,-0.49243192889625786,1.0000718141698233,0.00016682877385106604
-0.49215097608757785,-0.49215097608757785,0.9998016926550667,0.00016229265079843914
-0.49195614848140395,-0.49195614848140395,1.0000321030767971,0.0001622867239647389
-0.4919019129505614,-0.4919019129505614,0.9999550341674404,0.00015928061495620893
-0.4917686109642091,-0.4917686109642091,0.999576995955796,0.00016678253920891556
-0.49155283824366053,-0.49155283824366053,1.0000976021383865,0.00018091677230485485
-0.49139707172871566,-0.49139707172871566,1.0001277706312894,0.0001684181059932644
-0.4911819479508267,-0.4911819479508267,1.0001727217697183,0.00017058695982453484
-0.4910495006355632,-0.4910495006355632,1.0001860075010391,0.0001643061323009693
-0.4908248760300921,-0.4908248760300921,1.0000282013210717,0.00019359909848807477
-0.4906514065703959,-0.4906514065703959,1.0003825492849585,0.000168174079884013
-0.49052115202648566,-0.49052115202648566,0.999853706271238,0.0001624627954829692
-0.49038569302792895,-0.49038569302792895,1.0000323601406624,0.00016514197141963798
-0.49021543044800636,-0.49021543044800636,1.0000226531766443,0.00016687856664769963
-0.4900457652256591,-0.4900457652256591,1.0001630010416123,0.00016519766000764328
-0.48994830215815455,-0.48994830215815455,0.9997916774764212,0.0001747906864675076
-0.48981030523136726,-0.48981030523136726,0.9999445353351742,0.00016533687959503532
-0.4897007632556779,-0.4897007632556779,1.0002352869074802,0.0001637337646302992
-0.48961890490245424,-0.48961890490245424,0.999972557160673,0.00016320251319647245
-0.48948027154110607,-0.48948027154110607,1.00000607163288,0.00017198495713754739
-0.4893740549610811,-0.4893740549610811,1.0002339671292297,0.00017232461558080127
-0.4892853501798527,-0.4892853501798527,1.0003273189519122,0.0001592283579906671
-0.48911932846312994,-0.48911932846312994,1.000261945829498,0.00017304934689224723
-0.48900890042132233,-0.48900890042132233,1.0000193459605864,0.00017479841047110826
-0.4889035981963389,-0.4889035981963389,0.9997521488583331,0.00017922368789950995
-0.48870450396934756,-0.48870450396934756,0.9999606986717332,0.00017126327788524097
-0.48853567973565076,-0.48853567973565076,0.9998524831120367,0.0001563103360643656
-0.48825469524599613,-0.48825469524599613,1.0000490986713553,0.00016356387395128198
-0.48817047538541375,-0.48817047538541375,0.9999134552754944,0.00016101427943655575
-0.4880933157481195,-0.4880933157481195,0.9999662575612677,0.00016286384961270475
-0.48793287832231724,-0.48793287832231724,1.0002578792543155,0.00016585203737414178
-0.4877583863744803,-0.4877583863744803,1.0001786220439786,0.00018211662712826058
-0.4876439504267182,-0.4876439504267182,1.0000356204561975,0.0001705415478446267
-0.48742890238791003,-0.48742890238791003,1.0000055196073536,0.00016769479266884264
-0.48729499246765046,-0.48729499246765046,1.000000602107922,0.0001674805265980248
-0.48708098398856237,-0.48708098398856237,1.0001636210071234,0.00018035726098575836
-0.48692912069527666,-0.48692912069527666,0.9998350841451369,0.0001614475260214014
-0.4868065841685166,-0.4868065841685166,1.0001660796401928,0.00016473563587286177
-0.48663617163692835,-0.48663617163692835,1.0000798369216652,0.00016687526299264568
-0.4864303535177896,-0.4864303535177896,1.0001760037822516,0.0001646652008735404
-0.48630964762196527,-0.48630964762196527,0.9999258914426521,0.0001644927459198844
-0.4861751729367825,-0.4861751729367825,1.0002587129170557,0.00017229196293404666
-0.4860412859772623,-0.4860412859772623,1.0000938053913409,0.0001659990708754754
-0.4859096975975262,-0.4859096975975262,0.9998764794351072,0.00016661264694731013
-0.48582640602980975,-0.48582640602980975,0.9999453711094626,0.00016151013004930576
-0.4856621355480456,-0.4856621355480456,0.9999700262473764,0.00018340715501677458
-0.48554316856971125,-0.48554316856971125,1.0000748181606987,0.00016153618091704558
-0.48542745192098663,-0.48542745192098663,1.0000380227213215,0.00015476207671421839
-0.4852520561267738,-0.4852520561267738,0.9999826456579213,0.00018021967186829978
-0.4851541438205459,-0.4851541438205459,1.0001986391203048,0.0001719634537894657
-0.4849596126143297,-0.4849596126143297,1.0000890581515192,0.0001676740808645488
-0.48483739417642935,-0.48483739417642935,1.0003138346242317,0.00016236083724897242
-0.4846197534621751,-0.4846197534621751,1.00022920674006,0.0001654918007579538
-0.48443359397278984,-0.48443359397278984,1.0000334049533197,0.00016299540206254036
-0.48436181229844805,-0.48436181229844805,0.9996991695238753,0.00016176045853825684
-0.4842717442203138,-0.4842717442203138,0.9995762736209771,0.0001651982667754893
-0.4841329840106482,-0.4841329840106482,0.9997779395101949,0.00017595765154787763
-0.4840018472787051,-0.4840018472787051,1.0001578471435406,0.00018079509702943094
-0.4838523437640106,-0.4838523437640106,1.0001905024174547,0.00017096437998306174
-0.48362970384187065,-0.48362970384187065,0.9998495501211389,0.0001655501392038604
-0.4834519179210474,-0.4834519179210474,1.0001800602247535,0.00017007226700312348
-0.48327989289318796,-0.48327989289318796,0.9999047913043564,0.0001659109922380102
-0.4831135808330146,-0.4831135808330146,0.9998969589163501,0.0001600357933617271
-0.4829811920171778,-0.4829811920171778,0.9998347039543717,0.0001670778690144353
-0.48277606445917626,-0.48277606445917626,1.0001537288467994,0.00016580928837017724
-0.48266518351592824,-0.48266518351592824,1.0005040596830108,0.00016768982776640555
-0.48257539945625466,-0.48257539945625466,0.9999564288584434,0.00015918409284469188
-0.48247488132547006,-0.48247488132547006,0.999855863556683,0.0001614698322839672
-0.4823817499935103,-0.4823817499935103,1.0000112894198163,0.00017063509425530883
-0.48228706704103386,-0.48228706704103386,0.9999987003470693,0.00016378932426309008
-0.48214710161846597,-0.48214710161846597,1.0001412805489003,0.00016739008219966475
-0.4820157099115022,-0.4820157099115022,1.0002559346360071,0.00016668711718992996
-0.48181484009764974,-0.48181484009764974,1.0001858311964842,0.0001714766977388246
-0.481699273565755,-0.481699273565755,0.9999206649044707,0.0001642632155163053
-0.48154446698827086,-0.48154446698827086,1.0002067894352755,0.0001678870426363687
-0.4814346273713454,-0.4814346273713454,0.9998679738926299,0.00017371126090646373
-0.48135329616197853,-0.48135329616197853,0.9999214506132704,0.00017525228859938504
-0.4811358951490547,-0.4811358951490547,1.0002179270131986,0.00016433036196513662
-0.48095922549546233,-0.48095922549546233,1.000238105991547,0.00016567010777985045
-0.48076179305571715,-0.48076179305571715,1.0000803099314977,0.00016265588577957284
-0.480608035523619,-0.480608035523619,1.0001669990031936,0.00016653333494821252
-0.4805199734219059,-0.4805199734219059,1.0000708222054577,0.00016028600699912872
-0.48037866050217415,-0.48037866050217415,1.0005502198422138,0.00017174955815550845
-0.480251441305154,-0.480251441305154,0.9999983719986787,0.00018382231891806247
-0.48010796037560793,-0.48010796037560793,0.9998269964202068,0.0001751264836054341
-0.47993935977865476,-0.47993935977865476,1.0000914809667745,0.00016567797717259748
-0.479784447493148,-0.479784447493148,0.9999093335299536,0.00016359935209999757
-0.479634292418632,-0.479634292418632,0.9999907041504297,0.00016862997083690805
-0.47945301626314174,-0.47945301626314174,0.9999260741042709,0.0001627038764853301
-0.4792894652709947,-0.4792894652709947,1.000240614816209,0.0001625574470587738
-0.47916974238250987,-0.47916974238250987,1.000113647651371,0.0001646153774912395
-0.47896081457292894,-0.47896081457292894,0.9998687964601467,0.00016447338428489093
-0.47888786270850686,-0.47888786270850686,0.9999935722512061,0.00016806293449951284
-0.4787541557845543,-0.4787541557845543,0.9998762890718238,0.00016695094148569162
-0.47863922778851703,-0.47863922778851703,0.999880818080826,0.00016691412861530866
-0.47853722438740076,-0.47853722438740076,0.9998355775789418,0.00016709370270808881
-0.4784301129402593,-0.4784301129402593,1.0002438719592281,0.00016421504669407363
-0.4782985328703944,-0.4782985328703944,1.0002750843125692,0.00016458529514926378
-0.4781031622267619,-0.4781031622267619,1.0000344714113676,0.00017016926205112919
-0.4779727021297731,-0.4779727021297731,1.0001086090118108,0.00017451823369890097
-0.4778632088331506,-0.4778632088331506,1.0002516981271745,0.00016334724015876635
-0.477647175155289,-0.477647175155289,1.0002249048394942,0.0001713118953047096
-0.4775580811197869,-0.4775580811197869,0.9998906393905089,0.00017300472164579996
-0.4774084268407023,-0.4774084268407023,0.999813243182414,0.0001613954678101911
-0.47724323680013186,-0.47724323680013186,1.000328554717575,0.00016086178804266933
-0.4770775055818376,-0.4770775055818376,0.999928807714395,0.00016674692406713748
-0.4769152302738803,-0.4769152302738803,0.9997647990239557,0.00016179055601686624
-0.47677219399265597,-0.47677219399265597,0.9999662542386515,0.0001704478685736425
-0.47663344477914504,-0.47663344477914504,0.9998252387471165,0.00016480089102467803
-0.4764599291433115,-0.4764599291433115,1.0000509964215847,0.0001803584115506464
-0.4762768508553563,-0.4762768508553563,1.0000733907629376,0.00017221768768273496
-0.4760946503149171,-0.4760946503149171,1.0001455258270753,0.00016533817969639596
-0.4759543710992148,-0.4759543710992148,0.999975383066354,0.00016603812760521337
-0.47577410789162966,-0.47577410789162966,1.000283409116531,0.00016401194697323544
-0.47558357458619865,-0.47558357458619865,1.0006763418417646,0.0001613039480566754
-0.47547440481721426,-0.47547440481721426,0.9998387355392712,0.00016165994611017938
-0.4753732054901775,-0.4753732054901775,0.9998867536365943,0.0001652239458616172
-0.4752070836373605,-0.4752070836373605,1.0001657638126857,0.00015913695256211267
-0.4751261575605895,-0.4751261575605895,1.000195484735018,0.00017010547293084725
-0.47497279444942253,-0.47497279444942253,0.9998640334148853,0.00016803408908841182
-0.47486545517822376,-0.47486545517822376,1.0000180960006801,0.00017236024755660177
-0.4747595697263023,-0.4747595697263023,1.000105713901955,0.00016580528292710366
-0.47467402658221547,-0.47467402658221547,0.9999859487600306,0.00016855203838046033
-0.47452051945438145,-0.47452051945438145,1.0003483589658024,0.00016376598790013132
-0.4743507278850302,-0.4743507278850302,1.0001150180515748,0.00016282343233276533
-0.4742125703203783,-0.4742125703203783,1.0001746738303237,0.00017991727477389714
-0.4740986014396185,-0.4740986014396185,1.0000647891943806,0.00016101088031093196
-0.4738892909270362,-0.4738892909270362,0.9999877176265599,0.00016727212479407833
-0.4737788768368773,-0.4737788768368773,0.9998266469211486,0.00017809956772841412
-0.4736194648088713,-0.4736194648088713,0.9998575225800238,0.00015912025007754272
-0.4734770614028093,-0.4734770614028093,1.000054321985083,0.00015918131732265876
-0.47334016469176277,-0.47334016469176277,0.9999161279486204,0.0001646917747066535
-0.47317386566792263,-0.47317386566792263,0.9999477669359145,0.00016209129012799235
-0.4729767197124602,-0.4729767197124602,1.000349046229624,0.00016913019769950502
-0.47288079658464993,-0.47288079658464993,1.0001218723157632,0.00016212839753654756
-0.47270820608682695,-0.47270820608682695,0.9998863225075212,0.00017878631278402736
-0.4725464657669363,-0.4725464657669363,0.9998314379919234,0.00017154880563643497
-0.47240458129163015,-0.47240458129163015,1.0004258721210852,0.00016821184067941593
-0.47229464589399867,-0.47229464589399867,0.9999555472130485,0.00016630361626693939
-0.4721164285336272,-0.4721164285336272,1.0001762103414773,0.0001631953990507142
-0.47190257172187555,-0.47190257172187555,0.9999992796357995,0.0001629584042728831
-0.4717667764503858,-0.4717667764503858,1.0000459897787448,0.00016118389586426582
-0.4716367627836007,-0.4716367627836007,0.9998781461162899,0.00016317388599399087
-0.47152099815939436,-0.47152099815939436,1.0000951204924748,0.00016533230028390722
-0.4714127127706888,-0.4714127127706888,0.9999015917082945,0.0001623335152912273
-0.4712808415271866,-0.4712808415271866,1.000109434662369,0.00016732793224361641
-0.4710741787072038,-0.4710741787072038,1.000200930694569,0.00016295530166574658
-0.4709843299191562,-0.4709843299191562,1.0003677138190363,0.0001737091428724479
-0.4708812552358722,-0.4708812552358722,0.9999998854327133,0.00016802146673813853
-0.4706959868919512,-0.4706959868919512,0.999845361899494,0.00016604809250905268
-0.47053438044822543,-0.47053438044822543,0.9998500180480525,0.00016554260518008605
-0.4704246807574236,-0.4704246807574236,1.0000607542828401,0.00017600635802203404
-0.4703162426165363,-0.4703162426165363,0.9997758505099016,0.00016713485206277625
-0.47013647464700625,-0.47013647464700625,1.000011435773341,0.00016441899395397598
-0.4700289233478543,-0.4700289233478543,1.0000381703238663,0.0001731671120981523
-0.46992314283852465,-0.46992314283852465,0.9998463407571585,0.0001755622254624869
-0.46982186328168607,-0.46982186328168607,0.9998701003840862,0.00016161592998582177
-0.4696943705290323,-0.4696943705290323,0.9997230816840112,0.00015717295267198112
-0.4695497268185136,-0.4695497268185136,1.0000178903439187,0.00016844873308021103
-0.4694039094734762,-0.4694039094734762,1.0000434237419764,0.00016726399223317444
-0.4692335713974899,-0.4692335713974899,0.9999802102712338,0.00015735699358946425
-0.4691515222533781,-0.4691515222533781,1.0000836751946303,0.0001681875076795691
-0.46896863431757085,-0.46896863431757085,1.0000876628789963,0.00017645519559256437
-0.4688605421099055,-0.4688605421099055,0.9999114635488319,0.00017211600366544156
-0.46867036403782547,-0.46867036403782547,0.9997926266829709,0.00016670273322170066
-0.4685430546058342,-0.4685430546058342,1.0000811817399347,0.00016807006511635253
-0.4684102097635332,-0.4684102097635332,1.000180294776165,0.00016360586791889495
-0.46818095304770396,-0.46818095304770396,1.0000509745959445,0.0001635009862099484
-0.4680294652527664,-0.4680294652527664,1.0001605282444455,0.00016717690050132038
-0.46790615318896017,-0.46790615318896017,1.0001425749394923,0.0001735148301066659
-0.4678297124810342,-0.4678297124810342,0.9997568978956108,0.00016302871006254027
-0.4677263810233853,-0.4677263810233853,1.0001359346581817,0.00016777663760315605
-0.46754562459827864,-0.46754562459827864,1.0000362681511192,0.0001686924658021064
-0.4673918733249593,-0.4673918733249593,1.0001525717224777,0.00016313953628472222
-0.4672664733974671,-0.4672664733974671,1.000190217224903,0.00016104808651523362
-0.4671670244300913,-0.4671670244300913,0.9999361969346285,0.00017447544687360507
-0.4670840186270652,-0.4670840186270652,1.00018629065772,0.0001633566697853104
-0.4669206432408828,-0.4669206432408828,0.999705907298242,0.00016397526579588906
-0.46672501748253126,-0.46672501748253126,0.9998604259158554,0.00017373390658996217
-0.46661897966041577,-0.46661897966041577,0.9999711505592359,0.0001806051400516688
-0.46654066225673885,-0.46654066225673885,1.0001653151460046,0.00016879530461513586
-0.46643815217394147,-0.46643815217394147,1.0000570737110963,0.00016826919285122018
-0.4663124000879179,-0.4663124000879179,0.9998475135725577,0.00015765499646041477
-0.46621179019930425,-0.46621179019930425,0.9999504192004471,0.0001756655279210949
-0.46611717137056985,-0.46611717137056985,1.0000271427630891,0.00017574945784282412
-0.46602859355771215,-0.46602859355771215,1.0002442756043677,0.00016385567534448443
-0.4658605472293857,-0.4658605472293857,0.9997512529951876,0.0001639100890704924
-0.4656979802290152,-0.4656979802290152,0.9999224649345629,0.00016654983213644492
-0.46556077639979776,-0.46556077639979776,1.0000973648734326,0.00016482887271516367
