time,time,flux,flux_err
-0.4999439135929909,-0.4999439135929909,1.0001072337257857,0.00038260343848771805
-0.49978988339353236,-0.49978988339353236,0.9997505640030622,0.0003972269870411582
-0.4996227766940137,-0.4996227766940137,0.9996394179396569,0.00044041141863837417
-0.499546933091915,-0.499546933091915,1.0003636876725217,0.00041230957619550984
-0.4994224166897766,-0.4994224166897766,0.9996250261193168,0.0003531066474427176
-0.499339502822113,-0.499339502822113,1.0002105775790961,0.00035360626172961554
-0.4992323772930831,-0.4992323772930831,0.9998094342817424,0.0003866450948963553
-0.49915365183696847,-0.49915365183696847,1.0006710489184545,0.0003881232606097322
-0.4990833142066549,-0.4990833142066549,0.9997982397681344,0.00046264313974104414
-0.49897451719880337,-0.49897451719880337,0.9999936923168343,0.0003688677872988541
-0.49882022471065285,-0.49882022471065285,0.9998573927903465,0.0003877794459463432
-0.49863746675837317,-0.49863746675837317,0.9995425158661913,0.0003723465536516583
-0.4984763223474147,-0.4984763223474147,1.0001126968195342,0.00040846655736289625
-0.49836541067707,-0.49836541067707,0.9999912686542307,0.00034906461934233654
-0.49813756545991056,-0.49813756545991056,1.000255160734928,0.00036589744920642955
-0.49805246687392357,-0.49805246687392357,1.0002926266531162,0.00036568140898874275
-0.4979715621084324,-0.4979715621084324,0.9998235153807234,0.0003594443931517968
-0.4978474795578222,-0.4978474795578222,1.000493443383799,0.00034863160406592664
-0.4976911597324943,-0.4976911597324943,1.0004105580761813,0.0003396295070235546
-0.4975266688015836,-0.4975266688015836,1.000329061298126,0.0004200821850781064
-0.49743143465020695,-0.49743143465020695,1.0003405783402906,0.00037301165517522535
-0.4973181079578353,-0.4973181079578353,1.000004195322471,0.00039479018923810024
-0.4971939750263118,-0.4971939750263118,1.0002709481583882,0.0005100551029866134
-0.49705799326402483,-0.49705799326402483,0.9998829098437735,0.00040904234224170425
-0.49696411636905397,-0.49696411636905397,0.9998615862978137,0.00039911465167746205
-0.49676997505885084,-0.49676997505885084,1.0003563418693031,0.0003450678991303443
-0.4965981263812864,-0.4965981263812864,0.9998412665334117,0.00037388122577674003
-0.49648875298444184,-0.49648875298444184,0.9998407693104749,0.00033869787040130604
-0.49641753441028413,-0.49641753441028413,0.9998486503549296,0.00036334015877003973
-0.4963307871577854,-0.4963307871577854,0.9995285560703616,0.0003615018362483703
-0.49619841307358004,-0.49619841307358004,0.9996627007684185,0.00038991140651958053
-0.4959886450284102,-0.4959886450284102,1.0005839893508315,0.00036259824949798396
-0.49585421926240086,-0.49585421926240086,1.000031131477579,0.000407105220710233
-0.4957131048402516,-0.4957131048402516,1.0000050882765916,0.0003694720565978935
-0.4956690624225303,-0.4956690624225303,1.00010754981817,0.00039963593509560605
-0.49559393910240035,-0.49559393910240035,1.0000663574759066,0.0003910640450052583
-0.49547186118288666,-0.49547186118288666,1.0002294899149977,0.0003776176535980171
-0.49533379637214237,-0.49533379637214237,0.9997080887117127,0.0003989072745463778
-0.4952235071134055,-0.4952235071134055,1.0003465353097427,0.0003861622125799197
-0.49512813896290025,-0.49512813896290025,0.9999197835757533,0.0003674398041804095
-0.494985634706245,-0.494985634706245,0.9997895725709276,0.0003921778831318439
-0.49487434811599085,-0.49487434811599085,0.9993610358455838,0.0004455832573694322
-0.4947879168925283,-0.4947879168925283,1.000080229137876,0.0004105363230633233
-0.4947123652353184,-0.4947123652353184,1.0002728885185188,0.0003457329893754149
-0.4945735951558163,-0.4945735951558163,0.9997476357478364,0.0003865427193515614
-0.4944852005661232,-0.4944852005661232,1.0002531048169796,0.00041422968220544985
-0.4943949984226492,-0.4943949984226492,0.9994316170206152,0.00038100233213668574
-0.4942107082970324,-0.4942107082970324,0.99971158033984,0.00040518770705734886
-0.4940767776883149,-0.4940767776883149,0.9999596742335045,0.00036400613754094754
-0.49387629913107955,-0.49387629913107955,0.9990835738261872,0.00038094909073072106
-0.49371446137083697,-0.49371446137083697,1.0003211702232915,0.0003840677088100723
-0.4935237488687562,-0.4935237488687562,0.9997321465355233,0.0003771375036110527
-0.4933862041827524,-0.4933862041827524,1.000368100262262,0.0003645963076868519
-0.4933203321772453,-0.4933203321772453,1.0002546020562524,0.0003615110934862731
-0.49325500540071515,-0.49325500540071515,0.9997665633463688,0.00037249221485892876
-0.493145639650902,-0.493145639650902,1.0002411125422725,0.00035403853937856345
-0.4930053155927453,-0.4930053155927453,0.9999773909206239,0.00037064467985679586
-0.49282227323710687,-0.49282227323710687,0.9996240214236589,0.00039999243858361463
-0.49272137322841447,-0.49272137322841447,0.9996667630898711,0.0004078962203857376
-0.49259215809070156,-0.49259215809070156,1.000298082509111,0.0004017578604722633
-0.49241743963284534,-0.49241743963284534,1.0001388349739158,0.0004135071269802396
-0.4922032112604938,-0.4922032112604938,0.9999356055577169,0.0004039336397852002
-0.49195719302952057,-0.49195719302952057,1.0002188071561942,0.0003587086482207989
-0.49181375868065513,-0.49181375868065513,0.9999340840558697,0.0003638230711863027
-0.49168058269642645,-0.49168058269642645,1.0001092363471034,0.0003620968598979458
-0.4915743010780716,-0.4915743010780716,0.9995568066459679,0.00037303641511268976
-0.49135233601991785,-0.49135233601991785,1.000251593754081,0.0003956625345774464
-0.49126502776052805,-0.49126502776052805,0.999951584843429,0.0003813448628917465
-0.4911498744622804,-0.4911498744622804,0.9998041595180078,0.00044350368689694924
-0.49108076534466816,-0.49108076534466816,0.9998250750453448,0.0003434487609005888
-0.4910031962266658,-0.4910031962266658,0.9993301458421776,0.0003375013814151086
-0.49091606845031494,-0.49091606845031494,0.999652540870243,0.00036536847372273
-0.49083073837464325,-0.49083073837464325,1.0000596527409196,0.00041481365425113557
-0.4906946240822435,-0.4906946240822435,0.999752422590148,0.0003538015834665044
-0.4906136209865508,-0.4906136209865508,0.9998613643022256,0.0003613615817963115
-0.4904872140927182,-0.4904872140927182,1.0000242856004389,0.00039630152607239496
-0.4903891315829242,-0.4903891315829242,0.9994898834430697,0.00037347778652216835
-0.49029877669745475,-0.49029877669745475,1.000274001534813,0.00039580674213481466
-0.49016293676540956,-0.49016293676540956,0.9993822604095511,0.0003972168406782517
-0.49006695718780974,-0.49006695718780974,1.0001941700343415,0.00044592206059129106
-0.4900141235688352,-0.4900141235688352,1.000107353076821,0.00037362757730882766
-0.48990439553381293,-0.48990439553381293,0.9997442792578074,0.0003668641679491967
-0.48979265275702344,-0.48979265275702344,1.0006608398817116,0.00037583283496384084
-0.4897652789193671,-0.4897652789193671,0.9999847987492674,0.0004030150747901676
-0.48955382903368444,-0.48955382903368444,1.0000228600888825,0.00039341770257515514
-0.4893465162749635,-0.4893465162749635,1.000002180653665,0.000375446030848755
-0.4892094476672355,-0.4892094476672355,1.000025513681572,0.0004161364668968326
-0.4890583545253321,-0.4890583545253321,0.9996046181855374,0.0003503062514975917
-0.48894548001044313,-0.48894548001044313,1.0003333654925626,0.00036316432737493534
-0.48882939199829706,-0.48882939199829706,1.0000231108685644,0.00035839114228916467
-0.4887099924584618,-0.4887099924584618,0.9999849917103341,0.00037605202058642746
-0.48858249918048385,-0.48858249918048385,1.0000999545829843,0.000352282868147415
-0.4884521311527351,-0.4884521311527351,1.000089200598306,0.00040641493659876444
-0.4883841421775287,-0.4883841421775287,0.9998798658940341,0.00036889631245722043
-0.4882792789619998,-0.4882792789619998,1.000041100705102,0.00036148049682595284
-0.4880935984518146,-0.4880935984518146,0.9999650330612807,0.00039240005397443424
-0.48798422873151137,-0.48798422873151137,0.9998120161087426,0.00042610208117056184
-0.4878810209644143,-0.4878810209644143,1.0002020526245683,0.0003930015165426951
-0.4877101063197188,-0.4877101063197188,0.9999311079127065,0.0003951808415245818
-0.48754340557643444,-0.48754340557643444,0.9995434892911232,0.0003948784357179137
-0.48742742466929484,-0.48742742466929484,1.0005526898212762,0.00036362882798172724
-0.48722701200604207,-0.48722701200604207,0.9998397714334388,0.00035125336352261765
-0.48710176088279694,-0.48710176088279694,0.9999591273445914,0.00036949424360180284
-0.4868599161105521,-0.4868599161105521,1.0002576926769902,0.00037348821166361047
-0.48671288292389364,-0.48671288292389364,1.0001548852685354,0.00040942264900488065
-0.4866514369001379,-0.4866514369001379,1.000534404431851,0.00034976636803319116
-0.4865475425787736,-0.4865475425787736,0.9995283313592032,0.00035631314461683666
-0.48648218004309457,-0.48648218004309457,1.0000875700608962,0.0003679857924083472
-0.4864074806821009,-0.4864074806821009,1.000048246004678,0.0004242555015763837
-0.4862504880431516,-0.4862504880431516,0.9995062681512378,0.00038071468967236765
-0.4861132733400154,-0.4861132733400154,1.0001791518940712,0.00040520288049782603
-0.486053398619697,-0.486053398619697,0.9995148214530015,0.00040782354386178913
-0.4860159479743743,-0.4860159479743743,1.000427150940074,0.00035519394788255675
-0.4859227217042644,-0.4859227217042644,0.9997532419884001,0.0003664940876445232
-0.4857496542696026,-0.4857496542696026,1.000067868497028,0.00040454036357760156
-0.4856271856529929,-0.4856271856529929,0.9996525612722195,0.0004206766075323899
-0.48547003996791316,-0.48547003996791316,1.0000167158387137,0.0003567576765126494
-0.48536996234252,-0.48536996234252,1.0002612601683474,0.00039942801692285386
-0.4853035587788327,-0.4853035587788327,0.9998285262012399,0.00040347082343682574
-0.48516209764420637,-0.48516209764420637,0.9999031554166071,0.0003757606771671804
-0.4850906651598052,-0.4850906651598052,0.9998440798844955,0.0003602692653289259
-0.4850318857730599,-0.4850318857730599,1.0000235370818953,0.00041718863321460925
-0.48487109433917797,-0.48487109433917797,1.0000541874187356,0.00038261596705384076
-0.48463004916120556,-0.48463004916120556,1.0002287383783472,0.00037341700183278665
-0.4844779045706673,-0.4844779045706673,1.0005962735324285,0.0003687547434561876
-0.4842735125188483,-0.4842735125188483,0.999871614834779,0.00036293800490462167
-0.48414423644571797,-0.48414423644571797,1.0000670094989665,0.0003697986693824169
-0.4840376279760676,-0.4840376279760676,0.9997544964058482,0.0003674000957668784
-0.48394023025102795,-0.48394023025102795,1.0002391812177747,0.00035281003893110525
-0.48379541510148555,-0.48379541510148555,1.000089340585906,0.0003615519995352293
-0.4836509306442167,-0.4836509306442167,0.999962636719762,0.00040604551453922607
-0.48354366641287927,-0.48354366641287927,0.9998646278625911,0.00035023360234305356
-0.4834057404383202,-0.4834057404383202,1.00016893832602,0.0004205722011914102
-0.4832720696816978,-0.4832720696816978,1.0002396883811593,0.00041718331861213186
-0.48308651198312874,-0.48308651198312874,1.0004098326471635,0.0004341100211697034
-0.4828723222475674,-0.4828723222475674,1.0001732687104505,0.000399714346229231
-0.4826833095023176,-0.4826833095023176,1.0007157481115325,0.0003740990212416443
-0.48254819826979656,-0.48254819826979656,1.0002712291773554,0.00033810790472322763
-0.4824673318238638,-0.4824673318238638,0.9997601280851957,0.000365801209221726
-0.48230898036708825,-0.48230898036708825,0.9998802851876508,0.0003690732008008623
-0.4821364351097145,-0.4821364351097145,1.0000608855061621,0.0003620393404884256
-0.482051635816606,-0.482051635816606,0.9997057748694042,0.0003507343837176299
-0.48190298168556184,-0.48190298168556184,1.0004156378040503,0.00040166666350972683
-0.4818318314915814,-0.4818318314915814,1.000390617667976,0.00037185428050963084
-0.4817557588081399,-0.4817557588081399,1.0004823370067466,0.0003617329564509057
-0.4816509724390926,-0.4816509724390926,0.9998426127455897,0.00044007385867158926
-0.48152241069983576,-0.48152241069983576,1.000135364129641,0.0003543455565910349
-0.4814005182000983,-0.4814005182000983,1.0004276744187934,0.00040908836705487304
-0.4813123838044703,-0.4813123838044703,1.0006157384852863,0.00035232826478006073
-0.4811738868476823,-0.4811738868476823,1.000050128847764,0.00035930553666897394
-0.48106318050340635,-0.48106318050340635,0.9995366432633455,0.00036365180572411914
-0.4809374880947871,-0.4809374880947871,0.9997692871225293,0.00044062670298982125
-0.48087876074787345,-0.48087876074787345,0.9999516131696952,0.00040290998698785707
-0.48080497137270867,-0.48080497137270867,1.000141926435949,0.00036176754749137394
-0.4807108015898848,-0.4807108015898848,1.000040247030487,0.0003514583694385876
-0.48066017040982845,-0.48066017040982845,1.0001142808260624,0.0003677300375375959
-0.48057032179931414,-0.48057032179931414,0.9997924371108006,0.000390440287238395
-0.48048823789431483,-0.48048823789431483,0.9997610545143907,0.0003593272985456371
-0.4804161286985618,-0.4804161286985618,1.000270877333621,0.00038688529042260795
-0.4802991714081145,-0.4802991714081145,1.0002384997870977,0.00044639605648443497
-0.4800579256138008,-0.4800579256138008,0.9997640269681192,0.000381171961582277
-0.4799136605848616,-0.4799136605848616,0.9996472294822061,0.0003687812449347413
-0.4797680065210443,-0.4797680065210443,0.999585542166052,0.00036778399232128916
-0.4796545302524464,-0.4796545302524464,1.0000601903465784,0.00039992702515508836
-0.4794514152279589,-0.4794514152279589,1.000215377560359,0.0003601535855697483
-0.479363769194606,-0.479363769194606,1.0001111398942044,0.0003779913730550172
-0.47928403808400616,-0.47928403808400616,0.9997950780839189,0.0003439975228549984
-0.4791777063735935,-0.4791777063735935,1.0000171951887882,0.00035942756485726746
-0.47903932889530554,-0.47903932889530554,0.9998238434307695,0.000336388907628046
-0.47888876081706255,-0.47888876081706255,0.9993187716372022,0.00040477954619192293
-0.4787928550467768,-0.4787928550467768,0.9998767524794511,0.00037630564495487337
-0.47871123041186364,-0.47871123041186364,0.9999796341584842,0.0004103547063186713
-0.47858606863301245,-0.47858606863301245,1.0005385850334723,0.0003946408749463756
-0.47845707964952455,-0.47845707964952455,1.0003451053112347,0.00042243831869080586
-0.47830772365632584,-0.47830772365632584,1.0001560357927826,0.00039663763273641077
-0.47817026682241703,-0.47817026682241703,0.9999667697432221,0.00033827985056011684
-0.4779381821965217,-0.4779381821965217,1.0001046952448964,0.0003626575900044109
-0.47783606430748476,-0.47783606430748476,0.9999430696342466,0.00035546091403304835
-0.47773095730954085,-0.47773095730954085,0.9996953626796568,0.00036340019985900846
-0.47761738745539334,-0.47761738745539334,1.0001190809626,0.00035825218317088757
-0.47749562497483566,-0.47749562497483566,0.999712197452695,0.0003957697667203681
-0.47730681765533517,-0.47730681765533517,0.9996199272502932,0.0003624992581004683
-0.47719033341491013,-0.47719033341491013,1.0003461809409884,0.0004084822281702555
-0.4770623002681532,-0.4770623002681532,0.9997715443344806,0.00038433205380615883
-0.47698184065011445,-0.47698184065011445,1.0001995682635796,0.0004199136964554629
-0.4769105661471258,-0.4769105661471258,0.9994909158255675,0.00040464334642345036
-0.47681037341681076,-0.47681037341681076,0.9999278818518021,0.0003712447981221963
-0.4766829886902997,-0.4766829886902997,1.0000393171025563,0.00036409477012155266
-0.4765704350938904,-0.4765704350938904,0.9999898911563644,0.0004133275256772826
-0.4764599801565055,-0.4764599801565055,0.9999357712828972,0.00035494136174833935
-0.4763592984272691,-0.4763592984272691,0.9999865443975761,0.0004044420103076908
-0.47621725429416983,-0.47621725429416983,1.0000349410630665,0.00044257591943619315
-0.4761292981063889,-0.4761292981063889,1.000380932368413,0.000414801219381195
-0.4760514885521843,-0.4760514885521843,1.0000373283796977,0.000338860967522614
-0.47593810267426306,-0.47593810267426306,1.000314892117483,0.00037391291434821667
-0.47582282699731876,-0.47582282699731876,0.9998462366871281,0.0004118783450891221
-0.47572676792406127,-0.47572676792406127,1.000194751839592,0.0003732447552093184
-0.47556885995873016,-0.47556885995873016,0.9998260180781859,0.0003776392156478191
-0.47543128722245453,-0.47543128722245453,1.0000677591769065,0.0003690512063409629
-0.47536573259931175,-0.47536573259931175,1.000278611369612,0.00034044518980631686
-0.47527017881802747,-0.47527017881802747,0.999415566739291,0.0003812868428200884
-0.4750474549437058,-0.4750474549437058,1.0001092020985478,0.0004149333436990818
-0.47489489531799334,-0.47489489531799334,0.9999952587754393,0.00041183462783089765
-0.4747626182332169,-0.4747626182332169,0.999894194085521,0.00035579369800981274
-0.4746517447340011,-0.4746517447340011,1.0000624653674792,0.0003638740876745513
-0.47459761236459597,-0.47459761236459597,0.9996541286812775,0.00036235731519181893
-0.4744863116146007,-0.4744863116146007,0.9998899652933753,0.00035844024748383737
-0.4744183682872972,-0.4744183682872972,1.000133059120467,0.000357627632892274
-0.4742408626661927,-0.4742408626661927,0.9997555811524638,0.000368222465033477
-0.4741246132951346,-0.4741246132951346,1.0003216160946857,0.0004020845031228234
-0.4740578000841197,-0.4740578000841197,0.9999373016502737,0.00039597384790537003
-0.473941039199417,-0.473941039199417,0.9994948052780046,0.00040541129897097374
-0.4738594592279696,-0.4738594592279696,0.9997395748092568,0.00034573957852767235
-0.4737535605527228,-0.4737535605527228,0.9996741579532455,0.00040962421086320226
-0.4735512712220952,-0.4735512712220952,1.0004142331762804,0.0003973590745106305
-0.47334692556250957,-0.47334692556250957,1.0001168817653359,0.0003991602129875181
-0.47315940323969696,-0.47315940323969696,0.9996821157991619,0.0003519608738264927
-0.47308371190156323,-0.47308371190156323,0.9999029330782567,0.0003500491636361975
-0.47297070558706766,-0.47297070558706766,1.0004086158472283,0.0003647635648305645
-0.47288780812741604,-0.47288780812741604,0.9998137953465326,0.00036750685065229185
-0.47264125489018627,-0.47264125489018627,0.999820673825749,0.0004134780632309017
-0.4725593281764304,-0.4725593281764304,1.0002768461995342,0.0003622800087534086
-0.4724603810675035,-0.4724603810675035,1.000226681346485,0.0004352281118633619
-0.4723640928052191,-0.4723640928052191,0.9998250950582012,0.0003560008743708266
-0.4722799268703966,-0.4722799268703966,1.000194347597944,0.0003520710128082749
-0.47218987888481934,-0.47218987888481934,1.0000965152998076,0.0003637318942963502
-0.47206927159277257,-0.47206927159277257,0.9998199621208899,0.0003941464022320852
-0.4719565834784589,-0.4719565834784589,0.9996815995877419,0.00036485453334494727
-0.47188159628567516,-0.47188159628567516,0.999664605352707,0.00038712980933697146
-0.4717448867137136,-0.4717448867137136,1.0003429046216694,0.00036633505041763656
-0.4716282630201022,-0.4716282630201022,1.0003988270924393,0.00042469013760673615
-0.47149070680097793,-0.47149070680097793,0.999982485283527,0.0004067731802889237
-0.4714297817728948,-0.4714297817728948,0.9996750805920256,0.00041389360743638513
-0.4713411616590747,-0.4713411616590747,1.0002083542089921,0.00040480959259103587
-0.4712912249713554,-0.4712912249713554,0.9998811507135658,0.0003490815791371218
-0.471141162544518,-0.471141162544518,1.0003141498562633,0.00036403778700292333
-0.4711031527396699,-0.4711031527396699,0.9996839473046057,0.00041039458514006863
-0.47105411577795164,-0.47105411577795164,1.0002934736600726,0.00036431868777572074
-0.4709422937790805,-0.4709422937790805,0.9995580804488642,0.0003693039831653995
-0.4707628160605964,-0.4707628160605964,1.0001885667455308,0.00037319453067730264
-0.4706455892257509,-0.4706455892257509,0.9999427328365655,0.0003829989518574898
-0.4704688847763464,-0.4704688847763464,0.9989701610494889,0.00037687146580203136
-0.4703181093427702,-0.4703181093427702,1.0001787835998672,0.00035749939255509943
