time,time,flux,flux_err
-0.49976890942828806,-0.49976890942828806,1.0000120611569765,0.00010821409091111604
-0.49928108731789206,-0.49928108731789206,0.9998938084284782,0.00010860998786899368
-0.4989058730949182,-0.4989058730949182,0.9999848401052194,9.873098614814429e-05
-0.4984801947255619,-0.4984801947255619,0.9998864014027549,9.888592703376608e-05
-0.4980166750960052,-0.4980166750960052,1.0001689099299764,9.936368092186681e-05
-0.4975670856278157,-0.4975670856278157,0.9997555512719675,9.803884495519254e-05
-0.4972250364866341,-0.4972250364866341,1.0000527135660282,9.750949624759109e-05
-0.49704425217350945,-0.49704425217350945,0.9999420565380011,9.69284042177764e-05
-0.49679714008234444,-0.49679714008234444,0.9999812153561407,9.819074291156433e-05
-0.4965875718073221,-0.4965875718073221,0.9998629705090571,9.676540316474403e-05
-0.4959918245120207,-0.4959918245120207,1.0000592891319042,9.960266276989669e-05
-0.4954490867297864,-0.4954490867297864,1.0001158172899427,9.91109729022629e-05
-0.49480525169929024,-0.49480525169929024,0.9998433409917944,9.958041498832497e-05
-0.49448140886088365,-0.49448140886088365,0.9999837605707462,9.972932051231518e-05
-0.49407652555091774,-0.49407652555091774,0.999941918116258,9.913186890323916e-05
-0.4936091394309187,-0.4936091394309187,1.0000320061286485,9.860796810643284e-05
-0.4932744701829506,-0.4932744701829506,1.0000637595754704,9.831851825251706e-05
-0.4928747263154946,-0.4928747263154946,1.000028163500306,9.839936160342897e-05
-0.4925686782517005,-0.4925686782517005,1.0002667125273945,9.894456251781166e-05
-0.49205201819131617,-0.49205201819131617,1.0000442755279049,0.00010018007268618606
-0.49153074515925255,-0.49153074515925255,0.9999728489675187,9.70484717558222e-05
-0.49115547926339786,-0.49115547926339786,1.000041900254983,9.751449683136227e-05
-0.4909551786491647,-0.4909551786491647,1.0000011948379837,9.610521414520006e-05
-0.49080260582559276,-0.49080260582559276,1.000012533165049,9.78494879800122e-05
-0.49059130185341926,-0.49059130185341926,1.000044904624597,9.72170551520847e-05
-0.49009109278267715,-0.49009109278267715,0.999993218161715,9.939991856278973e-05
-0.4895969124569092,-0.4895969124569092,1.0001086089218496,9.960295667053e-05
-0.48903963111224585,-0.48903963111224585,1.0000438993790857,9.901785159425057e-05
-0.4885901248257142,-0.4885901248257142,1.0000140604438414,9.938801208709278e-05
-0.4883019085740671,-0.4883019085740671,1.000052483332419,0.00010001692375486511
-0.4878690561949043,-0.4878690561949043,1.0001120593209332,9.904384986976178e-05
-0.4874195859971223,-0.4874195859971223,1.0000214231015898,9.848267307472732e-05
-0.4870487003121525,-0.4870487003121525,0.9998550374760724,9.839406196930265e-05
-0.48673165835789406,-0.48673165835789406,0.9999952680803534,9.863739698431822e-05
-0.4865144883515313,-0.4865144883515313,1.0000349308633276,9.978869044681e-05
-0.48601054746541195,-0.48601054746541195,0.9998568172105664,9.867149976771081e-05
-0.4855225279752631,-0.4855225279752631,1.0000333057816306,9.849960127415955e-05
-0.48508242769748905,-0.48508242769748905,1.0000802711684307,9.750231242674565e-05
-0.4848321269470034,-0.4848321269470034,1.0001102035487368,9.792942790369597e-05
-0.4847120924387127,-0.4847120924387127,1.0000228809406015,9.814204461577074e-05
-0.48440824797726234,-0.48440824797726234,1.000111859457673,9.57692628316256e-05
-0.483882996608736,-0.483882996608736,0.9998559831403704,9.960083888182869e-05
-0.4832124958571512,-0.4832124958571512,0.9999379701495303,9.919142050255306e-05
-0.48256860972032883,-0.48256860972032883,1.0000577698490427,9.961384805923961e-05
-0.48222507440659684,-0.48222507440659684,1.0000645040881249,9.972347250338294e-05
-0.4818744465417694,-0.4818744465417694,0.9998843477320211,9.907818177065121e-05
-0.4814697124646045,-0.4814697124646045,0.9999812735826451,9.950976407340138e-05
-0.4811116600729292,-0.4811116600729292,1.0001197382166453,9.857752388334003e-05
-0.4807863648311468,-0.4807863648311468,1.0001030002181517,9.838693134860755e-05
-0.4805404310434824,-0.4805404310434824,0.9998713576928054,9.877148931464138e-05
-0.48009852175891865,-0.48009852175891865,1.0000277942350266,9.85314033680696e-05
-0.4795609054795932,-0.4795609054795932,1.0000332108089534,0.0001003647837747994
-0.4790985922241816,-0.4790985922241816,0.9999194787616699,9.883091950947027e-05
-0.4788010716118151,-0.4788010716118151,1.000054761887012,9.760297321680407e-05
-0.47865488164534326,-0.47865488164534326,1.0000235698558289,9.805944983411561e-05
-0.4784241412358824,-0.4784241412358824,1.0002318761665858,9.620490051362015e-05
-0.47796932704513895,-0.47796932704513895,0.9999807614542909,9.839252332945889e-05
-0.47740681360883175,-0.47740681360883175,1.000162893627007,9.97036637801531e-05
-0.4767944780149264,-0.4767944780149264,1.0001564715885654,9.931062600879886e-05
-0.4762654797057621,-0.4762654797057621,1.000061934940259,9.940217015067364e-05
-0.4758462708123261,-0.4758462708123261,1.0000567805992566,9.949687460748375e-05
-0.47559947622939946,-0.47559947622939946,1.000029290410314,9.786948259361184e-05
-0.47517133733199446,-0.47517133733199446,1.0000456640637847,9.917971534224859e-05
-0.47484090992657,-0.47484090992657,0.9999464765555933,9.800018566397284e-05
-0.4745879016933031,-0.4745879016933031,1.0000299935755863,9.948157965688508e-05
-0.4742942506651161,-0.4742942506651161,1.000002047805032,9.85218598944814e-05
-0.47374657611362636,-0.47374657611362636,1.0000159969257565,9.90072011951908e-05
-0.47324031208991074,-0.47324031208991074,0.999905741570857,9.99597732343023e-05
-0.4728368900337955,-0.4728368900337955,1.0000142033758403,9.751245660654569e-05
-0.472619269657298,-0.472619269657298,0.99988004343339,9.78347120361873e-05
-0.47246796428808013,-0.47246796428808013,1.0001704664142055,9.820223852721133e-05
-0.4720753899076954,-0.4720753899076954,1.0000673555240225,9.682728013664087e-05
-0.4715392097365111,-0.4715392097365111,1.0000055477835825,9.927464277353668e-05
-0.4708599114761455,-0.4708599114761455,0.9999887603279815,9.970426026814408e-05
-0.47035455857403574,-0.47035455857403574,0.9999479909047487,9.928381202587579e-05
-0.4699410880857613,-0.4699410880857613,1.0000236706604122,0.0001010568905168859
-0.46956107987789436,-0.46956107987789436,1.0000180411799982,9.840676636225655e-05
-0.4691548170376336,-0.4691548170376336,1.0001771055519615,9.937130056104018e-05
-0.4687551016220823,-0.4687551016220823,0.9999287657774696,9.770705392280515e-05
-0.4685338966432028,-0.4685338966432028,1.000108843567183,9.936501919710426e-05
-0.46826802850700916,-0.46826802850700916,1.0000165190198473,9.85896707773099e-05
-0.46783345712174196,-0.46783345712174196,0.999994813539234,9.880293378708536e-05
-0.4673140856757527,-0.4673140856757527,1.0000397124634761,0.00010109260048962996
-0.4668384292424889,-0.4668384292424889,0.9999581402631336,9.750986252974974e-05
-0.4665965693042381,-0.4665965693042381,1.0000923945345674,9.886000101265616e-05
-0.4664029795472743,-0.4664029795472743,1.000099151938204,9.721800567151608e-05
-0.46615960271155926,-0.46615960271155926,0.9998954061850519,9.607869266714644e-05
-0.4655973465880379,-0.4655973465880379,1.0000016651643548,9.961403931052663e-05
-0.46483727427548727,-0.46483727427548727,1.0000236873465742,9.940558429407746e-05
-0.464362379477825,-0.464362379477825,0.9999017647040116,9.959922785192487e-05
-0.4638690333609702,-0.4638690333609702,0.9998806241622189,0.00010074208868737554
-0.4635178067459492,-0.4635178067459492,0.9998915292499211,9.938379865272892e-05
-0.4631433528586058,-0.4631433528586058,0.9999403129338866,9.838397138107192e-05
-0.4626752673037117,-0.4626752673037117,0.9999806748065317,9.871500765539489e-05
-0.46244163684605155,-0.46244163684605155,1.0000733011458562,9.837703910631932e-05
-0.46222391914343464,-0.46222391914343464,1.0001166391779464,9.869700436148747e-05
-0.46180033425043804,-0.46180033425043804,0.9998877590152555,9.881872060656991e-05
-0.4613056874572067,-0.4613056874572067,0.9998883409680606,9.995354535130013e-05
-0.46076617331127634,-0.46076617331127634,1.0000932226300399,9.856262432411877e-05
-0.46049454434833026,-0.46049454434833026,0.9999670248928488,9.885553052915266e-05
-0.46028521880216433,-0.46028521880216433,1.0001685854900852,9.620152497030914e-05
-0.46001029870822097,-0.46001029870822097,1.0000222449894909,9.710298840378508e-05
-0.4594827876688214,-0.4594827876688214,1.0000376983912311,9.962305816072254e-05
-0.45871661122946533,-0.45871661122946533,0.9999149795313936,9.93963777191365e-05
-0.4582475406525191,-0.4582475406525191,1.0001728055833472,9.959673289316223e-05
-0.4577176503196824,-0.4577176503196824,0.9999597399786502,9.940892783372757e-05
-0.45737227413628717,-0.45737227413628717,0.9999626293650022,9.887407241216096e-05
-0.45694463258550966,-0.45694463258550966,0.9999612786425572,9.816420145750975e-05
-0.4564913336536847,-0.4564913336536847,1.000085941853904,9.893480096703487e-05
-0.4562954160443041,-0.4562954160443041,0.9999821561412597,9.840793509256846e-05
-0.4560366841236828,-0.4560366841236828,0.9999563186579635,9.845741667368893e-05
-0.4555841603752924,-0.4555841603752924,0.9998797390819979,9.865019434877916e-05
-0.4550734921591356,-0.4550734921591356,1.000012687868508,0.00010094489275487347
-0.45455869974393864,-0.45455869974393864,1.0000023244360086,9.772126353966117e-05
-0.4543385377211962,-0.4543385377211962,1.000048780170423,9.79375010622085e-05
-0.4541237008117605,-0.4541237008117605,1.0000048701562627,9.720266531637901e-05
-0.45380491983378307,-0.45380491983378307,0.999850846485615,9.711233508402714e-05
-0.4533684665861074,-0.4533684665861074,1.0000280974063016,9.960627664557157e-05
-0.4525960976287024,-0.4525960976287024,0.9998070970196558,9.939140733929163e-05
-0.4522364349133568,-0.4522364349133568,1.0001096855991203,9.992413300684757e-05
-0.4518999564374099,-0.4518999564374099,1.0000944042025128,9.952820197559325e-05
-0.4515914373769192,-0.4515914373769192,0.9999312399700896,9.915250709939037e-05
-0.4512421288585756,-0.4512421288585756,1.000049027422818,9.872067028330426e-05
-0.4508162267302396,-0.4508162267302396,1.0001954437443894,9.82804240907039e-05
-0.4503666670265375,-0.4503666670265375,1.0000347325973018,9.894785188981441e-05
-0.4501848416373832,-0.4501848416373832,0.9999923114216298,9.833473080455397e-05
-0.4499034716369351,-0.4499034716369351,1.000045898033569,9.849123316806651e-05
-0.4495466197258793,-0.4495466197258793,1.0003396370893545,9.963516079896455e-05
-0.4490909254702274,-0.4490909254702274,1.0000216785995064,9.824952384239532e-05
-0.4486032839020481,-0.4486032839020481,1.0000099569020062,9.709167746880856e-05
-0.44834360335662493,-0.44834360335662493,1.0000188846711884,9.854775432354584e-05
-0.44808524662221316,-0.44808524662221316,0.9999950196354733,9.718689902064692e-05
-0.4477750437450595,-0.4477750437450595,1.0000780677994525,9.711507204673478e-05
-0.44748698397888803,-0.44748698397888803,1.000153354201227,9.861798132479412e-05
-0.4469193205295596,-0.4469193205295596,0.9997736733172509,0.00010079001786089435
-0.4463068838987965,-0.4463068838987965,1.0000214687439815,0.0001008515878173922
-0.44604927680047696,-0.44604927680047696,1.0002792652152572,9.986939673816306e-05
-0.4457700817467412,-0.4457700817467412,0.9999016822587026,9.953363673990021e-05
-0.4453406104061287,-0.4453406104061287,1.000156791795269,9.889613579642963e-05
-0.444984010286862,-0.444984010286862,0.9999567906437787,9.879507954267172e-05
-0.4444864813471213,-0.4444864813471213,1.0000914639758787,9.843267346122465e-05
-0.44416559168021197,-0.44416559168021197,0.9999515921820935,9.872813520281846e-05
-0.44397448329837064,-0.44397448329837064,0.9999836795294342,9.833743935332246e-05
-0.44362752384622584,-0.44362752384622584,1.0001275712572388,9.865797638467866e-05
-0.44324345358181744,-0.44324345358181744,0.999864884163079,9.893589846434843e-05
-0.4427726445283042,-0.4427726445283042,0.9999118105392991,9.805095981915077e-05
-0.44232492974842896,-0.44232492974842896,1.0002404115089878,9.795424986675067e-05
-0.4421320993074914,-0.4421320993074914,1.0001356584520429,9.776704594885946e-05
-0.4418429857410956,-0.4418429857410956,1.000066462208373,9.714057390301823e-05
-0.44152832533582115,-0.44152832533582115,1.0000225874803141,9.678654718200766e-05
-0.44113900198717604,-0.44113900198717604,1.0000227753337143,9.970616731019869e-05
-0.4403555246914038,-0.4403555246914038,1.0000284264470456,9.939654020969197e-05
-0.44005549399298616,-0.44005549399298616,1.0001059805996075,0.00010086197005095303
-0.4397575436771149,-0.4397575436771149,0.9998377720535799,9.949543484560268e-05
-0.4393383318762062,-0.4393383318762062,0.9998840592123276,9.903935832849568e-05
-0.43891243931720964,-0.43891243931720964,1.000088671194737,9.878999851209563e-05
-0.4384623257821659,-0.4384623257821659,1.0001342000508533,9.816773960198808e-05
-0.43802308290905784,-0.43802308290905784,1.000059835804761,9.932411991835999e-05
-0.43778745003219227,-0.43778745003219227,1.000118618771369,9.86937029219082e-05
-0.43743712839786897,-0.43743712839786897,1.0000737556767612,9.862468357273236e-05
-0.4370066161180148,-0.4370066161180148,0.9998881530232054,9.887047416557496e-05
-0.43651730934216176,-0.43651730934216176,1.0000015804169633,9.801108645065282e-05
-0.43620493219059425,-0.43620493219059425,1.0000393874137221,9.763513803707097e-05
-0.43593791621387934,-0.43593791621387934,1.000150538245721,9.718114300698328e-05
-0.43557794122607446,-0.43557794122607446,0.9998771223911994,9.713642791823261e-05
-0.4353096605074825,-0.4353096605074825,0.9999136882156915,9.85003558218945e-05
-0.43481744747550694,-0.43481744747550694,0.99977489437236,9.990222830174182e-05
-0.4342484010878252,-0.4342484010878252,0.9999794289520025,0.0001005547319835113
-0.4339003337401664,-0.4339003337401664,1.0001664453541395,9.991449602425732e-05
-0.43354088013293224,-0.43354088013293224,1.0001090649211666,9.93060127685779e-05
-0.4330129155394388,-0.4330129155394388,0.9999256713654952,9.882877708356943e-05
-0.4326109308138257,-0.4326109308138257,1.000122861959802,9.788853563230218e-05
-0.43212998732051344,-0.43212998732051344,0.9999897081197148,9.908516044904384e-05
-0.43176419388328213,-0.43176419388328213,1.000136452558077,9.868912186399358e-05
-0.43142042849212886,-0.43142042849212886,0.9999209188476332,9.838857150389923e-05
-0.4309719110606238,-0.4309719110606238,1.000195522068801,9.893689995328838e-05
-0.43048113547847605,-0.43048113547847605,1.0001533917348724,9.803597546320921e-05
-0.4301497931883205,-0.4301497931883205,0.999989498951094,9.853071212275099e-05
-0.4298293666972313,-0.4298293666972313,0.9999381891356609,9.612417140321304e-05
-0.4294376795063727,-0.4294376795063727,0.9999776092099776,9.783149257175028e-05
-0.42918644891469737,-0.42918644891469737,1.0001652115462272,9.771771697695971e-05
-0.4287742872867966,-0.4287742872867966,0.9999001808471014,0.0001002579576772074
-0.42825910563697106,-0.42825910563697106,0.9999377275922526,0.00010042570019840868
-0.4277829476923216,-0.4277829476923216,1.000075529462871,9.959327465430999e-05
-0.427405534349964,-0.427405534349964,0.9998220711290727,9.956970547945253e-05
-0.4269105874060187,-0.4269105874060187,1.000067718535752,9.869968565754785e-05
-0.42649996811232993,-0.42649996811232993,1.000024348638974,9.785362821969465e-05
-0.4261261337669566,-0.4261261337669566,1.0000634530161918,9.81447852831725e-05
-0.4256866950192489,-0.4256866950192489,0.9999074662871491,9.956640503979413e-05
-0.4253666499920655,-0.4253666499920655,0.9999907772543729,9.840134092590062e-05
-0.4249381114146672,-0.4249381114146672,0.9999719197678527,9.888078330062035e-05
-0.42443351340771185,-0.42443351340771185,1.0000231876804562,9.710991996326402e-05
-0.4240879265387775,-0.4240879265387775,0.9999923266853538,9.95153775804327e-05
-0.4237828464014456,-0.4237828464014456,1.0000782561532435,9.612654688066516e-05
-0.4233717275084928,-0.4233717275084928,1.0001097648683113,9.683789368699464e-05
-0.42307627041591334,-0.42307627041591334,1.0000402216742943,9.873002775967636e-05
-0.4225795732490951,-0.4225795732490951,0.9999503947433375,9.994895831129283e-05
-0.4220502933370881,-0.4220502933370881,1.0002060021309458,0.00010047956630189966
-0.42152517559588887,-0.42152517559588887,0.9999282555587928,9.971966698702965e-05
-0.42110965944302736,-0.42110965944302736,1.0000406328557085,9.910135230464573e-05
-0.42065802167053334,-0.42065802167053334,1.0000616920296452,9.892810712435095e-05
-0.4200913456152193,-0.4200913456152193,1.0000014750936939,9.848149504958774e-05
-0.419642121164361,-0.419642121164361,1.0001120822462624,9.924408616031379e-05
-0.41924467127537357,-0.41924467127537357,0.9999297815847339,9.938177706647665e-05
-0.41882227088499346,-0.41882227088499346,1.0002334311703667,9.886462895712471e-05
-0.4183842719095992,-0.4183842719095992,1.00005081816752,9.701062812307931e-05
-0.41800471529422795,-0.41800471529422795,0.999915011639029,9.891458496147198e-05
-0.4177271098451456,-0.4177271098451456,1.0000376285832657,9.682147837725704e-05
-0.4173178168945014,-0.4173178168945014,1.000054992945246,9.612231851685964e-05
-0.41701433713606095,-0.41701433713606095,1.0001228991129725,9.741648739968778e-05
-0.4167285364557756,-0.4167285364557756,1.0000150830305086,9.946843694125995e-05
-0.41632981375150846,-0.41632981375150846,0.9998840584194729,0.00010008431785715497
-0.41582530160958414,-0.41582530160958414,1.000039574517873,0.00010038423136039718
-0.41531688334944195,-0.41531688334944195,1.0000594222454988,9.949560874414737e-05
-0.414926251853467,-0.414926251853467,1.000065359993549,9.932856213243256e-05
-0.41447489239799323,-0.41447489239799323,0.9999943752082598,9.865766152005399e-05
-0.4139644670038251,-0.4139644670038251,0.9998562482421243,9.845695047091911e-05
-0.41353230918175543,-0.41353230918175543,1.0001462788904905,9.923672434595612e-05
-0.413027068451629,-0.413027068451629,0.9999822523363424,9.938056186863135e-05
-0.41260709482012314,-0.41260709482012314,0.9999617273614628,9.816371814363336e-05
-0.41209103883593345,-0.41209103883593345,0.999907152278581,9.794292863921108e-05
-0.41180929956608453,-0.41180929956608453,1.0000730674947915,9.869578098607991e-05
-0.4114824303833302,-0.4114824303833302,1.0000372647408544,9.830604731128196e-05
-0.41110628738533705,-0.41110628738533705,0.9997799818064734,9.6816210698139e-05
-0.4108704496495193,-0.4108704496495193,0.9999333954267018,9.742104075714739e-05
-0.4105418519669911,-0.4105418519669911,1.0000805480585229,9.958313941897249e-05
-0.4102257251943229,-0.4102257251943229,0.9999158226827017,0.00010013776416799061
-0.4096855576528469,-0.4096855576528469,1.0001122942414982,0.00010044010545888252
-0.4090100604982581,-0.4090100604982581,1.0000075267474435,9.920051978059367e-05
-0.4086492302099941,-0.4086492302099941,0.9999294921490989,9.95023867015836e-05
-0.4081310171255609,-0.4081310171255609,0.9999915415301455,9.869875647185969e-05
-0.4077213039068738,-0.4077213039068738,0.9999737885525111,9.84108588036817e-05
-0.40719018222007436,-0.40719018222007436,1.0000232110319285,9.952793683112584e-05
-0.40671170635032466,-0.40671170635032466,1.0001350723914202,9.857588473272522e-05
-0.4062649691681145,-0.4062649691681145,1.0001039943959877,9.80446309620352e-05
-0.4058802094659768,-0.4058802094659768,1.0000401072465754,9.882914756632437e-05
-0.405636183716706,-0.405636183716706,0.9999649460350011,9.870557398430194e-05
-0.40525240764254705,-0.40525240764254705,0.999972104576052,9.613391720260348e-05
-0.40493059091386385,-0.40493059091386385,1.0000571642558405,9.774715353435626e-05
-0.40468127662607,-0.40468127662607,1.0000316110411709,9.745812315858919e-05
-0.40436038780608213,-0.40436038780608213,0.9999736321236476,0.00010009348078202493
-0.40401911072258373,-0.40401911072258373,0.9998885691183454,9.972864289894277e-05
-0.40347546756675,-0.40347546756675,1.0000118187049938,0.00010028118891177347
-0.4028311818750808,-0.4028311818750808,1.0000479683828465,9.909334109720159e-05
-0.40245631903526374,-0.40245631903526374,1.0000115112203194,9.93182661301159e-05
