time,time,flux,flux_err
-0.4999413712139358,-0.4999413712139358,0.9999755919883411,0.00011873859558823331
-0.49975289292342495,-0.49975289292342495,1.000143016813346,0.00010717147444380146
-0.49951881564205297,-0.49951881564205297,1.000048951713,0.00010849772501403163
-0.4993417958605278,-0.4993417958605278,0.9999701041632569,9.745803819919588e-05
-0.4992289465488284,-0.4992289465488284,1.0000231695020503,9.257813694084421e-05
-0.49916625863916125,-0.49916625863916125,0.9999002223958655,0.00010013062083050387
-0.4991027937918261,-0.4991027937918261,1.0000078338708132,9.349814833361932e-05
-0.4990510107840237,-0.4990510107840237,1.0000504879781544,9.109401839624693e-05
-0.49897073358442867,-0.49897073358442867,1.0000913069237454,9.424164287750184e-05
-0.4988376539651654,-0.4988376539651654,1.0000246887973376,9.62518913315398e-05
-0.4987475060523138,-0.4987475060523138,0.9999256056679494,0.00010138527966279808
-0.49849693977230347,-0.49849693977230347,0.9999715008014534,9.428212315450763e-05
-0.4984563342659385,-0.4984563342659385,1.0000357447478365,9.374844651814699e-05
-0.498379427351756,-0.498379427351756,0.9998662473540213,9.380624378077472e-05
-0.4982269222324248,-0.4982269222324248,1.0000289777264815,0.00010986610851276936
-0.49810907523788045,-0.49810907523788045,0.9999959519123772,9.903918944151578e-05
-0.49796642337096275,-0.49796642337096275,0.9999289095259396,0.0001063066420988991
-0.49782640590710797,-0.49782640590710797,1.0000454519191087,9.679740392788385e-05
-0.4977125173754757,-0.4977125173754757,0.999984508397502,9.598130526261476e-05
-0.4975734947947785,-0.4975734947947785,0.9999654403729357,0.00010420807622127891
-0.4973846862812934,-0.4973846862812934,1.0001683439472273,0.00010284248565112751
-0.49730648061740795,-0.49730648061740795,1.0000676946006481,9.399908436706877e-05
-0.4972426202715724,-0.4972426202715724,0.9999606418961264,9.350527434868078e-05
-0.4971568623761414,-0.4971568623761414,1.0000265994923283,9.661738544254999e-05
-0.4970702943050128,-0.4970702943050128,1.000044707321721,9.890703065169499e-05
-0.49690506768674825,-0.49690506768674825,0.999966724296421,0.00010082537455000489
-0.49673218205425657,-0.49673218205425657,1.0000632313666045,0.00010009381674173077
-0.4966384932267829,-0.4966384932267829,0.999941495694485,0.00010126806873878683
-0.49648699540266533,-0.49648699540266533,0.9999198534694281,9.849965926956383e-05
-0.49639310696657046,-0.49639310696657046,1.0001005636696214,0.00010446716328888338
-0.4962698918316164,-0.4962698918316164,1.0000622768517844,9.393267627410908e-05
-0.49617334801878316,-0.49617334801878316,0.9999782874782713,0.00010137029652188359
-0.4960779637869564,-0.4960779637869564,1.0001387530416566,0.00010100184668859229
-0.49593574153841474,-0.49593574153841474,0.9998865735526902,9.498562412146088e-05
-0.49578216366280686,-0.49578216366280686,0.99987655184482,9.926999160704046e-05
-0.49564449069584954,-0.49564449069584954,0.9998560674955688,0.00010261504013210087
-0.4955561337264953,-0.4955561337264953,1.0001382404624894,0.00010318971885088053
-0.49547389152285176,-0.49547389152285176,1.000061566529044,0.00010033851800938898
-0.49535332904488316,-0.49535332904488316,1.0000484956732811,9.585968254181588e-05
-0.49522957138688073,-0.49522957138688073,0.9999369325310365,9.310361065163018e-05
-0.49503729216739883,-0.49503729216739883,0.9999973838259095,9.31874291963199e-05
-0.4948642315335746,-0.4948642315335746,0.9999210457971003,9.698979041466311e-05
-0.4947805538417015,-0.4947805538417015,0.9998908068661085,0.00010153927904964822
-0.4946983083071245,-0.4946983083071245,1.000047353562311,9.518856001816603e-05
-0.4945819609005412,-0.4945819609005412,1.0000722860744247,9.29314313987409e-05
-0.4944571009960782,-0.4944571009960782,0.9998677982824198,9.402481070248115e-05
-0.4943089242980932,-0.4943089242980932,1.0000141269704539,0.00010227498266100761
-0.4942314797488507,-0.4942314797488507,0.999865653412693,9.742300568198972e-05
-0.4940945689872024,-0.4940945689872024,1.0002213770317918,9.941536855815781e-05
-0.49400108987101704,-0.49400108987101704,1.0002077664898288,9.234283695935758e-05
-0.4939016001975688,-0.4939016001975688,1.000059126442777,0.00010327295282780872
-0.49380165233524165,-0.49380165233524165,0.9999670685832838,9.848412800081931e-05
-0.493669111833151,-0.493669111833151,0.9999243084872553,0.00010227712465204545
-0.49350564463529734,-0.49350564463529734,0.9999548377145434,9.543090766355368e-05
-0.49341053262614876,-0.49341053262614876,0.9999353020717077,9.722387316374968e-05
-0.4933132279125857,-0.4933132279125857,1.0000116662494853,9.571031558743774e-05
-0.49315157497258044,-0.49315157497258044,1.0001650047386796,9.307075661475616e-05
-0.49301519552900575,-0.49301519552900575,1.0000508982840677,9.305698769469736e-05
-0.4929173713848286,-0.4929173713848286,0.9998856719761507,0.00010091858731910153
-0.49274810605929814,-0.49274810605929814,1.0001556828223843,9.318636286866956e-05
-0.4926978636183776,-0.4926978636183776,0.9998849172405958,9.847508484198426e-05
-0.49264685683519926,-0.49264685683519926,0.9999956139669497,9.598762460966557e-05
-0.49259398781723573,-0.49259398781723573,1.0001726289877657,9.566748136358578e-05
-0.4925050492391165,-0.4925050492391165,1.0001179977092174,0.00010223598151547352
-0.49233767167388576,-0.49233767167388576,1.0000395477943964,0.00011137628882193337
-0.49224175491690403,-0.49224175491690403,1.0000009707149888,9.561662977684097e-05
-0.49210214083796017,-0.49210214083796017,0.9999796545774178,9.633820804173476e-05
-0.491984451940516,-0.491984451940516,0.9998199728433523,0.00010007314450615429
-0.4918891293331399,-0.4918891293331399,1.0000695708218892,0.00010198768465183555
-0.4917884585665888,-0.4917884585665888,1.0000180283538125,9.523471413933872e-05
-0.4917123539366003,-0.4917123539366003,1.000078557699699,9.33846986743901e-05
-0.4916188309478457,-0.4916188309478457,1.0000178650188403,9.802661425234933e-05
-0.491511500182969,-0.491511500182969,1.0000298658119566,9.585180448845146e-05
-0.49134695574684883,-0.49134695574684883,1.0001702879692735,9.837440872939192e-05
-0.49116320564280613,-0.49116320564280613,1.000139980102777,0.00010099269558268149
-0.4909960796947416,-0.4909960796947416,0.999895551342254,9.234922643394585e-05
-0.4909295159668545,-0.4909295159668545,1.0001515779559287,9.272446193444474e-05
-0.49083026237785815,-0.49083026237785815,1.0000015809775566,9.366968146638858e-05
-0.49069659761007645,-0.49069659761007645,1.0000614643401984,9.186134539873101e-05
-0.49061215364999955,-0.49061215364999955,0.9999233120826092,0.00010562488904571692
-0.4905553804448573,-0.4905553804448573,1.000156142837405,9.890793698543376e-05
-0.4904451567097567,-0.4904451567097567,0.9998915741866572,0.00010197432977283748
-0.49025174923444864,-0.49025174923444864,0.9999467784383647,9.475637812064863e-05
-0.4900231237967091,-0.4900231237967091,1.0000227919806202,9.890796043468355e-05
-0.48990650178311623,-0.48990650178311623,1.000095852202165,0.0001037790153730921
-0.489770989484532,-0.489770989484532,1.0000590856375051,0.00010064841020966545
-0.4897144372778712,-0.4897144372778712,0.9999809867169486,9.580553725629388e-05
-0.4896210493840044,-0.4896210493840044,0.9999886658416683,9.444007835153794e-05
-0.4894800108755589,-0.4894800108755589,0.9998522228195466,9.832200205286367e-05
-0.4893212727627542,-0.4893212727627542,0.9999932002437042,9.765916383097607e-05
-0.48925279593386223,-0.48925279593386223,1.0000305790119803,9.916998055677048e-05
-0.4891439767081465,-0.4891439767081465,1.0001349908007522,9.518215854091907e-05
-0.48904338481952436,-0.48904338481952436,0.9999244292250715,9.330640705681464e-05
-0.4889222607984266,-0.4889222607984266,0.9999476126391524,9.787249962190064e-05
-0.4888517300816602,-0.4888517300816602,0.9999154781468356,0.00010600364024407397
-0.48877425765240334,-0.48877425765240334,1.0000406452728567,0.00010398078554156316
-0.48864821200695585,-0.48864821200695585,0.9999191928479542,9.980446342696214e-05
-0.48856031845280085,-0.48856031845280085,1.000043959827326,9.78368124475237e-05
-0.48848939360686927,-0.48848939360686927,1.000040925757022,9.903086949187953e-05
-0.4883462761383271,-0.4883462761383271,1.0000222112343062,9.565607276768223e-05
-0.48822539102766316,-0.48822539102766316,1.0000754839565003,9.692674865607739e-05
-0.48810462284382083,-0.48810462284382083,0.9999398848373213,0.00010099678257407203
-0.4880430050798168,-0.4880430050798168,0.9999491376659451,0.00010195406457941462
-0.48794263494273765,-0.48794263494273765,1.0000771669321977,0.00010168268145109578
-0.487816101781209,-0.487816101781209,1.0000592119398655,9.337741225274112e-05
-0.4877115906769177,-0.4877115906769177,1.0001949396665097,9.266269918836037e-05
-0.4875875183599419,-0.4875875183599419,1.0001638261772734,9.900954736515003e-05
-0.48743471369016333,-0.48743471369016333,1.0000848240319706,9.940375672822614e-05
-0.48732056198568896,-0.48732056198568896,0.9999561248891228,9.772055956613862e-05
-0.48723103867741885,-0.48723103867741885,1.0000679014002625,9.955347942591534e-05
-0.48710980861869757,-0.48710980861869757,0.9998898984101492,9.52481782661667e-05
-0.4870020792463038,-0.4870020792463038,1.000090544680114,0.00010363750922384122
-0.4868782660989382,-0.4868782660989382,0.999948738331847,9.353212499741372e-05
-0.48668197117440287,-0.48668197117440287,1.0000353368258226,0.00010163800797356498
-0.48659241083078086,-0.48659241083078086,1.000053327914881,9.299187517405437e-05
-0.48651434339844857,-0.48651434339844857,1.0000001623833281,9.454732903793858e-05
-0.48638840834391883,-0.48638840834391883,0.9999811962965046,0.0001015487649076936
-0.4863068084916449,-0.4863068084916449,1.0000005191989974,0.00010159287959114434
-0.48616654273573656,-0.48616654273573656,1.0000966620775489,0.00010470019709278838
-0.4860552406258648,-0.4860552406258648,1.00020741398091,0.00010142236729302747
-0.4859431763041357,-0.4859431763041357,1.0000560222929822,9.567668007757258e-05
-0.48586210702633253,-0.48586210702633253,0.9998776639874493,9.954533207569463e-05
-0.48575625818339174,-0.48575625818339174,1.0000005024667307,9.3428731856462e-05
-0.4855149033872294,-0.4855149033872294,1.0000141053184994,9.34766994945655e-05
-0.48544081486616053,-0.48544081486616053,0.9999077523460315,9.614659386413415e-05
-0.4852846910354856,-0.4852846910354856,1.000040091978406,0.00010303939888179031
-0.48521504101590834,-0.48521504101590834,0.9999995393338832,9.602601893138331e-05
-0.4851508030158584,-0.4851508030158584,0.9999747551619486,9.270394036419222e-05
-0.48505396173059123,-0.48505396173059123,1.0001494285003736,9.295063503321604e-05
-0.4849051600009261,-0.4849051600009261,0.9999337624851542,9.838261569486873e-05
-0.4848305060804705,-0.4848305060804705,0.9999704244585473,9.677225215657062e-05
-0.48470610439690065,-0.48470610439690065,1.0000869339917586,0.00010316999937175434
-0.48450856430790734,-0.48450856430790734,1.000083044103134,9.846950876348816e-05
-0.4844355809756962,-0.4844355809756962,1.000049351928364,9.401383131032883e-05
-0.48435161450324815,-0.48435161450324815,1.0000385564861565,9.867273453590453e-05
-0.48419333516285407,-0.48419333516285407,1.0000340450316965,9.928688506573631e-05
-0.48411676007308413,-0.48411676007308413,0.9999580981224646,9.661808314451054e-05
-0.48399911954256825,-0.48399911954256825,0.999956545324198,9.34653037208763e-05
-0.48383842420589646,-0.48383842420589646,1.0000418947365333,9.640943155871184e-05
-0.4836445307504619,-0.4836445307504619,0.999839159096752,9.985966850953548e-05
-0.4834969783929409,-0.4834969783929409,1.0000015815789198,9.232952067118449e-05
-0.4833466322008462,-0.4833466322008462,1.0000102065525251,9.301090948794361e-05
-0.48323978404878287,-0.48323978404878287,0.9999449524985309,9.753880908508714e-05
-0.48313027761614646,-0.48313027761614646,1.0000475860255456,9.500302792232252e-05
-0.483037389247329,-0.483037389247329,0.9999892606942037,0.00010757579581578477
-0.48298065181297717,-0.48298065181297717,0.999777683146279,0.0001041580774265329
-0.48281667212722823,-0.48281667212722823,0.9999893113610734,9.923569343918859e-05
-0.4825701324916736,-0.4825701324916736,0.999811487670458,9.942994540324323e-05
-0.4824244401555916,-0.4824244401555916,1.0000481205900633,9.924893326463934e-05
-0.48229746143842933,-0.48229746143842933,0.9998593882070764,9.275325180783784e-05
-0.482209970884287,-0.482209970884287,0.9999905838949437,0.00010435343932168795
-0.4821558749696123,-0.4821558749696123,0.9999743967162174,9.378951956897163e-05
-0.48207956399419344,-0.48207956399419344,0.9999173225957797,9.229340713456312e-05
-0.48192566674697446,-0.48192566674697446,0.9999457082322294,9.627153033110131e-05
-0.48177298623340903,-0.48177298623340903,1.0000564038382564,9.924157906588112e-05
-0.48154417518526316,-0.48154417518526316,1.0000967238619374,9.435869490402977e-05
-0.48148699688827035,-0.48148699688827035,0.9999807722935268,9.442039323900063e-05
-0.4813908488868037,-0.4813908488868037,1.0001772069506227,9.926659959631717e-05
-0.48125117134986795,-0.48125117134986795,1.0000149760413106,0.00010437543844118234
-0.48115095308239686,-0.48115095308239686,1.0000849105749592,0.00010483845121734612
-0.4809936236633803,-0.4809936236633803,0.9999536170825667,0.00010058775626898865
-0.48089410923421383,-0.48089410923421383,0.999917675374193,9.430571992905317e-05
-0.48076431109584516,-0.48076431109584516,0.9998327496039195,9.606829450790148e-05
-0.4806495386568713,-0.4806495386568713,0.9997521521300351,0.0001009487738359876
-0.4805004022513458,-0.4805004022513458,1.0000048106590484,9.819921482627018e-05
-0.4803866121852479,-0.4803866121852479,1.0000809669152442,9.998279988782764e-05
-0.4803128013154492,-0.4803128013154492,0.9999190433781653,9.252268456186374e-05
-0.48025511727973935,-0.48025511727973935,1.000018645705854,9.557405132469326e-05
-0.480157161513489,-0.480157161513489,0.999903970876591,9.491019890743998e-05
-0.4800177602592157,-0.4800177602592157,0.9999333798146347,9.552378801635265e-05
-0.4798696659650886,-0.4798696659650886,1.0000159006965614,0.00010634160578875765
-0.4797278002726671,-0.4797278002726671,1.0000481243531416,9.577053440525059e-05
-0.47961733416595964,-0.47961733416595964,0.9999095533615611,0.00010162147567476746
-0.47951502351861564,-0.47951502351861564,1.000091743938793,9.694431610403264e-05
-0.4794205324920767,-0.4794205324920767,0.9999991719187993,0.00010299135703164808
-0.47926960711338323,-0.47926960711338323,0.999925936728637,0.00010123712460118777
-0.4791901481912646,-0.4791901481912646,0.999998346509301,9.823443277704935e-05
-0.47906996153178627,-0.47906996153178627,1.0000564342203677,9.747161583719381e-05
-0.47890200505135,-0.47890200505135,0.999756676203574,9.620315462788427e-05
-0.4787374156432634,-0.4787374156432634,0.9998041498947259,0.00010523797622884227
-0.47862393521063495,-0.47862393521063495,0.9999591137368423,0.00010036543010473944
-0.47857705249407445,-0.47857705249407445,0.9999932904624872,0.00010274762999263159
-0.47842968604163616,-0.47842968604163616,1.00003771723655,9.531520589520829e-05
-0.47832222855067813,-0.47832222855067813,1.0000453127312254,9.41646498688011e-05
-0.47818441810813966,-0.47818441810813966,0.9999898145812711,9.412548743285729e-05
-0.47797048692664246,-0.47797048692664246,1.0000525558070437,9.562747251221586e-05
-0.4778663033997873,-0.4778663033997873,0.9999694658268468,0.00010143418250716351
-0.4777982630650513,-0.4777982630650513,0.9999724461248993,9.710290572935283e-05
-0.4777110324583191,-0.4777110324583191,0.9999393815346693,9.310606755694681e-05
-0.4775871308236674,-0.4775871308236674,1.0000897460111933,9.348047171084788e-05
-0.47746051300273396,-0.47746051300273396,1.0000088711779858,9.352548309966426e-05
-0.47733511425321923,-0.47733511425321923,0.9999088078283007,0.00010352894242296512
-0.4772694783227053,-0.4772694783227053,1.0000941634626592,9.742785878259502e-05
-0.47714158691160263,-0.47714158691160263,1.0000162518408693,9.942624551235739e-05
-0.47703417431839623,-0.47703417431839623,1.0002400099335804,9.24296782671541e-05
-0.476913338835584,-0.476913338835584,0.9999497163689461,0.00010329945445881051
-0.4768368917364569,-0.4768368917364569,1.00016813791659,9.774215119142937e-05
-0.4767437766473449,-0.4767437766473449,0.9999801662209673,0.00010746326454880242
-0.47656410536001204,-0.47656410536001204,1.0000576918382644,9.442770443796603e-05
-0.4764787628693739,-0.4764787628693739,1.000012043239114,9.691189268440188e-05
-0.47640372751193355,-0.47640372751193355,1.000028887908649,9.652313087874279e-05
-0.4763169018857297,-0.4763169018857297,0.9999944012262745,9.58809225970886e-05
-0.4761887938264408,-0.4761887938264408,0.9999982770954838,9.10659079980839e-05
-0.47605989121002495,-0.47605989121002495,1.0001179204702881,9.841998699739384e-05
-0.4759357363625895,-0.4759357363625895,0.9999901714330088,9.340637039462172e-05
-0.4758019190674531,-0.4758019190674531,0.9999119375225834,9.287710930356018e-05
-0.47575131499179407,-0.47575131499179407,1.0002039262615976,9.796167205262211e-05
-0.4756838411471108,-0.4756838411471108,0.9999772563392808,9.601097284880527e-05
-0.4756202395088621,-0.4756202395088621,0.999977817529755,9.641197268246121e-05
-0.4755131290236022,-0.4755131290236022,1.0001791087103267,0.0001071879049669733
-0.475376455274818,-0.475376455274818,0.9999580498524667,0.0001118053120131355
-0.4753118304281088,-0.4753118304281088,1.0000879662069209,9.274284956990645e-05
-0.47512759488890877,-0.47512759488890877,0.9999826983581299,9.794272154199414e-05
-0.4749868116210564,-0.4749868116210564,0.9999701005063759,9.968545818312197e-05
-0.4748939456658263,-0.4748939456658263,0.9999940682065454,0.00010336081095163596
-0.4747724471410038,-0.4747724471410038,1.0001967628360748,9.464356060397738e-05
-0.4747181488426577,-0.4747181488426577,1.000086799681269,9.624522553080754e-05
-0.4746069597742462,-0.4746069597742462,1.0000413995345006,0.00010095476406449776
-0.4744975089452055,-0.4744975089452055,1.0000233937367815,0.00010014721853009775
-0.4742313086157083,-0.4742313086157083,1.0000449100124824,0.00010151029493093153
-0.47406800518147063,-0.47406800518147063,0.99998668534839,9.485384273504482e-05
-0.47400384040520294,-0.47400384040520294,0.9999470176988637,9.272991023420824e-05
-0.47392264300069653,-0.47392264300069653,1.0000807926063247,9.344652809805716e-05
-0.47378326578764246,-0.47378326578764246,1.0000552456488225,9.2389944127656e-05
-0.4736751243603067,-0.4736751243603067,1.000066370553904,9.945453986035754e-05
-0.473617132200161,-0.473617132200161,1.0001227168219171,0.00010370740076322304
-0.47353069925884483,-0.47353069925884483,0.9999911821406926,0.0001051161130935892
-0.47338719970503007,-0.47338719970503007,0.9998931534552382,9.476327928780428e-05
-0.4731688506610226,-0.4731688506610226,0.9998900565029102,9.177463669361976e-05
-0.47299388118699426,-0.47299388118699426,1.0000297412454229,0.00010650973562238337
-0.47286572069715477,-0.47286572069715477,0.9999692927174146,0.00010041318270924979
-0.47276901780278424,-0.47276901780278424,0.9999650507975991,9.633084018262112e-05
-0.47270381083508256,-0.47270381083508256,1.0000657804039201,9.9599975137269e-05
-0.4725828879447363,-0.4725828879447363,1.000033318673874,9.47439830194244e-05
-0.47247361670888494,-0.47247361670888494,0.9999204762428077,9.614609042998065e-05
-0.47231986342885646,-0.47231986342885646,0.9999734100312073,0.00010142793941700706
-0.4722210198888206,-0.4722210198888206,0.9999975025612644,9.549168348350117e-05
-0.472134199240827,-0.472134199240827,0.9999062644484648,9.402846379636702e-05
-0.4719654828295461,-0.4719654828295461,0.9999278289453798,9.857438427437578e-05
-0.47189324361388574,-0.47189324361388574,0.9999920822563675,0.00010601100179478275
-0.4718216314468009,-0.4718216314468009,1.000012509972304,0.00010397397906748042
-0.47169743286576704,-0.47169743286576704,0.9999320816274189,9.891907633968562e-05
-0.4716177733600489,-0.4716177733600489,1.0000296008570788,9.775576501598749e-05
-0.47153659761752353,-0.47153659761752353,0.99993331362511,0.00010005353609941433
