time,time,flux,flux_err
-0.4999242789162963,-0.4999242789162963,0.9999594182770911,0.00019300056115973606
-0.4998044362517248,-0.4998044362517248,0.9996410813672559,0.0001733931463490335
-0.49973099823400846,-0.49973099823400846,1.0002479937335669,0.0001639173995941959
-0.4996575745608425,-0.4996575745608425,1.0000255310028323,0.00017552665724935044
-0.49956689941245713,-0.49956689941245713,1.0000369395907833,0.0001769993563992957
-0.4994183168739255,-0.4994183168739255,0.9999154277133109,0.00017573095513156745
-0.49935617487208217,-0.49935617487208217,1.0000891316561382,0.00018027610072415985
-0.499190263604396,-0.499190263604396,1.000039480755737,0.00018672842911505652
-0.49901581364902087,-0.49901581364902087,0.9997000592204983,0.00017756099383883496
-0.49891554903952057,-0.49891554903952057,1.0000518410332355,0.00018568546228071202
-0.49884433003826417,-0.49884433003826417,0.9997209098631309,0.0001897384762550743
-0.49863324802863646,-0.49863324802863646,0.9999408077925205,0.00017366622313189463
-0.49853285194403724,-0.49853285194403724,0.9999339929489068,0.0001883065000559919
-0.49835724254880914,-0.49835724254880914,1.0000286626712933,0.00019182702967342267
-0.49817671033524674,-0.49817671033524674,0.9999893119200729,0.00018929721385166796
-0.49810493061377203,-0.49810493061377203,0.9998358596523316,0.000173244145902398
-0.49799782065165343,-0.49799782065165343,0.9999624690547317,0.00018195645496243198
-0.4978208327069297,-0.4978208327069297,0.9999595006730141,0.00017736313155761356
-0.4977134457934881,-0.4977134457934881,0.9999326682540024,0.00018008572212271925
-0.49760967630136294,-0.49760967630136294,0.9999290558443859,0.00019440016089995765
-0.49756150220055134,-0.49756150220055134,0.9998673890489442,0.00016907265211974596
-0.4975156420005078,-0.4975156420005078,1.000250609031204,0.00017264535207312315
-0.4974080390718882,-0.4974080390718882,1.000058322578397,0.0001710492446986293
-0.4972719234188844,-0.4972719234188844,1.0000995701129474,0.00017405661070737748
-0.4971154121521977,-0.4971154121521977,1.0000639129047668,0.00019217422670502493
-0.496894746934413,-0.496894746934413,0.99983882767005,0.0001749730703295672
-0.49678390490153107,-0.49678390490153107,1.000213502712791,0.0001807735695134253
-0.49669791021442505,-0.49669791021442505,1.0002420670413623,0.00017009003388029255
-0.4966110149580345,-0.4966110149580345,1.0001493755627497,0.00018749597457674163
-0.49644701902361704,-0.49644701902361704,0.9999001272539214,0.00017939157197788434
-0.49634852127855994,-0.49634852127855994,0.9998412183145072,0.00019107428934693238
-0.49625540401175383,-0.49625540401175383,1.0000345534618678,0.0001785862313583579
-0.49610391492606143,-0.49610391492606143,1.0000134127679443,0.00018827099227250837
-0.4959987815826025,-0.4959987815826025,0.9998068937830361,0.00017656595020792748
-0.4958574910524476,-0.4958574910524476,1.0000192359218072,0.00018447696082828704
-0.49573299095718537,-0.49573299095718537,1.000062732641176,0.00018628474662030504
-0.49558775810946826,-0.49558775810946826,1.0001603914354924,0.00017654634740788526
-0.49546356734645086,-0.49546356734645086,1.0000755533933565,0.00018388165808449878
-0.49540607179442303,-0.49540607179442303,1.0002469627096002,0.00017058007512204732
-0.49527185987099076,-0.49527185987099076,1.000043368636265,0.0001751664084713388
-0.495136345429637,-0.495136345429637,1.0000640715933655,0.00017420136048421807
-0.49500394910646717,-0.49500394910646717,0.9999243012874451,0.00018754678836069308
-0.4949110792367719,-0.4949110792367719,1.000029164086818,0.00017810752622581105
-0.4947846061477321,-0.4947846061477321,0.9998063736609201,0.0001985553710106112
-0.4946289103689196,-0.4946289103689196,1.0001304829237454,0.000168806547411255
-0.49453186659884524,-0.49453186659884524,1.0003251199300651,0.00017407056052170223
-0.4944207178596116,-0.4944207178596116,1.000216474893235,0.00017649993723597567
-0.4943069587345235,-0.4943069587345235,1.0000896513216655,0.00018803817053619342
-0.49419664571469185,-0.49419664571469185,0.9998706137952078,0.00018944017388846038
-0.4941127192134445,-0.4941127192134445,1.0001332827259906,0.00018538219726911868
-0.49404030499354123,-0.49404030499354123,1.0001571963089602,0.00017975724836627986
-0.49396112121394253,-0.49396112121394253,0.9999145737654935,0.00017023397246162774
-0.49391676082304914,-0.49391676082304914,0.9998675023156267,0.00018402811725359727
-0.49382093949971023,-0.49382093949971023,1.0001636134033938,0.0001747597452882197
-0.4937220475760114,-0.4937220475760114,0.999855818959397,0.00017537104606304602
-0.49364135567084305,-0.49364135567084305,1.0001159460103086,0.00017493636281677222
-0.4934931080926617,-0.4934931080926617,1.000039037178287,0.00018520725636377507
-0.49337766633689173,-0.49337766633689173,1.00005104961452,0.00017553988197825985
-0.4932948812849645,-0.4932948812849645,1.0001183936487859,0.00016799230373938903
-0.4932126021005388,-0.4932126021005388,0.9999450528377146,0.00018836279244789043
-0.4931006102153333,-0.4931006102153333,1.0001359432910177,0.00017108575608633028
-0.49301660775745404,-0.49301660775745404,1.000081314390055,0.0001748631069553393
-0.49287891472195045,-0.49287891472195045,1.0000553347530892,0.00017159799346267167
-0.49274725496725297,-0.49274725496725297,0.9997158133473316,0.00017268135834701438
-0.49264924397793947,-0.49264924397793947,0.999913261821655,0.00018314818655125754
-0.4925362187270366,-0.4925362187270366,1.0001292870518872,0.00017507093992368068
-0.4924076380608312,-0.4924076380608312,0.999809880578046,0.0001860915433768739
-0.49231083062622927,-0.49231083062622927,0.9999111764498114,0.0001723424319720232
-0.49225155071399057,-0.49225155071399057,0.9997541235916861,0.00017614652892646718
-0.4921754848357523,-0.4921754848357523,1.0001858162612187,0.0001885584212979401
-0.4920477599996957,-0.4920477599996957,1.0002118114411216,0.00017629575370535524
-0.49194814987276914,-0.49194814987276914,1.0000525185854359,0.0001757553905777846
-0.49187822425446937,-0.49187822425446937,0.9998721323207004,0.00018812171146935709
-0.49182899246152373,-0.49182899246152373,1.0001011594388458,0.00017185083187146074
-0.49168601733399553,-0.49168601733399553,0.9999669779119396,0.00018619749280942422
-0.49161171232844936,-0.49161171232844936,0.9999620414657435,0.00018875283628515298
-0.4914937640984135,-0.4914937640984135,1.0001679882639005,0.000180680437173888
-0.491313280108443,-0.491313280108443,0.9998583051607206,0.00017564037327159846
-0.49116737398071564,-0.49116737398071564,1.0000513528898518,0.00017244694900399546
-0.49105561560572825,-0.49105561560572825,0.9995889676109583,0.00020542631860011136
-0.4909382635662041,-0.4909382635662041,0.9998452014612852,0.0001701286190418331
-0.49078180169090047,-0.49078180169090047,0.9999003023701875,0.0001782226653505334
-0.4906492073918344,-0.4906492073918344,1.0002984235487298,0.00017008906763518926
-0.4905361409466423,-0.4905361409466423,0.9999591307368879,0.0001744273373817995
-0.49028751433361323,-0.49028751433361323,1.0001292074397519,0.00017394155552739646
-0.49016888458500035,-0.49016888458500035,1.000167782411565,0.00018379565238174238
-0.49008737854019274,-0.49008737854019274,1.0000240201805137,0.00016694470343127542
-0.489949909778079,-0.489949909778079,0.9999372334765801,0.00019057913225568732
-0.48983724527060984,-0.48983724527060984,1.0001888516530886,0.00018220704717983018
-0.489729579451523,-0.489729579451523,1.0001311277279068,0.00017163922426934687
-0.4895483407715801,-0.4895483407715801,1.0000223656222764,0.00020352516486119354
-0.4894101076788502,-0.4894101076788502,0.9997597887163121,0.000169896112214867
-0.48931714109130553,-0.48931714109130553,1.0000669311276937,0.00020407937959588036
-0.48921554422486224,-0.48921554422486224,0.9997580614681609,0.0001790468593818851
-0.4890001310326625,-0.4890001310326625,1.0001359313622782,0.00017416548439290306
-0.4887409517265041,-0.4887409517265041,0.9999244249358809,0.00017222867360034403
-0.48857015297689943,-0.48857015297689943,1.0000124619173925,0.0001705052853139178
-0.488366114578821,-0.488366114578821,1.000325159722611,0.00018306276811625618
-0.4881774056892027,-0.4881774056892027,0.9999485756680562,0.00017344577248132022
-0.4879947652996634,-0.4879947652996634,1.0002528611603598,0.0001878472268621704
-0.48788175648151083,-0.48788175648151083,1.0000092630723725,0.00018109052853548254
-0.4877723949641222,-0.4877723949641222,0.9997213657656049,0.00017864913870101708
-0.4876891331201477,-0.4876891331201477,1.0003298490292167,0.0001722766429951194
-0.4875597830498009,-0.4875597830498009,0.9998672627544863,0.00017274375172047005
-0.4874704918394855,-0.4874704918394855,0.9999519676966431,0.00017686602460692294
-0.4872954445330834,-0.4872954445330834,1.000085982835683,0.00020078049213631573
-0.48716971005269444,-0.48716971005269444,1.000122510401598,0.00018842355492419328
-0.48710903113969833,-0.48710903113969833,1.0000704141628263,0.00018767700611798142
-0.48691698086695395,-0.48691698086695395,1.0002122666151314,0.00017293118070762297
-0.4867584161489503,-0.4867584161489503,1.000299234163947,0.0001863503053637702
-0.48660336898901735,-0.48660336898901735,1.0002971286637263,0.0001813121192064646
-0.4864899345273443,-0.4864899345273443,1.0002412118078616,0.00018571914152216127
-0.48638091204775263,-0.48638091204775263,1.0001536478243982,0.0001703413615364049
-0.4862470831430983,-0.4862470831430983,1.0000926394414393,0.00017148080465627938
-0.48612851506841254,-0.48612851506841254,1.0002763014192335,0.00017483001492194842
-0.4858793895757117,-0.4858793895757117,1.0003069677356482,0.00017048990455326922
-0.4857163471489912,-0.4857163471489912,0.9998916347995175,0.00019061689594295446
-0.48561892844518295,-0.48561892844518295,0.9999989940160022,0.00017021839735586555
-0.48553742175063236,-0.48553742175063236,1.0001648202152218,0.00019215276137518237
-0.4853949832431681,-0.4853949832431681,1.0003724434531585,0.00017495775691775073
-0.4852389764273539,-0.4852389764273539,0.9999694068518549,0.0001734607510849079
-0.48510164441831877,-0.48510164441831877,1.0000424060997322,0.00018707993831152325
-0.48499286804144504,-0.48499286804144504,1.0000937667844356,0.0001767059544522706
-0.48493846397759627,-0.48493846397759627,0.9999792609231812,0.00019890838387304964
-0.48478000416362194,-0.48478000416362194,1.0001637583763845,0.00018125916358226147
-0.4845995579955343,-0.4845995579955343,0.9997499825842961,0.00017468983723804369
-0.484393916780391,-0.484393916780391,1.0001157739300197,0.0001756692692933402
-0.4843248315555684,-0.4843248315555684,1.000279551903219,0.00017119318593949371
-0.4842304209822032,-0.4842304209822032,1.0001485002703103,0.00016645196872707815
-0.48415818257126375,-0.48415818257126375,0.9997055428299149,0.00017297730459758044
-0.48404467641521476,-0.48404467641521476,0.999849216192384,0.000181518304655109
-0.4838917462620884,-0.4838917462620884,0.9998336435033647,0.0001763091464360577
-0.4837146151403431,-0.4837146151403431,0.9997723065768257,0.0001809956548261032
-0.48353490995359605,-0.48353490995359605,0.9998868849489082,0.0001858823267194789
-0.48342908826089115,-0.48342908826089115,1.0002252008170953,0.00019270175900007984
-0.48326018765292245,-0.48326018765292245,1.0001355074272207,0.0001746853232968922
-0.48308961944640033,-0.48308961944640033,0.9999557773416459,0.00019023816503379955
-0.48295129739053666,-0.48295129739053666,1.0000431697805428,0.00020078211016379791
-0.4827518296609924,-0.4827518296609924,1.0000329719931196,0.00019979884514498915
-0.4826435215167294,-0.4826435215167294,0.9997891494610253,0.00018798570082007173
-0.4825318659946788,-0.4825318659946788,1.0000087880262658,0.00017229586853031577
-0.4823144482921634,-0.4823144482921634,0.9996389098304597,0.0001790276304763293
-0.48220359799524887,-0.48220359799524887,0.9999690302374573,0.00017352756907654802
-0.48211857520291235,-0.48211857520291235,1.000102310767843,0.0001711712832347006
-0.48204431267731707,-0.48204431267731707,0.9997229069395577,0.00016952195319780897
-0.4819745838038216,-0.4819745838038216,1.0001423839561756,0.00017097353897287327
-0.4818695823705639,-0.4818695823705639,1.000189741937165,0.00017365618152976537
-0.4817509478787542,-0.4817509478787542,1.0001229802369052,0.0001747295094030737
-0.48153654425186687,-0.48153654425186687,0.9996963344496107,0.0001726580432487299
-0.48141196914511963,-0.48141196914511963,0.9999824413065243,0.00017410958022489716
-0.481304398903012,-0.481304398903012,1.0001424221313289,0.0001747159381853384
-0.48121083176520185,-0.48121083176520185,0.9999261323092341,0.00018186388891702022
-0.4810226775472984,-0.4810226775472984,1.0002194756762857,0.0001866644548530613
-0.48089043378276985,-0.48089043378276985,1.000010304953463,0.0001910240179159249
-0.48076678218203595,-0.48076678218203595,0.9998380892996309,0.0001801394388318374
-0.4806190114773926,-0.4806190114773926,0.9999831045197315,0.0001878925722923839
-0.48050684718837144,-0.48050684718837144,0.9999446720199732,0.00018908489981696986
-0.48037208016248767,-0.48037208016248767,1.0000722284848618,0.00018316170067506817
-0.480247059091198,-0.480247059091198,0.9997463270135969,0.00017327131927932034
-0.48010895342813453,-0.48010895342813453,1.0001206621366945,0.0001766175958611465
-0.4799999124224996,-0.4799999124224996,0.9998730351519377,0.00017081361843466165
-0.4799331099049596,-0.4799331099049596,1.000028125540799,0.00017505109835059732
-0.47979390042310116,-0.47979390042310116,1.000201965503045,0.0001756615834426786
-0.4796437519515166,-0.4796437519515166,1.000008964359566,0.00017297820784367628
-0.47948879699761165,-0.47948879699761165,0.9999134720174758,0.00018329364094828436
-0.4793199920975894,-0.4793199920975894,0.9999001192395369,0.00018466836414017366
-0.47912034776600193,-0.47912034776600193,0.9999301260662385,0.0001742932276829184
-0.47902457820091515,-0.47902457820091515,0.9999749171210336,0.00017313188976880362
-0.4789041988718964,-0.4789041988718964,1.000117179500468,0.00018512872308977063
-0.47883461718738546,-0.47883461718738546,0.9999465328518214,0.00017611365038878353
-0.4787107077027031,-0.4787107077027031,1.000034952648023,0.00017752481804351642
-0.47864526696212123,-0.47864526696212123,1.0000894527699784,0.00018614770796829098
-0.47853235990478427,-0.47853235990478427,1.0000434157213913,0.00019509572907980673
-0.4784726726822555,-0.4784726726822555,0.9999927674980296,0.00018376389663391044
-0.47841390266257805,-0.47841390266257805,1.0002441612034796,0.00018679093177001313
-0.4783153365358885,-0.4783153365358885,0.9999499099904796,0.00017601038190327283
-0.4782143736803846,-0.4782143736803846,0.9997282037337684,0.00016976549830876174
-0.4780933101988921,-0.4780933101988921,0.999824251343721,0.00018590346651817962
-0.4780002965322637,-0.4780002965322637,1.0004183238667599,0.00017071213275976865
-0.477852584917855,-0.477852584917855,0.9998016762574574,0.0001720627389237056
-0.47776904660859143,-0.47776904660859143,0.9998791441506503,0.00017210698755235009
-0.4776482737790502,-0.4776482737790502,1.0000125499068,0.0001697040988090311
-0.4775343061213789,-0.4775343061213789,1.0000446242935146,0.0001713002415691033
-0.47738790333824,-0.47738790333824,0.999805534971318,0.0001932072857342478
-0.4772557078147656,-0.4772557078147656,0.9999381842334552,0.00017226810935972814
-0.47709336002371855,-0.47709336002371855,0.9998235084466163,0.0001798513053116482
-0.47697007691458565,-0.47697007691458565,1.0000987527872038,0.00019167634548177882
-0.4768959547014674,-0.4768959547014674,1.0003580510180647,0.0001767879837341499
-0.4768078157881973,-0.4768078157881973,0.9998225870658451,0.00017496505851911904
-0.47674189044118975,-0.47674189044118975,0.9999588607348576,0.00017424299553797776
-0.4766606217963272,-0.4766606217963272,0.999893469208428,0.00019168128698482043
-0.47653648952182265,-0.47653648952182265,0.9999067852242389,0.00017116877621219673
-0.4764380118336703,-0.4764380118336703,0.9998912448360328,0.00019074390685824128
-0.47635261467366946,-0.47635261467366946,0.9998557955949444,0.0001768193695645944
-0.4762741919417749,-0.4762741919417749,1.0000454779265142,0.00018168819747270832
-0.47614658113307085,-0.47614658113307085,0.9997439694311991,0.00019241140016733124
-0.4760184771512286,-0.4760184771512286,1.0001790983898657,0.00016839727637985163
-0.47584751213144044,-0.47584751213144044,1.0000863072230028,0.00017460799875139435
-0.47572221284135596,-0.47572221284135596,1.0001904237674017,0.00017329645347688552
-0.4756314670339634,-0.4756314670339634,0.9998670502242983,0.00020528920711866891
-0.47555591266427655,-0.47555591266427655,1.0000068584215704,0.0001703403292166393
-0.4754412859918375,-0.4754412859918375,1.000024603064323,0.00017086661821882033
-0.4753470472533081,-0.4753470472533081,1.0000440482267834,0.0001758219057417047
-0.4752570065225882,-0.4752570065225882,0.9997816176862011,0.0001733301763718351
-0.47513952285589767,-0.47513952285589767,0.9996455298937944,0.00016686198274802527
-0.47501328872676823,-0.47501328872676823,1.0001071578117053,0.00018548084556631412
-0.4747600220165623,-0.4747600220165623,1.0000886669065734,0.00018446180311408247
-0.4746599389698531,-0.4746599389698531,0.9999891219755235,0.00017099106632877912
-0.47459594534957433,-0.47459594534957433,0.9997694675648766,0.0001704270519681808
-0.47445611213624944,-0.47445611213624944,1.0003097467395752,0.00018401302949504016
-0.4743687210466305,-0.4743687210466305,0.9999535645528527,0.00018135840706889802
-0.4742924045152904,-0.4742924045152904,0.9997900606211682,0.000173923667405877
-0.4741949477509479,-0.4741949477509479,0.9999692561801983,0.0001894758329516098
-0.47401457288942767,-0.47401457288942767,0.999802989100487,0.00018440352106014412
-0.4739178546820767,-0.4739178546820767,1.000146565996526,0.00018503628758454564
-0.4737553069295245,-0.4737553069295245,1.0000560081513445,0.00017994886193146298
-0.4736357040965231,-0.4736357040965231,1.0002231697218442,0.00017570205319910066
-0.47338828332867705,-0.47338828332867705,0.9999281806003953,0.00017344751238474216
-0.47324422015517487,-0.47324422015517487,1.0001787371960806,0.00017138600266648367
-0.47315446934735517,-0.47315446934735517,0.9999389282586254,0.00017463370208861993
-0.4730326014221646,-0.4730326014221646,1.000092114931256,0.00017302445845008419
-0.4728644815826556,-0.4728644815826556,0.9999421890095197,0.0001742609879367388
-0.4726368963601999,-0.4726368963601999,0.9998668236362308,0.0001859267609744592
-0.47249652640748535,-0.47249652640748535,0.999760542417407,0.0001905802378597547
-0.47233879251652977,-0.47233879251652977,0.9997626253416494,0.00017890991002241554
-0.47224674876997597,-0.47224674876997597,0.9999803363167834,0.00017351509549661312
-0.4721330215354101,-0.4721330215354101,0.9998459856744834,0.00017754526849277576
-0.4719686718308367,-0.4719686718308367,0.999612761626292,0.0001909156974583981
-0.4717455762314785,-0.4717455762314785,1.0001420378398997,0.0001984249976106799
-0.4716643025567464,-0.4716643025567464,0.999917898705984,0.0001899853652728265
-0.4716019595434773,-0.4716019595434773,0.9997222930669422,0.00017664836088861807
-0.4714408909276244,-0.4714408909276244,1.0001073134569793,0.00016712939123821562
-0.47125890386596436,-0.47125890386596436,1.0000244869062331,0.00018554894397188181
-0.4709975533318357,-0.4709975533318357,1.0000417030722821,0.0001708040197180354
-0.47083160137335656,-0.47083160137335656,0.9998926853398384,0.0001770290010726203
-0.47060275836047366,-0.47060275836047366,1.000080314977077,0.000173316305484676
-0.4704116352077108,-0.4704116352077108,1.000154453489122,0.00017202463806604616
-0.470247123453737,-0.470247123453737,0.999891889625568,0.00019091923631043797
-0.47014067127965975,-0.47014067127965975,1.0001522762402897,0.00017085088282178693
-0.47004835030893444,-0.47004835030893444,1.000179906565752,0.00017444963040899264
-0.4698719151223486,-0.4698719151223486,0.9998954295756922,0.00017581981459281328
-0.4697125358368794,-0.4697125358368794,1.000096694096727,0.00019046117922447858
