time,time,flux,flux_err
-0.49982281420370783,-0.49982281420370783,0.9999511228893532,0.0003638762226684971
-0.49938446156224925,-0.49938446156224925,1.0002292508426842,0.0003530733858231513
-0.4989996396558126,-0.4989996396558126,0.9992635983723781,0.00036471012040363104
-0.4987568682351139,-0.4987568682351139,1.0002578469210288,0.00036025507694400393
-0.49847665268853236,-0.49847665268853236,0.9993391081396321,0.0003588143310206423
-0.49791049339087295,-0.49791049339087295,0.9999350839823583,0.00036446606635490885
-0.49721451643858927,-0.49721451643858927,0.9997164407484345,0.0003762251648159635
-0.49640289044073144,-0.49640289044073144,0.9996626890384391,0.00036110349285723407
-0.49566631776574466,-0.49566631776574466,1.0003555185240267,0.00037552459321959933
-0.4951353205006853,-0.4951353205006853,1.0013264471995784,0.00036371298931454937
-0.49454572217446185,-0.49454572217446185,1.0007210492963208,0.0003679874249753729
-0.4943026891921818,-0.4943026891921818,1.000059776745639,0.0003562790079217945
-0.49394662255808724,-0.49394662255808724,0.9994381268117092,0.00036287154973959224
-0.4933275756297462,-0.4933275756297462,0.9991395164417838,0.0003594327651581576
-0.4926660224621628,-0.4926660224621628,1.00002692004162,0.0003587468188494537
-0.49157324929792595,-0.49157324929792595,1.0011754034303224,0.0003815885416169775
-0.49108856981974897,-0.49108856981974897,0.9999490772122656,0.00036388604638182975
-0.4906501042106811,-0.4906501042106811,1.0002557893227866,0.00035317828729233825
-0.49026534106037617,-0.49026534106037617,1.0001438349086207,0.0003645015511593734
-0.49002256482249323,-0.49002256482249323,1.0000467327331504,0.0003601485708195906
-0.4897423061004247,-0.4897423061004247,1.0006328289156357,0.0003590690494326769
-0.4890956230432494,-0.4890956230432494,1.0003304839488383,0.00037007248870620516
-0.48834675048587994,-0.48834675048587994,1.0000227743686694,0.00036973891089082733
-0.4874592453233163,-0.4874592453233163,0.9999876157726353,0.0003647612071440929
-0.4868781902716364,-0.4868781902716364,1.0000974567225325,0.000377260026832437
-0.48622914884022067,-0.48622914884022067,1.0005567874380354,0.00036115881654710693
-0.48577729163703226,-0.48577729163703226,0.9998165762634598,0.00037030027550899144
-0.4855079379805375,-0.4855079379805375,1.0002446489209864,0.00035393488716122483
-0.48508778158643506,-0.48508778158643506,1.0004348264966885,0.00036270016053317435
-0.48442818930648174,-0.48442818930648174,1.000048801425952,0.00036537138934699634
-0.48356652540787765,-0.48356652540787765,1.0002676707606082,0.0003729388713325289
-0.4826886974883564,-0.4826886974883564,1.0006166903840323,0.0003640032289014268
-0.48227668726203776,-0.48227668726203776,0.9997995435384255,0.0003587182094985248
-0.48186509921006293,-0.48186509921006293,0.9999390180481897,0.00035247699964318014
-0.4815310425759435,-0.4815310425759435,0.9993834738303257,0.0003644150116871018
-0.4812882615090075,-0.4812882615090075,1.0001114159931046,0.0003601763092310879
-0.4810079595822117,-0.4810079595822117,0.9997807875814673,0.0003590052273906336
-0.4803613617174506,-0.4803613617174506,1.0000674017491888,0.00037000536381430585
-0.47961231953559036,-0.47961231953559036,1.000879793988283,0.0003685320208718634
-0.47872499218324266,-0.47872499218324266,0.9997652205904238,0.000364852578325303
-0.47814393159114843,-0.47814393159114843,1.000218135163044,0.0003771110162639269
-0.4774948719301847,-0.4774948719301847,1.0002808968952919,0.00036129781111058593
-0.4770430084615782,-0.4770430084615782,0.9997435160514744,0.00037027273996869027
-0.4767735934345637,-0.4767735934345637,1.000154567893909,0.0003539955923526198
-0.4763534592738779,-0.4763534592738779,1.0005038875450964,0.0003627688581166015
-0.4756939392314507,-0.4756939392314507,0.9997141448740751,0.000365269872159939
-0.47483219025534706,-0.47483219025534706,1.000099068963868,0.0003727622964555092
-0.4739544417672278,-0.4739544417672278,0.999474725036929,0.00036397101119337315
-0.4735423691780397,-0.4735423691780397,1.000392165700881,0.0003585831258067423
-0.4730999643365976,-0.4730999643365976,0.9999528340930389,0.00035783778884738976
-0.4727327883930229,-0.4727327883930229,0.9998087455264715,0.00036273319057682766
-0.47251718911270474,-0.47251718911270474,0.9996218422259986,0.0003618183916994442
-0.47219808774007105,-0.47219808774007105,1.0002852929354704,0.00036244646817608437
-0.4714328035332073,-0.4714328035332073,1.00012028043647,0.0003617468482186966
-0.4707465470436546,-0.4707465470436546,1.000600276126843,0.00037290242327502944
-0.46980676732714527,-0.46980676732714527,0.9997805184203579,0.0003778122006658672
-0.46930403144424415,-0.46930403144424415,0.9988779196722785,0.00036161505353900117
-0.46864844381002513,-0.46864844381002513,0.9998351717558688,0.00036377348075603786
-0.4682649297137232,-0.4682649297137232,0.9997607845574062,0.000364358364772958
-0.46803924896466925,-0.46803924896466925,1.000015608554226,0.0003538766099714291
-0.4676191370081142,-0.4676191370081142,0.9999212297742378,0.00036275040399819135
-0.4669596892334084,-0.4669596892334084,0.9993910403793949,0.0003653434699760518
-0.46609785513755925,-0.46609785513755925,0.9995477270489677,0.00037260144875710864
-0.46522018612158716,-0.46522018612158716,0.9996991573060428,0.0003639418086851268
-0.4648080511526132,-0.4648080511526132,0.9996508630398093,0.0003587345517029854
-0.4643656308830941,-0.4643656308830941,0.9996675296263653,0.00035775455557744045
-0.4639985140216595,-0.4639985140216595,0.9997721039108957,0.0003625345244937056
-0.463782874923254,-0.463782874923254,1.00048194513002,0.0003616339837244194
-0.4634637540247695,-0.4634637540247695,0.9995931272653072,0.00036252907532910526
-0.462698512142515,-0.462698512142515,1.0004089083887449,0.0003617054711702983
-0.462012160688937,-0.462012160688937,1.0006590450923352,0.00037195682281377507
-0.4610724996033696,-0.4610724996033696,1.0006004664734995,0.00037779082293938425
-0.46056977549365,-0.46056977549365,0.9998424074089304,0.0003614013353956993
-0.45991416648366795,-0.45991416648366795,0.9995737276003119,0.00036391993247326715
-0.45953061962445646,-0.45953061962445646,0.9997076261354954,0.0003645325328741307
-0.4593049045884072,-0.4593049045884072,0.9999900501726143,0.0003539137462227255
-0.45888481481833876,-0.45888481481833876,0.999565008978814,0.0003628324862587257
-0.45817828923077286,-0.45817828923077286,1.0002393789836483,0.0003598999048465001
-0.4571359312296863,-0.4571359312296863,1.0003452035321865,0.0003778123222542244
-0.45638505768638427,-0.45638505768638427,1.0002710695528063,0.0003580247752142734
-0.45598508940961435,-0.45598508940961435,1.0000212767565646,0.0003621353877881637
-0.4555545944092046,-0.4555545944092046,1.0008401622979073,0.0003577341022879304
-0.4552069279276111,-0.4552069279276111,1.0003499516015562,0.00036666528441405704
-0.45500033785701816,-0.45500033785701816,0.9998083027012779,0.0003539942575806157
-0.45461725694754024,-0.45461725694754024,1.0004042301284357,0.00036585398220459464
-0.453806666473929,-0.453806666473929,0.9997386624722318,0.00036173006362166143
-0.45313445027773014,-0.45313445027773014,0.999382794763477,0.0003678689664616393
-0.45216837159896384,-0.45216837159896384,0.9995889572816136,0.0003773903882099094
-0.4517342615571124,-0.4517342615571124,0.9989042502070562,0.00036693931091399685
-0.45105567793702905,-0.45105567793702905,1.0006746746664494,0.00036146148382916606
-0.4507838374570383,-0.4507838374570383,0.9992463546766089,0.00036669399757494677
-0.45057056028854275,-0.45057056028854275,1.0003930682754292,0.000353923805790537
-0.45015049267017276,-0.45015049267017276,1.0004971311052453,0.0003626376816031605
-0.4494439896272979,-0.4494439896272979,1.0007970498208834,0.00035995762506365247
-0.4484016389636508,-0.4484016389636508,0.9995779735570034,0.0003776199691064564
-0.4476507428601508,-0.4476507428601508,1.0001637300251214,0.0003581214326440549
-0.4472508220771033,-0.4472508220771033,1.000372906660878,0.0003622061357599659
-0.4468202445973475,-0.4468202445973475,0.9998016437211132,0.0003577003671155879
-0.4464726772717313,-0.4464726772717313,1.0002881481925352,0.00036676201328603836
-0.44626597303226845,-0.44626597303226845,0.9998457208580733,0.0003539926540090016
-0.44588293870183404,-0.44588293870183404,1.0003079039754348,0.0003657511843400092
-0.44507237408188305,-0.44507237408188305,1.0001094272874171,0.00036185585814501323
-0.44440005660567294,-0.44440005660567294,1.0001211778295467,0.0003673264482071553
-0.4434340890810745,-0.4434340890810745,1.0000383738494916,0.00037722383781220177
-0.4430000597425078,-0.4430000597425078,1.0003350173272587,0.00036715915729700413
-0.4423213897933692,-0.4423213897933692,1.000488891663739,0.0003615779603475028
-0.44203277693318344,-0.44203277693318344,0.999755570356682,0.00036440710758070397
-0.4417751041303745,-0.4417751041303745,0.999863428654496,0.000356058646956057
-0.4412786767938087,-0.4412786767938087,0.9995598789053144,0.0003601474598566381
-0.4405038777339996,-0.4405038777339996,0.9996635958219653,0.00035631823432152074
-0.4395089031340376,-0.4395089031340376,1.0001168464991612,0.0003829051263325716
-0.43883970630145086,-0.43883970630145086,0.9998903426286574,0.00035579181404991005
-0.43842269553074403,-0.43842269553074403,1.000713159667694,0.00036440911722412803
-0.4379900194498987,-0.4379900194498987,0.9993085803838898,0.00035508214997096647
-0.43770047114248883,-0.43770047114248883,1.0000927312970485,0.0003688773070936119
-0.4374715781939358,-0.4374715781939358,0.9993589518238062,0.0003520529339514794
-0.43711447457508257,-0.43711447457508257,0.9995052337409567,0.0003677240148364938
-0.4363380817716006,-0.4363380817716006,1.0000351698198404,0.00036178820551188067
-0.4356656629225199,-0.4356656629225199,0.9997318673504794,0.0003665050516428129
-0.4346998065981552,-0.4346998065981552,0.9997732667183781,0.000376906764625604
-0.4342658580159423,-0.4342658580159423,1.001272883116845,0.00036712703090204646
-0.43358710174925363,-0.43358710174925363,1.0021898330923356,0.0003616656544193159
-0.4332984704925821,-0.4332984704925821,1.0003426440283931,0.00036444469207846085
-0.43304077222851445,-0.43304077222851445,0.9998465269855272,0.00035591116258870486
-0.4325443229954544,-0.4325443229954544,0.9998040417192625,0.00036027807418250444
-0.4317695493537485,-0.4317695493537485,1.0009062664887203,0.000356555690779443
-0.43077467543748754,-0.43077467543748754,1.0001040266913335,0.0003827624493163685
-0.43010536929996307,-0.43010536929996307,1.0003523033249035,0.0003559360207389374
-0.4296884435778793,-0.4296884435778793,0.9993212093289936,0.0003643617058351747
-0.4292556559512832,-0.4292556559512832,1.0003230101196814,0.0003551464312841005
-0.42896623057154104,-0.42896623057154104,1.000431687856408,0.0003689485861783503
-0.4287371973746758,-0.4287371973746758,1.0003017806221428,0.00035209204069965434
-0.42838018854349685,-0.42838018854349685,0.9998792129995344,0.00036778200752649205
-0.4276037895020181,-0.4276037895020181,0.9998619765927785,0.0003618337675169352
-0.42693126919784846,-0.42693126919784846,1.000673212776691,0.0003660123460468781
-0.42596552412696836,-0.42596552412696836,1.000300149591069,0.00037680609713060194
-0.42553165637127677,-0.42553165637127677,1.000961617663328,0.0003670283754632847
-0.4248528138166421,-0.4248528138166421,1.0001452223640732,0.00036142240238342717
-0.424564164127969,-0.424564164127969,1.001058504726307,0.00036431237830734556
-0.42430644039736765,-0.42430644039736765,0.9999769457470018,0.00035595869688879035
-0.42380996924389364,-0.42380996924389364,0.9993083083475712,0.00036006091683230565
-0.42303522105639785,-0.42303522105639785,1.0003547971407656,0.00035642993774987744
-0.4220404478169712,-0.4220404478169712,1.0000319419929937,0.0003824741726492079
-0.42137103239256246,-0.42137103239256246,1.0001796949282808,0.0003560071115430466
-0.4209541917130082,-0.4209541917130082,0.9998357085220618,0.00036433854249318673
-0.42052129255171167,-0.42052129255171167,1.000111600376815,0.000355290844422531
-0.4202319900593011,-0.4202319900593011,0.9996253454268571,0.0003688459335027538
-0.4200028166374068,-0.4200028166374068,1.0006949192538197,0.0003520776413601882
-0.41964590254715406,-0.41964590254715406,0.9999223145036241,0.00036758081394092383
-0.4188694972855501,-0.4188694972855501,0.9992105987017166,0.0003617635337923055
-0.41812129885879584,-0.41812129885879584,0.99983617083554,0.0003712837804761811
-0.41713187061027385,-0.41713187061027385,1.0001785535168557,0.0003761976933128842
-0.4166746848526145,-0.4166746848526145,1.0004743459189638,0.00036686488696053643
-0.4160173129991563,-0.4160173129991563,0.9996972512210315,0.00036727688588652856
-0.4157872709313324,-0.4157872709313324,1.000148947954226,0.00035243064221159254
-0.41551602720528535,-0.41551602720528535,1.0001631438354244,0.0003594950454550403
-0.41493228344493216,-0.41493228344493216,0.9998252884725927,0.0003604283077411946
-0.41408647921398367,-0.41408647921398367,0.9997508396970257,0.00035317463810880054
-0.4131379809257396,-0.4131379809257396,0.9998115017307377,0.0003819386812302705
-0.41257765014602227,-0.41257765014602227,0.9992487380336621,0.00036154549122961526
-0.4120484269586996,-0.4120484269586996,0.9998822548407968,0.0003580855820317141
-0.41165665750027075,-0.41165665750027075,0.9997346886203047,0.0003640048078436276
-0.41144653429896605,-0.41144653429896605,1.0003825897303318,0.00036068457971246445
-0.41120950970434933,-0.41120950970434933,1.000008032512588,0.0003557770695119552
-0.4107866042994829,-0.4107866042994829,0.9996367314929853,0.0003675723192351593
-0.40998948956294046,-0.40998948956294046,1.0008700907296695,0.00035877475004517367
-0.4091644536277272,-0.4091644536277272,0.9999022958320672,0.0003758799906427183
-0.4083233626915444,-0.4083233626915444,1.00121891398843,0.000373662674874256
-0.40790622587214787,-0.40790622587214787,1.0000145124272781,0.00036377994038588565
-0.4072830262687148,-0.4072830262687148,0.9989758328830816,0.0003671841413597025
-0.4070529129470287,-0.4070529129470287,0.9998147666781552,0.0003523960484736679
-0.4067817205544088,-0.4067817205544088,1.000101299259929,0.0003594556072747273
-0.40619795449683804,-0.40619795449683804,1.0007147008386637,0.0003601883598621995
-0.4053521086510955,-0.4053521086510955,0.9998067318598837,0.0003530088189625534
-0.40440373877418095,-0.40440373877418095,0.9994230249545921,0.00038170688707109534
-0.40384339158349575,-0.40384339158349575,1.000269318607715,0.0003615503907037357
-0.40331412629093394,-0.40331412629093394,1.0002165326828487,0.0003580581080807944
-0.4029223597360215,-0.4029223597360215,1.0004913750499809,0.00036419337926721845
-0.4026795344685524,-0.4026795344685524,1.0000880463797905,0.0003600860339559637
-0.40240013173579425,-0.40240013173579425,1.0000619547219785,0.00036137013308926787
-0.40195037922899246,-0.40195037922899246,0.999952790047602,0.0003623535194224218
-0.4012551911009723,-0.4012551911009723,1.0004302616871448,0.000358849594180937
-0.4004301465853132,-0.4004301465853132,1.0004051042236273,0.0003754130999657194
-0.3995890674047132,-0.3995890674047132,1.0028448005472184,0.000373749097629233
-0.39905867249381116,-0.39905867249381116,0.9992620008114219,0.00036338700164887603
-0.3984684712620492,-0.3984684712620492,0.9996439107682846,0.00036743514768701376
-0.3982675874513461,-0.3982675874513461,0.9992616037306108,0.0003523295602214186
-0.3979650734603183,-0.3979650734603183,1.0010755148710295,0.00036639974091359583
-0.3973374807379514,-0.3973374807379514,0.99975788548988,0.0003591765487886632
-0.396581648280835,-0.396581648280835,0.9993584092663745,0.00034724245902387413
-0.3956694966753275,-0.3956694966753275,0.9997390564283892,0.0003815129018959277
-0.3951091331019597,-0.3951091331019597,0.9998842100745268,0.000361503852732991
-0.3945798257117076,-0.3945798257117076,0.9996909188353721,0.00035805819019646206
-0.3941880620600841,-0.3941880620600841,1.0000925064149562,0.0003642456131520489
-0.39394523178839336,-0.39394523178839336,0.9998106380504073,0.0003602353076519162
-0.39366582013803963,-0.39366582013803963,1.0000157648944488,0.0003614695712263866
-0.39321601881815693,-0.39321601881815693,1.0004828833318034,0.0003624198531140519
-0.39252089268043167,-0.39252089268043167,1.0003127597554227,0.00035880214831912805
-0.39169583953653275,-0.39169583953653275,1.0002742916224896,0.00037485692920629954
-0.39085477219937276,-0.39085477219937276,1.0010381843775964,0.0003732379754498521
-0.39032443234223135,-0.39032443234223135,1.0003188285306897,0.0003634654352642779
-0.3897341761095504,-0.3897341761095504,0.9995335038516708,0.00036737652255347216
-0.38953325247916837,-0.38953325247916837,0.999921058101622,0.0003522678181297176
-0.3892307876852101,-0.3892307876852101,1.00058642655394,0.0003662091257307123
-0.38860316960244745,-0.38860316960244745,1.0002944724335288,0.0003591319441783083
-0.38784722792588583,-0.38784722792588583,1.0008560715759118,0.0003473351783778516
-0.38688893298694893,-0.38688893298694893,1.000306322446421,0.00037926218646972
-0.3862776438697438,-0.3862776438697438,0.9997097650035203,0.0003638028312769346
-0.38575663423353035,-0.38575663423353035,1.0001182631932761,0.0003575085546148403
-0.38539004900430884,-0.38539004900430884,0.9999967612023664,0.00036280778920062427
-0.38517404979756975,-0.38517404979756975,0.9998447904150156,0.00036170991613371044
-0.3848646317241219,-0.3848646317241219,1.0003412352808883,0.000359653701604528
-0.38434501800716137,-0.38434501800716137,1.00056936814292,0.00036450187229508776
-0.38366780715055027,-0.38366780715055027,0.9993565226574322,0.00036647197395037347
-0.38271260193459966,-0.38271260193459966,0.999890728794399,0.0003648234795955753
-0.38206709015089474,-0.38206709015089474,1.000514770216541,0.0003747890115740707
-0.3814178323670149,-0.3814178323670149,0.9994812299064766,0.00036126649825908824
-0.38096589673778,-0.38096589673778,1.0026105107179388,0.00036975928745765625
-0.3807406180864291,-0.3807406180864291,1.0003281778022801,0.00035069918251308136
-0.3804004868528864,-0.3804004868528864,0.9998398764235722,0.0003623015217056889
-0.37972864268463125,-0.37972864268463125,0.9995862422485944,0.0003593775281056499
-0.37895141407680055,-0.37895141407680055,1.0006763422877707,0.0003528669115760442
-0.37795496644284865,-0.37795496644284865,0.9997965296412256,0.00037904534621595624
-0.3774519763385342,-0.3774519763385342,1.0003251910984288,0.0003616957106437564
-0.37697689941846874,-0.37697689941846874,1.0002587220062145,0.00035957896400457565
-0.3766557756048769,-0.3766557756048769,1.0005362166056044,0.00036278203705052234
-0.3764397361763258,-0.3764397361763258,0.9997492873147907,0.0003617938892322231
-0.37613031973951366,-0.37613031973951366,1.000495162319582,0.00035966256985897805
-0.3756106881527558,-0.3756106881527558,0.9995864767566692,0.0003646304992543834
-0.3749334447696128,-0.3749334447696128,0.9995397650349342,0.00036599890991481047
-0.37397833180980344,-0.37397833180980344,0.9998197130438677,0.0003648140690408815
-0.37333283218476937,-0.37333283218476937,0.9992922584870124,0.0003745605635291567
-0.3726835566225873,-0.3726835566225873,1.0003939821995425,0.00036117461214675236
-0.37223161411261574,-0.37223161411261574,1.0029505629364501,0.000369344141427371
-0.3720062673713528,-0.3720062673713528,1.0004552317391449,0.0003507249412454576
-0.37166616914400946,-0.37166616914400946,0.999583835766488,0.00036228542872203986
-0.3709943442764597,-0.3709943442764597,1.0003736023449623,0.00035954484851157713
-0.37021704282710743,-0.37021704282710743,1.000054306044619,0.0003526633132736807
-0.36922070688515307,-0.36922070688515307,1.0005211105475897,0.0003788585018736052
-0.36871771399032693,-0.36871771399032693,1.0002450622677217,0.00036183493638626085
-0.36821110007927016,-0.36821110007927016,0.9993101946600473,0.0003574626751488569
-0.3678644252032882,-0.3678644252032882,1.0007323696026988,0.0003667775937307643
-0.3676566923903465,-0.3676566923903465,0.9995723830690693,0.0003541097575002666
