time,time,flux,flux_err
-0.49982518250362773,-0.49982518250362773,0.9998667224456077,0.0002850200601020811
-0.49954589083548245,-0.49954589083548245,1.0000488797105163,0.0002847272531955194
-0.49939482550835235,-0.49939482550835235,0.9997884907927522,0.0002575457227432567
-0.4992237182887038,-0.4992237182887038,0.9999846118308865,0.0002632805657374785
-0.49912285660611816,-0.49912285660611816,1.0002952673468535,0.00024048458962858875
-0.4989123371502501,-0.4989123371502501,0.999974929381036,0.00026187703440658705
-0.49874156581572604,-0.49874156581572604,0.999939668827335,0.0002477685809904223
-0.49862321469481685,-0.49862321469481685,1.0000791980811052,0.000275075053336414
-0.49848132631814224,-0.49848132631814224,1.0000246873989191,0.00027137121101637453
-0.498328417364246,-0.498328417364246,1.000190021892675,0.0002225497271075546
-0.49816891012960696,-0.49816891012960696,0.9999356087192994,0.0002647484174149504
-0.4980174249089032,-0.4980174249089032,0.9997642490320331,0.00025080838154709127
-0.4978891028600628,-0.4978891028600628,0.9997807650964269,0.0002530009109884847
-0.4976438285782933,-0.4976438285782933,0.9999922461128239,0.00027585349828996696
-0.49742695035311046,-0.49742695035311046,0.9997740499017624,0.00023895372003296592
-0.49717562581572566,-0.49717562581572566,1.0004292319639925,0.0002712005656854349
-0.49695599764818327,-0.49695599764818327,1.0001577518347806,0.00024023100535020843
-0.49683465510897806,-0.49683465510897806,0.9997959152087891,0.0002744565268068957
-0.49667723489546917,-0.49667723489546917,0.9998117175858109,0.00026077417709241996
-0.49650172523033687,-0.49650172523033687,0.9998642886040002,0.00024136565761756482
-0.4963919783127494,-0.4963919783127494,1.000109280362287,0.00026122085289566213
-0.4962129620776977,-0.4962129620776977,1.000099839665175,0.0002638063502767302
-0.4958213813690236,-0.4958213813690236,0.9999881372509833,0.0002746898173301473
-0.49553266990260453,-0.49553266990260453,1.0003247912716717,0.00024104445561702096
-0.4953294298167748,-0.4953294298167748,0.9998504857343136,0.00028517329838176645
-0.49516131145719555,-0.49516131145719555,0.9999857287713148,0.00024833364732876556
-0.4950345851371821,-0.4950345851371821,0.9998734600627461,0.0002844971229722498
-0.49490758326428475,-0.49490758326428475,0.9999078602316475,0.00025815906239979073
-0.4947368530491076,-0.4947368530491076,0.9999043670950183,0.00024158540441605717
-0.4945736068475526,-0.4945736068475526,1.0000191496258215,0.0002342031286752318
-0.4943915865500458,-0.4943915865500458,0.9997415338030373,0.00023964863478766573
-0.49419523614269567,-0.49419523614269567,1.0002324068489936,0.0002527220225703359
-0.4940501959026733,-0.4940501959026733,1.0000725784583901,0.0002660166097003112
-0.49391699221669116,-0.49391699221669116,1.0001379771319894,0.00023968182760396067
-0.49375123603313115,-0.49375123603313115,1.000308570413585,0.0002837864229058575
-0.4936220363670145,-0.4936220363670145,0.9999777769023457,0.00027672604342422345
-0.49338298042639506,-0.49338298042639506,0.9997075221366408,0.0002547514321172523
-0.4932320362102473,-0.4932320362102473,0.9997718049741608,0.00026552583990999265
-0.49304367528820875,-0.49304367528820875,1.0000822292757525,0.0002432045029021297
-0.49288979198827293,-0.49288979198827293,1.0001092454126623,0.0002645724463951502
-0.4928186979683232,-0.4928186979683232,0.9999370430505332,0.000249359867892808
-0.4926963898811664,-0.4926963898811664,0.9998594966903935,0.0002544701046897911
-0.4925873431559012,-0.4925873431559012,1.0002239189324313,0.00024398094421464433
-0.49245573243169927,-0.49245573243169927,1.0000691314023984,0.000291975537097854
-0.4923291049504769,-0.4923291049504769,0.999984289554051,0.00023861639408484796
-0.4921934668091126,-0.4921934668091126,0.9997302004390456,0.00026428974855245913
-0.4920380014409602,-0.4920380014409602,1.0000050537376102,0.00023648044190753702
-0.4918527770205401,-0.4918527770205401,0.9998969610969481,0.00026490576843724164
-0.49153933338457134,-0.49153933338457134,1.0000387986282633,0.00025455615540576255
-0.4912712817116699,-0.4912712817116699,1.0000496978671776,0.00025274206764052017
-0.49101466670181254,-0.49101466670181254,0.9998022578728142,0.00024752205024312945
-0.490847690825467,-0.490847690825467,0.9999093984311542,0.00026488007373398495
-0.4907177761211642,-0.4907177761211642,0.999890931326599,0.0002804081106579937
-0.49049408035571107,-0.49049408035571107,0.9998918304364459,0.0002501512070861453
-0.4903622167519643,-0.4903622167519643,1.0002246652105593,0.00027660890302208085
-0.4901957163281622,-0.4901957163281622,1.0001081061581565,0.0002481493203238899
-0.48978375147271436,-0.48978375147271436,0.9997615009024493,0.0002582369274871245
-0.489572425471124,-0.489572425471124,1.000143618225265,0.0002442288878801091
-0.4893718625397014,-0.4893718625397014,1.0001821216355766,0.00026897619912426816
-0.48906149762333373,-0.48906149762333373,1.0001657624587528,0.0002775819696096285
-0.48892167547528514,-0.48892167547528514,1.0002691086136264,0.0002538757707645974
-0.4888020637263253,-0.4888020637263253,1.0001492962857699,0.0002442155104331921
-0.488649552584684,-0.488649552584684,1.0002884662889653,0.00022745383659536505
-0.488512540589727,-0.488512540589727,0.9999408385952243,0.0002523535525178932
-0.48835146788114797,-0.48835146788114797,1.0000426647925182,0.0002479131033161449
-0.4881902246925165,-0.4881902246925165,1.000249292674178,0.00024805582553663976
-0.4880807652247313,-0.4880807652247313,1.000074307656689,0.0002925045396213392
-0.48794143220220576,-0.48794143220220576,0.9998774557027929,0.0002501543554044976
-0.4878107290598564,-0.4878107290598564,0.9998897297742344,0.00022798808849586806
-0.48762493764370446,-0.48762493764370446,1.0000094029192037,0.0002652504922139414
-0.48744468120421514,-0.48744468120421514,0.9999803717586928,0.0002648049840454685
-0.48731632029230243,-0.48731632029230243,1.0000240575426118,0.00023004141224932658
-0.4871181287082436,-0.4871181287082436,0.9999924660216216,0.00027689237327478314
-0.4869811033786391,-0.4869811033786391,1.000118095757702,0.0002470258064238783
-0.486895832810842,-0.486895832810842,0.9998248282019542,0.00023808476739968065
-0.4867843785941659,-0.4867843785941659,1.0001650295640698,0.00026663274888910914
-0.48658879360955326,-0.48658879360955326,0.9999827823466356,0.00025194639190344846
-0.48641378632892157,-0.48641378632892157,0.999676588500494,0.00028100635082277376
-0.48625711199129,-0.48625711199129,1.0001360317202888,0.00025862104268810864
-0.4860914523647807,-0.4860914523647807,0.9999473246732158,0.00024141174690203037
-0.48596974012834837,-0.48596974012834837,0.9999295545980104,0.00025525758946499526
-0.48586980227919413,-0.48586980227919413,1.0001927984671917,0.00025627012997900197
-0.48565128025147714,-0.48565128025147714,1.0001534823247484,0.0002730113620945889
-0.48530053507638515,-0.48530053507638515,0.9998834841358631,0.00025617292574249475
-0.4850111538311467,-0.4850111538311467,1.000095426568534,0.000244319966612201
-0.4848884377264767,-0.4848884377264767,0.9998536189976027,0.00027438551825992286
-0.48466049788548843,-0.48466049788548843,0.9998924075125499,0.00027731905084621883
-0.484527240305033,-0.484527240305033,0.9999793483558255,0.0002727517251404005
-0.48445661243313226,-0.48445661243313226,0.9998856053660795,0.00023755008622071495
-0.4842641837698466,-0.4842641837698466,0.999804395061336,0.0002396140414154928
-0.4841031410061987,-0.4841031410061987,1.0003106058922993,0.00023984926849852914
-0.4838445777328161,-0.4838445777328161,0.9999161011554726,0.0002550690480927297
-0.4836547601240454,-0.4836547601240454,1.0000719319945175,0.00027670341677578397
-0.4834430245922704,-0.4834430245922704,1.0000311808552906,0.00025728074643514376
-0.48313591621263186,-0.48313591621263186,0.9999448571703198,0.0002639545990060804
-0.4830325032693509,-0.4830325032693509,0.9999715020231752,0.0002864941188524508
-0.48282474161460415,-0.48282474161460415,0.9999283339089196,0.0002566891145390051
-0.4826963703315414,-0.4826963703315414,1.0001729099939154,0.00024042245829784613
-0.48247866655437976,-0.48247866655437976,0.9996335896135973,0.00024564371340525065
-0.48232523253391263,-0.48232523253391263,0.999741379361525,0.00025408794544561623
-0.4822105704326532,-0.4822105704326532,0.9996819877137326,0.000263503842675361
-0.482098869872425,-0.482098869872425,1.0001300833947242,0.00025044850102171854
-0.481999698686559,-0.481999698686559,0.9999498040557956,0.00029552641132363883
-0.4818693478620844,-0.4818693478620844,0.9999930434556472,0.00023645282075585326
-0.4817510512315494,-0.4817510512315494,1.0001467791485794,0.0002389191715702679
-0.48164836713840486,-0.48164836713840486,0.999908729868431,0.00026790102800659197
-0.4814988935933798,-0.4814988935933798,1.000168382689498,0.0002571624581846226
-0.48120192677961315,-0.48120192677961315,0.9999553336168935,0.0002739827099896623
-0.4809392894792836,-0.4809392894792836,0.9997423939367698,0.00024070357517326453
-0.4807190378276573,-0.4807190378276573,0.9998655607456953,0.0002539516746665871
-0.48050794812152164,-0.48050794812152164,0.9999239679969794,0.00026215285273012125
-0.4803820415712835,-0.4803820415712835,0.9999132420495703,0.0002243495385020866
-0.4802937906650186,-0.4802937906650186,0.9997637466407621,0.000273854653811819
-0.4801636067008076,-0.4801636067008076,1.0000156652616583,0.00026762128306977823
-0.48002563037734947,-0.48002563037734947,0.9997085815923364,0.0002639285063837682
-0.479921946599643,-0.479921946599643,1.000008128306447,0.00024699077678012383
-0.47973534807533724,-0.47973534807533724,0.9998231405662418,0.0002819961109729398
-0.4793703891635232,-0.4793703891635232,0.9999254324815215,0.0002452085218151251
-0.4791298421834654,-0.4791298421834654,1.00019564559414,0.0002632628681063561
-0.4789401045170962,-0.4789401045170962,0.9995460540834437,0.00025089934993417675
-0.47877923603955425,-0.47877923603955425,1.0000416918202142,0.0002686961835045292
-0.4786200819595251,-0.4786200819595251,0.9998715655824755,0.0002731084015097348
-0.4784804001545126,-0.4784804001545126,1.0001403768318358,0.0002758369373613629
-0.47831100075127325,-0.47831100075127325,1.0001244579301594,0.00024825380991350354
-0.4781611225778761,-0.4781611225778761,0.999764151562341,0.00023969535808947322
-0.4780200101165974,-0.4780200101165974,1.0002050183364601,0.00025690503281114804
-0.47789558966323964,-0.47789558966323964,1.0002141705452563,0.00025213611201873454
-0.4777342223482265,-0.4777342223482265,0.9998021953401199,0.00024195686064434657
-0.4776431068785314,-0.4776431068785314,1.0001315384502123,0.00026699024524949534
-0.4775055603029614,-0.4775055603029614,1.0001334575410998,0.0002381012711640063
-0.4773194568013423,-0.4773194568013423,1.000214500798172,0.0002679702997569248
-0.4771902251726715,-0.4771902251726715,1.00006918239562,0.0002744235534021312
-0.4769734472662094,-0.4769734472662094,1.0001153188828433,0.00027565510347100946
-0.47684491965919734,-0.47684491965919734,1.0001580982594573,0.0002424022301615032
-0.4766032448926126,-0.4766032448926126,1.000498111606888,0.00027432160287626584
-0.47648852955171606,-0.47648852955171606,0.999856836946045,0.00024331188296829162
-0.47639332511462273,-0.47639332511462273,0.9997970750562587,0.00026641236892433633
-0.4762923617985507,-0.4762923617985507,0.9998833044246206,0.00023873732811241486
-0.47617378583090614,-0.47617378583090614,0.9997977508288656,0.00026696324159741953
-0.4760409039990918,-0.4760409039990918,1.0000360777932813,0.0002603869763509888
-0.4759156261919998,-0.4759156261919998,0.9999816506284009,0.0002601736106178102
-0.47579369834056706,-0.47579369834056706,0.9999878734631995,0.0002547502662224539
-0.4756585984323465,-0.4756585984323465,1.0000458174547793,0.0002625242316615998
-0.47551424860357655,-0.47551424860357655,0.9998582267013767,0.0002592280103198356
-0.47530697221955054,-0.47530697221955054,1.000028687415556,0.00024184057081714692
-0.47504058017366335,-0.47504058017366335,0.9998565859342119,0.00027516509480867297
-0.4746816544953617,-0.4746816544953617,1.0001180967130363,0.0002682109703762251
-0.47446823965001383,-0.47446823965001383,0.9998289138162928,0.0002441855947717592
-0.47430770255523386,-0.47430770255523386,1.000450883147829,0.00026112229076442423
-0.4740909257227031,-0.4740909257227031,0.9996672756383006,0.00028283159226453856
-0.4739872288846527,-0.4739872288846527,1.0002439062398634,0.00024064031103823987
-0.47388763292037767,-0.47388763292037767,1.000127167359112,0.00026191016551553906
-0.4736009986336285,-0.4736009986336285,0.9998934533395116,0.0002488986050983743
-0.4733377487427788,-0.4733377487427788,1.000249176428221,0.0002565943975331142
-0.4731389472770388,-0.4731389472770388,0.9999505546801852,0.0002661804874268476
-0.4729211741549079,-0.4729211741549079,0.9997594892194099,0.0002583440655271115
-0.4726384146422788,-0.4726384146422788,0.999984359012149,0.00025650251681696296
-0.4725104405421007,-0.4725104405421007,0.9996648980384011,0.00026408152860608766
-0.4723166215037054,-0.4723166215037054,0.9995225414953286,0.0002555734249990574
-0.47219688383265745,-0.47219688383265745,1.0001894930390396,0.00024076173505354625
-0.47203586721152535,-0.47203586721152535,0.9999794336067207,0.00023646909313161925
-0.47181803483399565,-0.47181803483399565,0.9999214984425896,0.00026922958332881023
-0.4716979810815246,-0.4716979810815246,1.0003351398459759,0.0002654639412094094
-0.4715820218298177,-0.4715820218298177,1.0000919544721223,0.00026733640779259946
-0.4714832920806657,-0.4714832920806657,1.0000961006222515,0.00025314780384756653
-0.4713321934767009,-0.4713321934767009,0.9998813526587856,0.00022447883340483867
-0.47118554030384985,-0.47118554030384985,0.9998118421512363,0.0002716814488392736
-0.4710389988613315,-0.4710389988613315,0.9999670702485869,0.00026565266450200584
-0.4709195207477023,-0.4709195207477023,1.000264303821392,0.0002462668101983652
-0.4706714972744521,-0.4706714972744521,0.9999882957982529,0.00028468970689758373
-0.47054512944087035,-0.47054512944087035,1.0001402865596283,0.000255865117295225
-0.4703907199094829,-0.4703907199094829,1.000527851632074,0.00025071183339519387
-0.4702461729502829,-0.4702461729502829,1.0002035300511274,0.00026391541018464134
-0.4700355093751568,-0.4700355093751568,0.9999871000876027,0.00024541177217444896
-0.4699181649106322,-0.4699181649106322,1.0001039700302221,0.00027042642282375614
-0.4697438439136022,-0.4697438439136022,1.000229714198813,0.00026194431876464745
-0.46960247851966413,-0.46960247851966413,0.9998290878306515,0.0002297989618866846
-0.46949851139142995,-0.46949851139142995,0.9999373711457583,0.00028460358537134425
-0.4693698413859238,-0.4693698413859238,1.000112789029052,0.00024349530162973433
-0.4690244515462837,-0.4690244515462837,1.000323979108901,0.00027327858532120807
-0.4687081575502816,-0.4687081575502816,1.0000816523085636,0.00025437523857386063
-0.46844561574980614,-0.46844561574980614,0.9998294923056594,0.000287160243851267
-0.46822703628713497,-0.46822703628713497,1.000336779187205,0.0002640606337237736
-0.46809690814916394,-0.46809690814916394,1.0004572432042096,0.0002642393041709911
-0.46800947105512025,-0.46800947105512025,0.999954531477006,0.0002863324959237435
-0.4678651423724659,-0.4678651423724659,0.9998477365488906,0.00024282429899145035
-0.46766195436866836,-0.46766195436866836,0.9999945139805838,0.00022368781977361883
-0.4674213306818274,-0.4674213306818274,1.0001115208142222,0.0002515110209888441
-0.46723414682564907,-0.46723414682564907,0.9997717200948382,0.0002606039736933826
-0.4671034737883019,-0.4671034737883019,1.0000229000170477,0.00025125411625864536
-0.46696237783980904,-0.46696237783980904,0.9996551156446609,0.00025523883832227854
-0.46675797568677807,-0.46675797568677807,1.000071839905003,0.0002866519246020912
-0.4666279041550297,-0.4666279041550297,0.9998950262935168,0.0002842867225136741
-0.46639043631366806,-0.46639043631366806,0.9999352904185639,0.0002317363916360777
-0.46623997518909166,-0.46623997518909166,0.9998536013538531,0.0002626109344532132
-0.46602852051728405,-0.46602852051728405,0.9999482651077795,0.0002475756339407553
-0.4658883823460201,-0.4658883823460201,1.0000672601222826,0.0002517621534131952
-0.4658063571834646,-0.4658063571834646,0.9997902225107854,0.00025490617640792326
-0.4656779253607965,-0.4656779253607965,1.0000422362564196,0.00025014572034732856
-0.4655515146412654,-0.4655515146412654,1.0001348423570877,0.00027565326992373316
-0.465438718918449,-0.465438718918449,0.9998870998606874,0.00025866560626268875
-0.46529585063326523,-0.46529585063326523,1.0003318022267567,0.00025619646490414414
-0.46519598473169027,-0.46519598473169027,0.999887912654056,0.00026198853682181877
-0.46504198305265165,-0.46504198305265165,1.0002539629781002,0.0002645948061094767
-0.46478849471677675,-0.46478849471677675,1.0002055417229163,0.0002525810266569101
-0.4645468420967518,-0.4645468420967518,0.9998638307327676,0.000265613234935285
-0.46431627559286426,-0.46431627559286426,1.0002450073869464,0.00024877351606938545
-0.46414104941577533,-0.46414104941577533,0.9998281152693348,0.00025593532207762514
-0.46395290474392825,-0.46395290474392825,1.0001097404480084,0.00023551669586832543
-0.4638509846314264,-0.4638509846314264,1.0000743659555869,0.000270697778970381
-0.46359475010249296,-0.46359475010249296,0.9998585338387525,0.00026064394875196454
-0.46343838143948235,-0.46343838143948235,0.9999172898775066,0.00025448018373800123
-0.4633676649282279,-0.4633676649282279,1.0006606220943208,0.00026837637027072984
-0.46301336406031623,-0.46301336406031623,0.9999716285338363,0.0002646739152569788
-0.46283074002349167,-0.46283074002349167,0.9999635532300672,0.00025856018080994744
-0.4626146316055383,-0.4626146316055383,0.9998586991196289,0.00024425491893862605
-0.4624207691224001,-0.4624207691224001,0.9997310803380627,0.00026883399534492666
-0.4621032059301797,-0.4621032059301797,0.9999174524321924,0.0002773361489288663
-0.4619687770267774,-0.4619687770267774,1.00002870253312,0.0002741136356042398
-0.46189873541297854,-0.46189873541297854,0.9998407008624126,0.00024288801391630054
-0.4617593772993132,-0.4617593772993132,1.000247608875074,0.00022475489489972574
-0.46160756128083447,-0.46160756128083447,0.9998824971648166,0.000226076733159434
-0.46149321650664205,-0.46149321650664205,1.0001380480739734,0.00027457437095107084
-0.4613197380604106,-0.4613197380604106,1.000096865994593,0.00023116056042984785
-0.46120365238311933,-0.46120365238311933,1.0000657851631896,0.00026845237586858324
-0.4611289053304063,-0.4611289053304063,0.9999771333413513,0.00025628819901701914
-0.4609858119765704,-0.4609858119765704,0.9996980929905417,0.00026083247381422897
-0.46080760797922266,-0.46080760797922266,1.0000662151302464,0.0002551240731588109
-0.4605845449819753,-0.4605845449819753,1.0000496861766208,0.00026589118187919815
-0.46045777366525725,-0.46045777366525725,0.9997681909539311,0.0002395869926557058
-0.46028067913503035,-0.46028067913503035,1.000149076961416,0.0002659580523745603
-0.4601077106686716,-0.4601077106686716,1.0000160334586625,0.00025485884550107633
-0.4599881767950137,-0.4599881767950137,1.0000387637553483,0.0002317798516928679
-0.4598739850815036,-0.4598739850815036,0.9997674270508103,0.000273044060193325
-0.4597505462603294,-0.4597505462603294,0.999855803190919,0.000255318879359532
-0.4595680236525368,-0.4595680236525368,1.0002020253513937,0.0002601993770347807
-0.45940574120832023,-0.45940574120832023,0.9998662018916761,0.00027383848948878847
-0.45927141957581624,-0.45927141957581624,0.9998828881449686,0.0002514664223668831
-0.459127533564606,-0.459127533564606,0.9999477997154032,0.00023211835590977782
-0.45898033637640767,-0.45898033637640767,1.0001581764042777,0.00024622254288704537
-0.45881635577461566,-0.45881635577461566,1.0000036975650564,0.00025263739394997285
-0.4585878668862279,-0.4585878668862279,0.9998848035591381,0.0002594183867565583
-0.45827059980947527,-0.45827059980947527,1.0002645208072616,0.00025636912595992397
