time,time,flux,flux_err
-0.4998883811246439,-0.4998883811246439,0.9996401831312216,0.0005220031294040312
-0.4997070155325976,-0.4997070155325976,0.9997509299940788,0.000544807338841815
-0.4995501810602339,-0.4995501810602339,1.0007128750114338,0.0005502747315991841
-0.49927261020760244,-0.49927261020760244,1.0004234088834603,0.00047220368405659656
-0.4991533378517488,-0.4991533378517488,0.9997538156999125,0.0005306907906718298
-0.4989947826368734,-0.4989947826368734,1.0003945987948337,0.0005093963105310405
-0.49884827867499554,-0.49884827867499554,0.9999975530193671,0.0005864784136654525
-0.49869306568725735,-0.49869306568725735,0.9994473817205349,0.0004737863906074122
-0.4983646520784532,-0.4983646520784532,1.0000191692952405,0.0004953124043726186
-0.4981694640642672,-0.4981694640642672,1.0001065750987528,0.0004937855363002539
-0.49804590155108597,-0.49804590155108597,1.0009868151138543,0.0004943394338928369
-0.4979371508969052,-0.4979371508969052,0.9992264822830077,0.0005228739962325445
-0.49786124535967247,-0.49786124535967247,0.99986843317494,0.0005437216265826944
-0.4977468017663341,-0.4977468017663341,1.0000133407662548,0.000552913064560807
-0.49742793130862994,-0.49742793130862994,1.000699516813514,0.00044273160305268594
-0.4973116389097413,-0.4973116389097413,1.000936636910615,0.0005083441782810311
-0.4971365881567181,-0.4971365881567181,1.0005030406220876,0.0005000927421070047
-0.49700244103005387,-0.49700244103005387,1.0001783178024717,0.0005393808476641938
-0.4968559353837918,-0.4968559353837918,1.0000632179644562,0.0005194436190137819
-0.49655938035939473,-0.49655938035939473,1.0003099807928169,0.0004747650592443585
-0.4963327908415522,-0.4963327908415522,0.9999264213536467,0.0005015615580327024
-0.4961754486859718,-0.4961754486859718,1.0001630388439278,0.0004979336629905324
-0.4960404249817657,-0.4960404249817657,1.00119165768908,0.0005248081671103981
-0.4959145017528499,-0.4959145017528499,1.0004410427206694,0.0005476846652019404
-0.4955933943580021,-0.4955933943580021,1.000582191178385,0.0004464016252528909
-0.49545861908773076,-0.49545861908773076,0.9997752162877402,0.0004723651278718181
-0.4952975345113373,-0.4952975345113373,0.999441820499434,0.0004820650098012807
-0.4951411061032559,-0.4951411061032559,0.9994821011511501,0.0005287453361729662
-0.4949606603157008,-0.4949606603157008,1.002235178204624,0.0004915018113532038
-0.49462844200388645,-0.49462844200388645,0.9998436648464779,0.00042864073539998786
-0.49445107021165313,-0.49445107021165313,0.9995259344900663,0.0005298085493882137
-0.4943179171852535,-0.4943179171852535,1.0012129520697748,0.0005126414087282971
-0.4941830300842412,-0.4941830300842412,0.9995064679006264,0.0005060888444065065
-0.49393317367939743,-0.49393317367939743,1.0004978376754936,0.0004860755769544935
-0.49370117835715066,-0.49370117835715066,0.9998491380082297,0.00048395582332983145
-0.49353693591983755,-0.49353693591983755,1.0004317967352325,0.00047016313224789336
-0.4933975491250749,-0.4933975491250749,1.0003356058680317,0.0005134198296535729
-0.49322122628509535,-0.49322122628509535,1.0007564004230216,0.0005498255777323184
-0.49297730750331537,-0.49297730750331537,1.0005528957726142,0.0004885701124319864
-0.49274381395662203,-0.49274381395662203,1.0001887284040742,0.00044689483961810126
-0.4925809084743378,-0.4925809084743378,0.9999226511889694,0.0005000115055343766
-0.4924895073963853,-0.4924895073963853,0.9992793792382402,0.0005915038767958676
-0.49241876869273254,-0.49241876869273254,0.9999381973302981,0.0005133839876478003
-0.49225849607682903,-0.49225849607682903,0.9994187774154293,0.0005934809010531843
-0.49207452362534243,-0.49207452362534243,0.9993700377630887,0.0004992100220882286
-0.4919482542667538,-0.4919482542667538,0.9996867700608585,0.0004324335831971662
-0.4917380288803542,-0.4917380288803542,0.9998374426128812,0.0004905917382066716
-0.49162337804300477,-0.49162337804300477,1.0337335694311505,0.0004602531595249297
-0.49154714382384557,-0.49154714382384557,1.001266411185444,0.0005173353373204601
-0.4913552229983907,-0.4913552229983907,0.9999295695317197,0.0005134730025959205
-0.4911217048742401,-0.4911217048742401,0.9992624976798282,0.0005438388134153012
-0.4908722211483109,-0.4908722211483109,0.9999984799733308,0.00047169632306092775
-0.49074595044585295,-0.49074595044585295,1.0003651038232273,0.0004958609198646672
-0.49063470918117674,-0.49063470918117674,0.9999525750045436,0.0005420908610315236
-0.490474519476993,-0.490474519476993,1.00015684267363,0.00047570716123908384
-0.4903013406226819,-0.4903013406226819,0.9995851387936927,0.0005353171565547083
-0.49017356129770634,-0.49017356129770634,0.9995431268648975,0.000507824680735572
-0.4899208225680923,-0.4899208225680923,0.9998268867647262,0.0004477155803519992
-0.4897600242817134,-0.4897600242817134,0.9997746457477283,0.0005011526729732118
-0.4896115191222634,-0.4896115191222634,1.0002138553177846,0.0004641078612982479
-0.4894457845861325,-0.4894457845861325,1.0002157154370004,0.0006666869119165064
-0.48913061380371803,-0.48913061380371803,1.0000241860819346,0.00045927170420033344
-0.4890201592723315,-0.4890201592723315,0.9997098715460524,0.0005376527715768516
-0.4889525013473758,-0.4889525013473758,0.9999208707429009,0.0005084565524653579
-0.4887902502065117,-0.4887902502065117,0.9999957971751068,0.0004421679904052017
-0.48857238801792846,-0.48857238801792846,1.0003951940640223,0.000492815602080453
-0.4884139290174062,-0.4884139290174062,0.9998506926626348,0.000520244347867872
-0.4881689101945085,-0.4881689101945085,1.0007473246342484,0.0004385065706614022
-0.4879238912304572,-0.4879238912304572,1.0004863417428411,0.0005044538997119088
-0.4877903203123424,-0.4877903203123424,1.0001744616944142,0.0005529825507596463
-0.48763081330253044,-0.48763081330253044,0.9999549852332438,0.0005019950739060185
-0.487321704072383,-0.487321704072383,0.9999848102593478,0.000507720423950138
-0.48723334496753523,-0.48723334496753523,1.0001096607365838,0.0005459028263958483
-0.48710007013287393,-0.48710007013287393,0.9999180327881145,0.0005055639637905767
-0.48689340975543016,-0.48689340975543016,1.0003737336531218,0.0004198316351455873
-0.48669478148949563,-0.48669478148949563,1.0006473163555003,0.00047068753465797416
-0.48658470579466667,-0.48658470579466667,1.0006108280399961,0.0005063973552766042
-0.48643564253870863,-0.48643564253870863,1.0011861360425116,0.0005221741595714971
-0.48613813223491886,-0.48613813223491886,1.000957652180389,0.0004827981547442017
-0.4859885698569997,-0.4859885698569997,0.9997235792579836,0.0005010431341966109
-0.485753306037077,-0.485753306037077,0.9995339462498484,0.0004895768162147975
-0.4854830588985351,-0.4854830588985351,1.000403172899687,0.0005322055925750651
-0.4853740088568884,-0.4853740088568884,0.9997611771136021,0.0004950231854797721
-0.4851740224417881,-0.4851740224417881,0.9994413681313438,0.00046406042371090856
-0.48504678573008275,-0.48504678573008275,1.0000304554035009,0.00042175578886743844
-0.4848897693285835,-0.4848897693285835,1.0005813469744835,0.0005210427698416675
-0.4848024140635971,-0.4848024140635971,1.0001929981350615,0.0004959092938108753
-0.48464443894845316,-0.48464443894845316,1.0017954446038553,0.0005104546903133579
-0.4844684511626838,-0.4844684511626838,1.000300907150131,0.0005567670277989811
-0.48427432088428757,-0.48427432088428757,0.9998095138826752,0.0004662809559521628
-0.4841711781489721,-0.4841711781489721,0.9999697040772839,0.00048277005142349175
-0.48404303806310056,-0.48404303806310056,1.0006919670790608,0.0005354218768588737
-0.4837834057085274,-0.4837834057085274,1.0001224551776202,0.0005455958535696482
-0.48358785529999293,-0.48358785529999293,0.9998990247846518,0.0004700529381360556
-0.48347162591671805,-0.48347162591671805,1.0007824427102,0.0005297692063419166
-0.48323166368936654,-0.48323166368936654,0.9992549556364058,0.0004303371083708163
-0.48314043611171653,-0.48314043611171653,1.0002792721912945,0.0004947779734197166
-0.48302124008332614,-0.48302124008332614,1.0004619013780396,0.00048319628755669224
-0.4828313520964002,-0.4828313520964002,0.9996806572170032,0.0005051882259350323
-0.48268469007962267,-0.48268469007962267,1.00053152317192,0.0005052912507845625
-0.48249007199774496,-0.48249007199774496,1.0004179668076232,0.0005073355049275668
-0.4823341569637705,-0.4823341569637705,1.0000815969569878,0.00046846216551501104
-0.48210508490810755,-0.48210508490810755,0.999125509524211,0.000520132120583281
-0.48190335851104465,-0.48190335851104465,1.000772456880569,0.0005117637875125005
-0.4817748078006844,-0.4817748078006844,0.9999507755633743,0.0004960108002611364
-0.48162031313040643,-0.48162031313040643,0.9996676692164961,0.0004723082156272146
-0.48141764347528804,-0.48141764347528804,0.9997205865359942,0.0004800432308792424
-0.48131660462604486,-0.48131660462604486,1.0003544346938407,0.00048148311681668393
-0.4812253633972432,-0.4812253633972432,1.0002542995372206,0.0004888745795770374
-0.48105075362691424,-0.48105075362691424,1.000098213667015,0.0004992910652538527
-0.48085676050541226,-0.48085676050541226,0.9997374695985431,0.000462479537543631
-0.48072059602855005,-0.48072059602855005,1.0000145624993984,0.0005173028894276436
-0.4805678979973891,-0.4805678979973891,0.9995298182037097,0.0005097028201824347
-0.4803308724171075,-0.4803308724171075,0.9997969322428499,0.0005039575957925408
-0.48021760349220133,-0.48021760349220133,0.9989729792104827,0.0005213157393783253
-0.48009093199507336,-0.48009093199507336,0.9998850552915289,0.0005116325643396496
-0.47997257037786767,-0.47997257037786767,1.0003379515535231,0.0004955589136689258
-0.47976440750644544,-0.47976440750644544,1.0001501593418465,0.00048761899956867966
-0.47952440184380973,-0.47952440184380973,1.0002752388451674,0.000481470579386871
-0.47945129606378034,-0.47945129606378034,0.9999242095331636,0.0004791069764851021
-0.4793002888523915,-0.4793002888523915,0.9998627046139108,0.00047637741430489047
-0.47901482031084014,-0.47901482031084014,0.9998150092756749,0.0005048855140997387
-0.4788777893045335,-0.4788777893045335,0.9996720360122536,0.0005887963058453204
-0.4787798868957907,-0.4787798868957907,1.0001559098043296,0.0004977965421359735
-0.47851605666655816,-0.47851605666655816,0.9995074645149996,0.00045838495294751885
-0.4783851483603939,-0.4783851483603939,1.0006695666738779,0.0005558422728672133
-0.47829740757661054,-0.47829740757661054,0.9995204803061302,0.0005359021968461993
-0.4781640849891119,-0.4781640849891119,0.9998811006907058,0.0004913770177113189
-0.4779553713786299,-0.4779553713786299,1.000639684165836,0.0004900637990858752
-0.47777887222546267,-0.47777887222546267,1.000733811674652,0.0004819543569061959
-0.4776468382166058,-0.4776468382166058,0.9993069980383635,0.000513100103517541
-0.4775692773153423,-0.4775692773153423,0.999584992817067,0.0004445393185469033
-0.47728535409842154,-0.47728535409842154,1.0001237743025773,0.00047363430593574745
-0.4770937514673278,-0.4770937514673278,0.9996306904797037,0.0004892607930713995
-0.47691292149902437,-0.47691292149902437,0.9999663850252002,0.00048060793939789126
-0.4765897651181149,-0.4765897651181149,1.0003322203041063,0.00047102168112279013
-0.4765181118142209,-0.4765181118142209,0.9998445929891575,0.0005399974205402963
-0.4763544412482588,-0.4763544412482588,1.0002762238841734,0.0005118221620052505
-0.47618990394985306,-0.47618990394985306,0.9998933783011592,0.0004609621969093792
-0.4760435033524118,-0.4760435033524118,1.0007614263580389,0.00047409962058246873
-0.47586266216458173,-0.47586266216458173,1.0000101193522304,0.0005293511371220759
-0.4757464318063285,-0.4757464318063285,0.999430802219772,0.0004809719441124821
-0.47561885570030427,-0.47561885570030427,1.0004358081955445,0.0004725522513613238
-0.47542398919395057,-0.47542398919395057,1.0000487050007751,0.0004903233102283746
-0.4752621603562147,-0.4752621603562147,0.9997650973124028,0.0004909252263454719
-0.4750914962452953,-0.4750914962452953,1.0002305824806694,0.0005237178924821611
-0.4748176533146761,-0.4748176533146761,1.0007454054286726,0.00047343686038448624
-0.47465602072843466,-0.47465602072843466,1.0000874872844157,0.0005237480131077151
-0.4745291746221483,-0.4745291746221483,0.9997720984335208,0.0004669305088696352
-0.4743651070195483,-0.4743651070195483,1.0008438579858558,0.0005227684678770106
-0.47422471772661084,-0.47422471772661084,1.000656044417413,0.00046499081228125406
-0.47406929038697854,-0.47406929038697854,0.999829598535829,0.0004756022651258518
-0.4740113775238569,-0.4740113775238569,0.9996469792870804,0.0005232461842977647
-0.47382999965775524,-0.47382999965775524,0.9999346187783671,0.0004414830018413347
-0.4736391698046646,-0.4736391698046646,1.0005576196931756,0.0005103887851617565
-0.4734802405408118,-0.4734802405408118,0.9996374304286665,0.0005406341099956296
-0.4733541065499594,-0.4733541065499594,0.9997396849029976,0.0005343161019701569
-0.473188837190537,-0.473188837190537,0.9995515379226179,0.0005556996232574709
-0.4729144667500805,-0.4729144667500805,1.0005932883851247,0.00046667563356815356
-0.4727368597501481,-0.4727368597501481,1.0004060066180964,0.0005181352230808545
-0.4725863175619452,-0.4725863175619452,1.0001665706665315,0.00048519744318329674
-0.4724261846706213,-0.4724261846706213,1.0002864771272422,0.0004694903228617594
-0.4722499949246412,-0.4722499949246412,1.0000040392140583,0.0005736457756925022
-0.47212582578795265,-0.47212582578795265,1.000260962972325,0.00046112229073003353
-0.471934525197139,-0.471934525197139,0.9998328948556982,0.0004685414799116481
-0.47179712345750885,-0.47179712345750885,0.9999352460720446,0.0004963939325334011
-0.47164615917427,-0.47164615917427,1.0004024658556294,0.0005610467694435303
-0.47150405715728994,-0.47150405715728994,0.9989719265565649,0.0005795875681287638
-0.4713048651210556,-0.4713048651210556,1.0004116257318256,0.0005084583036861353
-0.4710786450821615,-0.4710786450821615,0.9999507620659589,0.0004811991145826637
-0.4708870431575633,-0.4708870431575633,1.0002115047440188,0.00051763109965146
-0.4707635148392001,-0.4707635148392001,1.0005029716774076,0.0004682437067961086
-0.4706251404510112,-0.4706251404510112,0.99947598128268,0.0004680457767877378
-0.47045906715138697,-0.47045906715138697,1.0001291183067258,0.0005309735396663688
-0.47030980935887784,-0.47030980935887784,0.9997051775950194,0.0005533452774337496
-0.4700613656335918,-0.4700613656335918,0.9994141501837568,0.00041091163787043304
-0.4699532993879984,-0.4699532993879984,0.9993509476119897,0.0005544327244519628
-0.4698097936816339,-0.4698097936816339,0.9998862141104878,0.0005047340060128759
-0.46967453978504636,-0.46967453978504636,1.0001907362041336,0.0005383480068329178
-0.4695021979081503,-0.4695021979081503,1.0044011578690475,0.0005367933671271254
-0.4692081958964991,-0.4692081958964991,1.0002176861840477,0.00046647968717262913
-0.46899763218825685,-0.46899763218825685,1.0003640289989448,0.00050115241991404
-0.46886342584039087,-0.46886342584039087,0.9996803942368897,0.0004735539193540373
-0.468771396100783,-0.468771396100783,1.0001790366598013,0.0005941366848896334
-0.46868591783568264,-0.46868591783568264,1.0002346287459598,0.0005279846049116976
-0.4685780102961871,-0.4685780102961871,1.0000257481700818,0.000512310345342999
-0.4682830969177303,-0.4682830969177303,1.000149973315392,0.00048082252511258476
-0.4681366332290054,-0.4681366332290054,1.000393724834563,0.0004874367330495382
-0.46791951813502236,-0.46791951813502236,1.0001600889218105,0.0005186425966030859
-0.4677657988439023,-0.4677657988439023,1.0000225450176352,0.0005152269209491152
-0.46759074490692,-0.46759074490692,1.0002139700441997,0.000487580430193687
-0.4673541925585596,-0.4673541925585596,0.9991954344729395,0.0004850769286566652
-0.4671284296884551,-0.4671284296884551,1.0001049304406202,0.0005024949133646067
-0.46697796235457645,-0.46697796235457645,0.9982704495490763,0.0004973423069353719
-0.466858685643092,-0.466858685643092,1.0000696608926647,0.0005282152122305756
-0.46672180439491057,-0.46672180439491057,0.9999242039712091,0.0005322178748676222
-0.46639334009232697,-0.46639334009232697,1.0004171219659428,0.00044657165383880866
-0.4662529358523898,-0.4662529358523898,0.9997097096045084,0.00047257576038024323
-0.466113892665453,-0.466113892665453,1.002785811444077,0.0004907895561304048
-0.46597098091297084,-0.46597098091297084,0.9999046885491634,0.0005350570815271287
-0.46568655115697766,-0.46568655115697766,0.999828198907004,0.0004943498906476043
-0.46534755011380186,-0.46534755011380186,1.0002466680213467,0.00046457856556991024
-0.4652309901524859,-0.4652309901524859,1.0002746975364893,0.0005340671944841851
-0.4650898068051902,-0.4650898068051902,0.9999460323540955,0.0004989838099881364
-0.4649471262331645,-0.4649471262331645,0.9997329136970293,0.0005195350830959324
-0.4646866552233405,-0.4646866552233405,1.0001308963955773,0.0005338518636286173
-0.46450096939370267,-0.46450096939370267,1.0015742879515823,0.0005175814234986537
-0.46436653678756556,-0.46436653678756556,1.0003591927961348,0.000449915039196114
-0.46424031949864003,-0.46424031949864003,1.0004247791454415,0.000479076281394776
-0.464102848937182,-0.464102848937182,1.000327023902225,0.0005255112994898644
-0.46377157268143493,-0.46377157268143493,0.9997591705486684,0.0005523488091285486
-0.4635098365630256,-0.4635098365630256,1.0002405688925649,0.0004622876609891383
-0.46340081475427725,-0.46340081475427725,1.0002808651560287,0.00047365085492454516
-0.46328875524777685,-0.46328875524777685,0.9995841677391366,0.0005714217506080368
-0.46319211721565806,-0.46319211721565806,0.9997281384807183,0.000495080234853522
-0.4629915052857541,-0.4629915052857541,0.9995134761931175,0.0005644346045745601
-0.462843107394292,-0.462843107394292,0.9994904545264781,0.00048539330928669335
-0.4625669044951792,-0.4625669044951792,0.99946053935566,0.00044476190370297357
-0.46240464388465624,-0.46240464388465624,1.000051745150337,0.00047600820133738815
-0.4622410164156463,-0.4622410164156463,0.9996401616639661,0.0004754324956677827
-0.46210258155551853,-0.46210258155551853,0.9994616841097319,0.0005712740225355713
-0.46186528122489107,-0.46186528122489107,1.0002194078174733,0.00047813567859465316
-0.4616733590977674,-0.4616733590977674,1.0003743324951722,0.0004722713188588478
-0.4615479110310844,-0.4615479110310844,0.999644140952525,0.0005090775415049632
-0.4614334370766301,-0.4614334370766301,0.9998573432555415,0.0005147026237249657
-0.4612745649785211,-0.4612745649785211,1.000392901022749,0.0004760640290370737
-0.46107955875559126,-0.46107955875559126,0.9998935670934953,0.0005434860020840267
-0.46093636279547356,-0.46093636279547356,0.9998319339068715,0.00045935568837786377
-0.46064252086507623,-0.46064252086507623,0.9998615773379737,0.00047282391959412577
-0.4605040835624095,-0.4605040835624095,0.9995896316615622,0.0005518173260629656
-0.4603571901396208,-0.4603571901396208,1.0000886449223771,0.00046860273375677944
-0.46008732049303946,-0.46008732049303946,1.000308725874173,0.0004906533420537893
-0.45989830848411656,-0.45989830848411656,1.0012660123646748,0.0005087623739939279
-0.4598084051969636,-0.4598084051969636,1.0003181249838984,0.0005373151541559577
-0.45972026191448095,-0.45972026191448095,0.9996310558537702,0.0004922788147149499
-0.4595707815911737,-0.4595707815911737,1.0004548313456023,0.00044497845705353343
-0.4593128331609478,-0.4593128331609478,1.0002672591755202,0.0004938307595729509
-0.4591826586969546,-0.4591826586969546,0.9997028091180413,0.0005079211225891582
-0.4589075601179502,-0.4589075601179502,0.9999999825573141,0.00046935787591966444
-0.4587490638674353,-0.4587490638674353,1.0007416415615535,0.0004932557056964901
-0.45860065870947436,-0.45860065870947436,1.0005057117279428,0.0004967259605529568
-0.45847043568937806,-0.45847043568937806,1.0004044428566943,0.0005351436920974111
-0.45816965288104256,-0.45816965288104256,1.0005996546937361,0.0005284835299981985
-0.4580212694199872,-0.4580212694199872,1.0001455124938052,0.0004935969454756694
