time,time,flux,flux_err
-0.49988254968169105,-0.49988254968169105,0.9987626440986784,6.217421671434943e-05
-0.49971402876690263,-0.49971402876690263,0.9989963060035691,5.723677697797835e-05
-0.4995819248026237,-0.4995819248026237,0.9997469139824618,5.718870068026761e-05
-0.4994080525939353,-0.4994080525939353,0.9999949643377335,5.73489500996719e-05
-0.49929960848967314,-0.49929960848967314,0.998764329470036,5.696649616298707e-05
-0.4991501950484235,-0.4991501950484235,1.000138495854186,5.6383174225565946e-05
-0.4991062393441098,-0.4991062393441098,0.9996370876825763,5.646498740717377e-05
-0.49899661942909007,-0.49899661942909007,0.9994008863437008,5.7674294924170735e-05
-0.49889324265968754,-0.49889324265968754,0.9992211872429795,5.710105565543127e-05
-0.49876459111110305,-0.49876459111110305,0.9990803781441466,5.728181714956652e-05
-0.4986360527851502,-0.4986360527851502,0.999467042618352,5.696297887178005e-05
-0.498415369776194,-0.498415369776194,0.9989396479481785,5.6281168024916414e-05
-0.4983080813806737,-0.4983080813806737,0.9994241726311953,5.697655302424506e-05
-0.498159545098315,-0.498159545098315,1.0001045335611887,5.694106513326407e-05
-0.49803541772416793,-0.49803541772416793,0.9999247977002022,5.725286149044337e-05
-0.4978945299939369,-0.4978945299939369,0.9983591599737194,5.7099790922986986e-05
-0.4977401876458316,-0.4977401876458316,0.9991949754632488,5.738021179318111e-05
-0.4975692171166884,-0.4975692171166884,0.9992615280295662,5.692440007792734e-05
-0.4974827400888898,-0.4974827400888898,1.0000581727002151,5.772701205446547e-05
-0.49733611910196485,-0.49733611910196485,0.9990765734458258,5.6813450408540305e-05
-0.4971638130300562,-0.4971638130300562,0.999096166616256,5.696783082762747e-05
-0.4969474043289665,-0.4969474043289665,0.9991534599495709,5.67398355686217e-05
-0.4967148139694473,-0.4967148139694473,0.999698407753059,5.692878038053398e-05
-0.4965574613466742,-0.4965574613466742,0.999421011249835,5.7017209647165364e-05
-0.4964039619182586,-0.4964039619182586,0.9996109704616384,5.708837009895729e-05
-0.4962844326029881,-0.4962844326029881,0.9988492743645022,5.700725211174695e-05
-0.49609140250104244,-0.49609140250104244,0.9998960436366984,5.696740242296288e-05
-0.49593085229425926,-0.49593085229425926,0.9988649664201441,5.6865828239993006e-05
-0.49584825678612104,-0.49584825678612104,0.9999126139066989,5.700682647986026e-05
-0.49573158438142856,-0.49573158438142856,0.9985719209275183,5.69131904969783e-05
-0.49562646293634316,-0.49562646293634316,0.9990513773713993,5.6110610043624106e-05
-0.49544744020095094,-0.49544744020095094,0.9987128578385152,5.635424091363883e-05
-0.49535214902280134,-0.49535214902280134,0.9994358434734855,5.645411345427756e-05
-0.4951799201880931,-0.4951799201880931,0.9990119841111438,5.638379725963291e-05
-0.4950846311694477,-0.4950846311694477,0.9986465212059041,5.6697863132660535e-05
-0.49500496611290146,-0.49500496611290146,1.000613482027061,5.7706022975555966e-05
-0.4948673260747455,-0.4948673260747455,0.999189862679487,5.692779229405933e-05
-0.49477311057562473,-0.49477311057562473,0.9990682434140705,5.667239234567219e-05
-0.4946358040717314,-0.4946358040717314,0.9985362381528928,5.621826767291412e-05
-0.4944919926696457,-0.4944919926696457,0.9996471636986286,5.731516911293906e-05
-0.494366455290583,-0.494366455290583,0.9993241276982449,5.6992426383291046e-05
-0.49425521418597784,-0.49425521418597784,0.9994634175657501,5.802748534259812e-05
-0.4938903687550919,-0.4938903687550919,0.9991168444680518,5.658888452798019e-05
-0.49372463544277706,-0.49372463544277706,0.999193732129753,5.737720760217303e-05
-0.4935746115326765,-0.4935746115326765,0.9992765110221006,5.696636723254918e-05
-0.49350403996941167,-0.49350403996941167,0.9988693824747855,5.665020962495391e-05
-0.4933513260039035,-0.4933513260039035,0.9989832650744846,5.668369392661023e-05
-0.49317087601230014,-0.49317087601230014,0.9995632064375771,5.68256692017922e-05
-0.4930012181139318,-0.4930012181139318,0.9993395967762575,5.665177552858675e-05
-0.4929224500301643,-0.4929224500301643,0.999791108514802,5.753451677012034e-05
-0.4928050816466566,-0.4928050816466566,0.9992908573677941,5.684274507402808e-05
-0.4926642609629198,-0.4926642609629198,0.999262371218486,5.783537520837374e-05
-0.4925462836632505,-0.4925462836632505,0.9997461350782313,5.686796536830903e-05
-0.49245205719780644,-0.49245205719780644,0.9989175907484455,5.690532511616797e-05
-0.4923535865746089,-0.4923535865746089,0.9995447538546713,5.7547878414818324e-05
-0.49223707527416993,-0.49223707527416993,0.9985564394960379,5.669695104753271e-05
-0.49214857524057154,-0.49214857524057154,0.9988020644176917,5.6682126885816765e-05
-0.4920212825672934,-0.4920212825672934,0.9992225834917065,5.68510767605474e-05
-0.4918299980054144,-0.4918299980054144,0.9992709210924551,5.62588996202094e-05
-0.49165109613823005,-0.49165109613823005,0.9994394321789171,5.6871440521674794e-05
-0.49146871208795345,-0.49146871208795345,0.9979814750962257,5.672562658291209e-05
-0.491342610924039,-0.491342610924039,0.9986865959587263,5.6731665458812935e-05
-0.49119762978371,-0.49119762978371,0.9988913484871537,5.73843631893741e-05
-0.4910949205281213,-0.4910949205281213,0.9995817723426089,5.6710856417060455e-05
-0.4909017601137748,-0.4909017601137748,0.9991245279583738,5.623545667456419e-05
-0.4907447234319989,-0.4907447234319989,0.998361754903827,5.6532532743135014e-05
-0.49060014326823875,-0.49060014326823875,0.9993800558955291,5.696032833711334e-05
-0.49046099848055746,-0.49046099848055746,0.9995664558582258,5.6909679639257186e-05
-0.49036232905637006,-0.49036232905637006,0.9984976958466764,5.675088884589384e-05
-0.49023777447437167,-0.49023777447437167,0.9989357399452687,5.644977859239808e-05
-0.49012427483539794,-0.49012427483539794,0.9992796697483186,5.679077598040144e-05
-0.4899121764639858,-0.4899121764639858,0.9993471085257252,5.7167295342766645e-05
-0.4898200796713354,-0.4898200796713354,0.9988317934162966,5.7194324311634766e-05
-0.48974450493115,-0.48974450493115,0.9987744134352278,5.6807079298737885e-05
-0.48959111165750074,-0.48959111165750074,0.9992628104656986,5.7373725851459824e-05
-0.4894156018839567,-0.4894156018839567,0.9990765793440886,5.703668037265805e-05
-0.48927562589524315,-0.48927562589524315,0.9990966151148868,5.755678160403754e-05
-0.48906609074474544,-0.48906609074474544,0.9986110037809987,5.606434891599027e-05
-0.48893753512093097,-0.48893753512093097,0.998330354508741,5.682741998643002e-05
-0.4888353564005229,-0.4888353564005229,0.9986701536665483,5.7125544676547184e-05
-0.4886120043491246,-0.4886120043491246,0.9982928884144646,5.730686722928473e-05
-0.4885082443768624,-0.4885082443768624,0.9993898873597544,5.685420648456837e-05
-0.4883750279652304,-0.4883750279652304,0.9989562058397068,5.704117480431923e-05
-0.48822708690859146,-0.48822708690859146,0.9991794149112705,5.7173662338664407e-05
-0.488069165989873,-0.488069165989873,0.9988015062957265,5.6790368278433564e-05
-0.4879146236969973,-0.4879146236969973,0.998801928155423,5.724950846164722e-05
-0.4877554951919592,-0.4877554951919592,0.9992633566573159,5.6648494529009916e-05
-0.48761447237338873,-0.48761447237338873,0.998397856925067,5.7323804057168916e-05
-0.4874904322481598,-0.4874904322481598,0.9989689213812479,5.705520983558973e-05
-0.48737630011164584,-0.48737630011164584,0.9993453171754048,5.683147965995947e-05
-0.48723859553138027,-0.48723859553138027,1.0001585031881641,5.750910540991208e-05
-0.48711567153513896,-0.48711567153513896,0.9983559288780104,5.653361728954968e-05
-0.48693074194598013,-0.48693074194598013,0.9987416612303294,5.660253251984599e-05
-0.4868520388408797,-0.4868520388408797,0.9995795596397207,5.677286822199948e-05
-0.4867207873117877,-0.4867207873117877,0.9983968971322883,5.6855869260054274e-05
-0.486592424295668,-0.486592424295668,0.9985833632632233,5.7193387061375063e-05
-0.4864324045760441,-0.4864324045760441,0.9995432302349639,5.7081979268949043e-05
-0.4862691192131024,-0.4862691192131024,0.999106731169587,5.71847685225708e-05
-0.48616060877247946,-0.48616060877247946,0.9998197099748192,5.675943668545715e-05
-0.48604230111668584,-0.48604230111668584,0.9991688337761179,5.7896123514746326e-05
-0.4859551417452167,-0.4859551417452167,0.9990405996960071,5.6825066515821373e-05
-0.48577842696686274,-0.48577842696686274,0.999423313414944,5.658140561282182e-05
-0.48552049338322834,-0.48552049338322834,0.9991291015467503,5.681595149383422e-05
-0.4853054904786404,-0.4853054904786404,0.9986647079607895,5.906448927273446e-05
-0.48513007063156693,-0.48513007063156693,0.9998476471660739,5.704542877301532e-05
-0.48494239573192316,-0.48494239573192316,0.9986566391917862,5.700601270523474e-05
-0.4847819700284163,-0.4847819700284163,0.999408126211366,5.735864273553406e-05
-0.4845841242276947,-0.4845841242276947,0.9983868187525152,5.7143714701151334e-05
-0.4844529223162681,-0.4844529223162681,0.9989895762633021,5.676639665574871e-05
-0.4842952446662821,-0.4842952446662821,0.9989895127033686,5.6945394604094495e-05
-0.48411506718985037,-0.48411506718985037,0.9992112260511492,5.7318456657959056e-05
-0.4839712449393119,-0.4839712449393119,0.9976975826594415,5.650422728302981e-05
-0.48388081015727946,-0.48388081015727946,0.999058384987161,5.645726137352991e-05
-0.48372260306496173,-0.48372260306496173,0.999794152010429,5.6014043890942485e-05
-0.48362079574144445,-0.48362079574144445,0.999085302236914,5.74037435682257e-05
-0.4835158511254122,-0.4835158511254122,0.9988865280424928,5.784470225970106e-05
-0.4834029186560656,-0.4834029186560656,0.9989142876933712,5.7160747782175775e-05
-0.48331039958138716,-0.48331039958138716,0.9987796479769513,5.645533357765435e-05
-0.4831558800433413,-0.4831558800433413,0.9995027331688974,5.6279398590320845e-05
-0.4830303022594308,-0.4830303022594308,0.9986289798448924,5.689831256679356e-05
-0.48291605310951125,-0.48291605310951125,1.0003379690456153,5.7233486377655035e-05
-0.48276074147579495,-0.48276074147579495,0.9987018194537924,5.829239556202686e-05
-0.48248631686437876,-0.48248631686437876,0.9990116097414262,5.699156721050888e-05
-0.4823067197445198,-0.4823067197445198,0.9998562179830028,5.724829128967315e-05
-0.48212240463035416,-0.48212240463035416,0.9988817702555508,5.7102721524082204e-05
-0.48205023525224533,-0.48205023525224533,0.9996912835663728,5.649487313750912e-05
-0.481925781982136,-0.481925781982136,0.9994627147792678,5.6708924322750345e-05
-0.4817204839142505,-0.4817204839142505,0.9992168225906616,5.653049831877412e-05
-0.481593253063329,-0.481593253063329,0.9995114273027201,5.711469659921487e-05
-0.48148643433669347,-0.48148643433669347,0.9998105111334011,5.770235604050766e-05
-0.48133699703030286,-0.48133699703030286,0.9994641881258296,5.707958233202783e-05
-0.4812203041583416,-0.4812203041583416,0.9996581075863615,5.702974812089236e-05
-0.48111463996610837,-0.48111463996610837,0.9998223186785827,5.698606221618168e-05
-0.4810078376365709,-0.4810078376365709,0.9991113719604039,5.678927712560353e-05
-0.48091630307317246,-0.48091630307317246,0.9983132503277512,5.6819657230342e-05
-0.4808316745693446,-0.4808316745693446,0.9997328793859346,5.7510379138860264e-05
-0.4807047821886954,-0.4807047821886954,0.9987937856730615,5.615420179951574e-05
-0.4805367312510498,-0.4805367312510498,0.9995908377091623,5.6830225370951586e-05
-0.48037930579448584,-0.48037930579448584,0.9995749479606424,5.6682088524933434e-05
-0.4802320677816169,-0.4802320677816169,0.9996546944606045,5.6843648055076546e-05
-0.48009583008533807,-0.48009583008533807,1.0001490517578744,5.7072619363412796e-05
-0.4799657026262139,-0.4799657026262139,1.0005086769204667,5.692939111548355e-05
-0.4798681704880437,-0.4798681704880437,0.9991052959046846,5.6460679209882515e-05
-0.4797341641460662,-0.4797341641460662,0.9991374481069188,5.704713206334585e-05
-0.4796688845017343,-0.4796688845017343,0.9995486651661306,5.74071523561533e-05
-0.47937912315828723,-0.47937912315828723,0.9997022531614052,5.632145264259506e-05
-0.47914805902255464,-0.47914805902255464,0.9990345553484247,5.719449182737757e-05
-0.4790207138343249,-0.4790207138343249,0.9992468922204063,5.62966156010555e-05
-0.4789174227116746,-0.4789174227116746,0.9998090137760653,5.649266410683707e-05
-0.4787777346326038,-0.4787777346326038,0.9996935013045254,5.707096044414769e-05
-0.4786709355234052,-0.4786709355234052,0.9991024470492749,5.661684742541466e-05
-0.4785260949851363,-0.4785260949851363,0.9993012788101179,5.718821638494807e-05
-0.47838006616511847,-0.47838006616511847,0.9995772875649738,5.727950278102205e-05
-0.47831447875214506,-0.47831447875214506,1.0002756310945506,5.764161702295357e-05
-0.4781730839633383,-0.4781730839633383,0.9990339973184301,5.704036565299171e-05
-0.4779974405784742,-0.4779974405784742,0.9989314790545812,5.732351401630178e-05
-0.4779134318974684,-0.4779134318974684,0.9994919465379752,5.7285337340327294e-05
-0.4777572386752581,-0.4777572386752581,0.9981400717494175,5.753634059086983e-05
-0.47759761046472704,-0.47759761046472704,0.9997446334625962,5.645635012778978e-05
-0.47746882407955127,-0.47746882407955127,0.9993590704424509,5.7215214564723804e-05
-0.47737306845956484,-0.47737306845956484,0.9999561974630362,5.7067404026463884e-05
-0.4771789112593979,-0.4771789112593979,0.9997474238976777,5.6936354861022984e-05
-0.47706691453058736,-0.47706691453058736,0.9983815662239394,5.728605208938234e-05
-0.47696424912282964,-0.47696424912282964,0.9989585362840504,5.709526367110164e-05
-0.476810658328759,-0.476810658328759,0.9992969625849168,5.666582785136014e-05
-0.4766696983031579,-0.4766696983031579,0.9990729733345887,5.723718730504424e-05
-0.4765129340128624,-0.4765129340128624,0.9989738490626283,5.676757336042222e-05
-0.47635214897745753,-0.47635214897745753,0.9995901780039386,5.754575184648592e-05
-0.4762579501068103,-0.4762579501068103,0.9995985735984796,5.584051755299752e-05
-0.4761030105524696,-0.4761030105524696,0.9994712681802959,5.700035391328585e-05
-0.4759732190883369,-0.4759732190883369,0.9998771335601064,5.715066357099894e-05
-0.4758421182428719,-0.4758421182428719,0.998638165676841,5.6891052634917646e-05
-0.4757560649537481,-0.4757560649537481,0.9995525713047867,5.626048838961482e-05
-0.47570701332442694,-0.47570701332442694,0.9980952992036615,5.796678463518048e-05
-0.4754750346299261,-0.4754750346299261,0.9985966412750835,5.633570536043964e-05
-0.4753535914365784,-0.4753535914365784,0.999334240521347,5.6973057061819054e-05
-0.4752354836818995,-0.4752354836818995,1.0014330823715543,5.702167520601503e-05
-0.4751230231282534,-0.4751230231282534,0.9993656454350381,5.699911770209418e-05
-0.47496693296561715,-0.47496693296561715,0.9990060709331896,5.6739815930279186e-05
-0.4748166172314086,-0.4748166172314086,1.0001775491990326,5.713930994633162e-05
-0.47472123238403585,-0.47472123238403585,0.9999612845835546,5.7136250967079587e-05
-0.4746186216259957,-0.4746186216259957,0.9995176540921932,5.720597168153851e-05
-0.4745015503664035,-0.4745015503664035,0.9991343907304178,5.762616844356236e-05
-0.47438122672319877,-0.47438122672319877,0.9996404778559107,5.658064016156671e-05
-0.4742071760032559,-0.4742071760032559,0.9993085279412254,5.6821865441529466e-05
-0.47387290492333706,-0.47387290492333706,0.9999117303881283,5.6942321923613693e-05
-0.473673612557468,-0.473673612557468,0.998689788694772,5.7005513859318934e-05
-0.47349354611797023,-0.47349354611797023,0.9993394193849617,5.69781079759607e-05
-0.4732778453209903,-0.4732778453209903,0.9991129345132368,5.6942692466088645e-05
-0.47311001226044025,-0.47311001226044025,1.0002441335161927,5.710556025865e-05
-0.47297292927105444,-0.47297292927105444,0.9994196827737616,5.718575159808027e-05
-0.4727683173798141,-0.4727683173798141,0.9988641141302598,5.782513345103192e-05
-0.4726520120006171,-0.4726520120006171,0.999188102486074,5.671454722635151e-05
-0.4725046658117208,-0.4725046658117208,0.9993136634879244,5.658841569978288e-05
-0.47234911273408214,-0.47234911273408214,0.9992346989227936,5.682287887213867e-05
-0.47223900655371837,-0.47223900655371837,0.9990969088248883,5.6497578665174275e-05
-0.4721655675501097,-0.4721655675501097,0.9987250485937089,5.672246718425771e-05
-0.47205726147512905,-0.47205726147512905,0.9977153348941569,5.7282684639978395e-05
-0.4719501464132918,-0.4719501464132918,0.9995064126549209,5.6756516313191444e-05
-0.4718382437175023,-0.4718382437175023,0.9990590593824958,5.697616313499424e-05
-0.47173953045275996,-0.47173953045275996,0.9999081475232892,5.637216839814633e-05
-0.47157067926746093,-0.47157067926746093,0.9988608707034802,5.6582806026611044e-05
-0.4714596341436845,-0.4714596341436845,0.9992220990067301,5.7198339258722125e-05
-0.4713026488869218,-0.4713026488869218,0.9993211557053179,5.890705250755479e-05
-0.47108505722280825,-0.47108505722280825,0.9989999499972522,5.657395462896525e-05
-0.47088662606693105,-0.47088662606693105,1.0004585116868867,5.7580488183656675e-05
-0.47070420820091385,-0.47070420820091385,0.9999841475240017,5.6828419963805734e-05
-0.4706169271026738,-0.4706169271026738,0.9987845394420342,5.677991778327292e-05
-0.4704517596968799,-0.4704517596968799,0.9991015687733029,5.624455121219441e-05
-0.4702562911901623,-0.4702562911901623,0.9990241462029497,5.722569953772157e-05
-0.47016070995741754,-0.47016070995741754,0.9991988480106446,5.665007772764093e-05
-0.47003688328550197,-0.47003688328550197,0.9996979626168845,5.76962135140612e-05
-0.46986448260431646,-0.46986448260431646,0.9992263820876559,5.6500324849360916e-05
-0.4697735369350994,-0.4697735369350994,1.000102942967869,5.699990410550041e-05
-0.4697191414030385,-0.4697191414030385,0.9983190567437653,5.698709075521623e-05
-0.469519133985159,-0.469519133985159,0.9993887757838884,5.70630790672297e-05
-0.4694691772412625,-0.4694691772412625,0.9988060100566198,5.649020392641466e-05
-0.4693721932169865,-0.4693721932169865,0.9995469083205354,5.722900582729656e-05
-0.4692475772506441,-0.4692475772506441,0.9993548212822487,5.644278005247464e-05
-0.46905407678568733,-0.46905407678568733,0.9989805619165708,5.742168052733073e-05
-0.46893618829053596,-0.46893618829053596,0.9988506610868502,5.615772221799851e-05
-0.4688093556542299,-0.4688093556542299,0.9991722932399479,5.718919479896059e-05
-0.46864043408131695,-0.46864043408131695,0.998877199339837,5.683332649909008e-05
-0.4684911576769082,-0.4684911576769082,0.9985640205955724,5.664180176455649e-05
-0.4683890707732644,-0.4683890707732644,0.9996043776470092,5.710103920420852e-05
-0.4682773178865318,-0.4682773178865318,0.9999878766167868,5.733727707506333e-05
-0.468166889299755,-0.468166889299755,0.9996018562218781,5.6799211865345515e-05
-0.46786531868128806,-0.46786531868128806,0.9999908970218359,5.666277559231737e-05
-0.46765942570200425,-0.46765942570200425,1.000102482112252,5.722374930144755e-05
-0.4675382748217089,-0.4675382748217089,0.9994344045203402,5.645337824307002e-05
-0.4674377860006643,-0.4674377860006643,0.999324804562858,5.688269343675042e-05
-0.46728577062604015,-0.46728577062604015,0.9993854962853626,5.671816662496222e-05
-0.46716898894665065,-0.46716898894665065,0.9993007098647773,5.707484063417581e-05
-0.4670061831449857,-0.4670061831449857,0.9991808066620276,5.683611926717557e-05
-0.46687745711678874,-0.46687745711678874,0.9996117374808575,5.786083973592415e-05
-0.46680016048339895,-0.46680016048339895,0.998562201899064,5.758305134643816e-05
-0.4666444697868428,-0.4666444697868428,0.9992341643895228,5.714305055887263e-05
-0.466526195681945,-0.466526195681945,0.9994501267730547,5.6445939611792925e-05
-0.46644791164726485,-0.46644791164726485,0.9991848922783559,5.71699206668048e-05
-0.4663593364559347,-0.4663593364559347,0.9986769394105682,5.709051923749081e-05
-0.4662418938591145,-0.4662418938591145,0.9993717659398833,5.707784326753106e-05
-0.4660940591231338,-0.4660940591231338,0.9995368563831271,5.7057111956130496e-05
-0.46596934514091115,-0.46596934514091115,0.9992845338794962,5.724921229628646e-05
-0.4658567154532648,-0.4658567154532648,0.9991023686273668,5.684911880277791e-05
