time,time,flux,flux_err
-0.49956492020707327,-0.49956492020707327,0.9994980310774698,0.0003951050452462913
-0.49925987477945455,-0.49925987477945455,0.999958177120147,0.0003919032226229412
-0.4985187974719641,-0.4985187974719641,1.000129696362375,0.0003889773134501538
-0.49818780548739594,-0.49818780548739594,1.0003518686988013,0.00036513314965646833
-0.49762464232335335,-0.49762464232335335,1.0001858288508827,0.00036410719986696316
-0.4972575397390756,-0.4972575397390756,0.9999191861791259,0.0003630845474911012
-0.49676349820074395,-0.49676349820074395,0.9994250614769186,0.00037200531213091575
-0.49641263319499557,-0.49641263319499557,1.0003783411350893,0.0003530184326580816
-0.49589338723235415,-0.49589338723235415,1.0000090854101955,0.0003531517223396114
-0.495593362726504,-0.495593362726504,1.0001799558561055,0.0003639918696950479
-0.49503595526111893,-0.49503595526111893,1.0005071833507757,0.00035603687565002667
-0.4947556676263048,-0.4947556676263048,0.9995726349329397,0.00036180192400992394
-0.494188902273163,-0.494188902273163,1.0001256011128543,0.00036785702860341133
-0.4938713630763232,-0.4938713630763232,1.0000036434184034,0.0003537241168075215
-0.4932368315450731,-0.4932368315450731,0.9999482288826609,0.0003554800649913322
-0.4926650711633556,-0.4926650711633556,0.9994601116193866,0.00034422565644731223
-0.4921158934892446,-0.4921158934892446,1.0001500526454967,0.00034655732799901076
-0.49136039469522075,-0.49136039469522075,1.0001075272601407,0.0003456612098688195
-0.4908321495146083,-0.4908321495146083,0.9997254286335225,0.00037497026238503945
-0.4902982886778773,-0.4902982886778773,0.9999625640845761,0.00034869988926805964
-0.48984375246436684,-0.48984375246436684,0.9996638055726692,0.0003499158439902809
-0.4891218931938056,-0.4891218931938056,1.0005114162657516,0.0003633954554360892
-0.48827207273134265,-0.48827207273134265,1.0000528681453975,0.0003657016317716897
-0.4873136415561021,-0.4873136415561021,1.0004526039460955,0.00035900104920898396
-0.48609788563117035,-0.48609788563117035,0.9993934080182212,0.0003701078453290229
-0.4852558249418507,-0.4852558249418507,0.9995470765332799,0.000351026149370902
-0.48462544710127986,-0.48462544710127986,1.0003486569372306,0.0003695121630433417
-0.4841885314977844,-0.4841885314977844,1.0004024014813488,0.000385324895855114
-0.48352801963483216,-0.48352801963483216,0.9999312611600285,0.00036642990989193484
-0.4829193735160516,-0.4829193735160516,1.0003353500978762,0.00035920823428244866
-0.4823520218007616,-0.4823520218007616,1.0000332543105208,0.00039128216239585226
-0.481628134289349,-0.481628134289349,0.9999459722894649,0.00038099607447363747
-0.4810309482862067,-0.4810309482862067,1.000027074611404,0.0003747621571271691
-0.480278078946867,-0.480278078946867,1.0000024526851998,0.00037670950177530173
-0.47970591728080764,-0.47970591728080764,1.0001276559215586,0.0003564049301665701
-0.47922705026576295,-0.47922705026576295,1.0003374070451367,0.0003455464674531927
-0.4786861896274786,-0.4786861896274786,0.9997109550168053,0.00036744154811306674
-0.4783224044062081,-0.4783224044062081,1.0000301586997895,0.00034575259836532203
-0.47787568925559754,-0.47787568925559754,0.9998704208588487,0.0003802946646622756
-0.4774477088401909,-0.4774477088401909,0.9998951449254045,0.00034517906387007073
-0.4770351586739707,-0.4770351586739707,0.9994804195001252,0.00036709921914886156
-0.476678320409701,-0.476678320409701,1.0003430213861506,0.0003670417812357328
-0.4763363874211791,-0.4763363874211791,1.0004169188787873,0.0003616356188194003
-0.4758935230827774,-0.4758935230827774,0.9996248563400201,0.0003685920161959131
-0.4755081749710371,-0.4755081749710371,1.000361000002247,0.0003535229504599272
-0.4750139081239467,-0.4750139081239467,1.0000040074485268,0.0003760715508474172
-0.47473423275951065,-0.47473423275951065,0.9997447826641308,0.00032595322399265843
-0.47412894992303334,-0.47412894992303334,1.0002947337396233,0.00033376596531244616
-0.4738701010021032,-0.4738701010021032,0.9998574030358665,0.0003512408544428283
-0.47351370428950756,-0.47351370428950756,1.0000976920461364,0.0003357674391052827
-0.4731552843761165,-0.4731552843761165,0.9995746049042878,0.0003400780732177483
-0.4728852491978614,-0.4728852491978614,1.0000845462131402,0.0003454651403159255
-0.4724857224646257,-0.4724857224646257,0.9999870199930821,0.00033834233957160705
-0.4721001794292533,-0.4721001794292533,0.9997523953617188,0.00033951673966321316
-0.47167658494945497,-0.47167658494945497,0.9999635264350598,0.0003552295963762141
-0.4712166620098287,-0.4712166620098287,1.0001803566069078,0.0003399425684512912
-0.47071293257467917,-0.47071293257467917,1.0002305803109255,0.0003469669239544275
-0.4702069662569556,-0.4702069662569556,1.0003812871871158,0.00034187775867276684
-0.4697350867470959,-0.4697350867470959,1.000017216370177,0.0003604372060325193
-0.4693541726068361,-0.4693541726068361,0.9996360973898224,0.00036628742636047684
-0.4690155339987541,-0.4690155339987541,1.0002147388310993,0.000362544057306086
-0.4686907951014291,-0.4686907951014291,0.9997419418182834,0.00036745485311277077
-0.46830105943299716,-0.46830105943299716,1.0001093289575114,0.000340148595726835
-0.4678638540375687,-0.4678638540375687,1.000103314388429,0.00034540372641050487
-0.4674582231680688,-0.4674582231680688,1.0002715461707983,0.0003447328377666197
-0.4668616153052426,-0.4668616153052426,0.9999105572848389,0.0003603053195544204
-0.46653003684259603,-0.46653003684259603,0.9995660126260381,0.00035062010169093215
-0.4659828231684514,-0.4659828231684514,0.9999199389190154,0.00036044867488636676
-0.46562740976442,-0.46562740976442,0.9997638928691706,0.0003349169698920244
-0.4650233172578737,-0.4650233172578737,0.9999441683580794,0.0003513049519240218
-0.46473232334901693,-0.46473232334901693,0.9998592728341894,0.00034496984401908746
-0.46428530564226095,-0.46428530564226095,0.9998723676915893,0.00037884140820890156
-0.46386609627807046,-0.46386609627807046,0.9999259540581544,0.0003490505821219429
-0.4635623744004988,-0.4635623744004988,1.0000403624036014,0.0003603936458856076
-0.46310183515015524,-0.46310183515015524,1.000015859912054,0.00035154702888527797
-0.462936310954683,-0.462936310954683,0.9997132263602296,0.00036488619334417577
-0.46260489417472855,-0.46260489417472855,1.0002341653910198,0.0003609146537749721
-0.46206171618105146,-0.46206171618105146,0.9997642819371146,0.0003572100340482559
-0.4615773911085853,-0.4615773911085853,1.0001038909364715,0.0003617855170946633
-0.461150542289397,-0.461150542289397,1.0003261837272377,0.00034314461176488043
-0.460526186201605,-0.460526186201605,0.999580300384908,0.0003700776645785591
-0.4601681398591609,-0.4601681398591609,1.0006223307977014,0.00035240913474348816
-0.45951575684011914,-0.45951575684011914,0.9997008380003845,0.0003774723989863923
-0.4592978476888675,-0.4592978476888675,0.9998846718264133,0.00035460989878183366
-0.4586774778596009,-0.4586774778596009,1.0005668013781839,0.0003727817754936435
-0.45827324951824266,-0.45827324951824266,0.9995200569786888,0.0003528480803053815
-0.45774720473345953,-0.45774720473345953,1.0004183869888899,0.0003529094553044949
-0.4574967536755139,-0.4574967536755139,0.9999995800350903,0.000363913888101613
-0.4569825460290303,-0.4569825460290303,1.0005062534847433,0.00037096077863922524
-0.4567424913242576,-0.4567424913242576,1.000134677085729,0.0003617726468366124
-0.45639470135138255,-0.45639470135138255,1.0000116662388652,0.00037157421284370957
-0.45593086124499677,-0.45593086124499677,1.0003537044330035,0.0003498277723207271
-0.45555783430827435,-0.45555783430827435,0.9998525941183196,0.0003693737481599158
-0.45503839612792946,-0.45503839612792946,0.99999491933579,0.0003544204304922694
-0.45451892308483366,-0.45451892308483366,1.0003798044319576,0.0003441268760530277
-0.4539357964808005,-0.4539357964808005,0.9997237377361738,0.00035395418670796394
-0.45318085830222116,-0.45318085830222116,0.999666616729094,0.0003366238498933902
-0.45256204010584045,-0.45256204010584045,0.9995950599832202,0.00035855339081336844
-0.4519373638970137,-0.4519373638970137,0.9998520864520503,0.00033931708719103077
-0.4513789790136798,-0.4513789790136798,0.999922350303381,0.00034981610496268587
-0.4506782219992601,-0.4506782219992601,1.0001664551302567,0.0003656965010019399
-0.4497543476179999,-0.4497543476179999,1.0000973481291333,0.0003661657770767763
-0.4486468279217661,-0.4486468279217661,0.9995740068472584,0.0003589342758421041
-0.44772550784837223,-0.44772550784837223,0.999699556763139,0.00036362397905796625
-0.44708984734970725,-0.44708984734970725,0.9997128111766351,0.00036624427983859983
-0.44629047515481945,-0.44629047515481945,0.9997529202626175,0.0003655237840907334
-0.44551281866515635,-0.44551281866515635,0.9995922500061185,0.0003479264806369898
-0.44480601527538965,-0.44480601527538965,1.0002086447494993,0.0003758202153315913
-0.4441699495946523,-0.4441699495946523,1.000339870466278,0.00037548707046505537
-0.443326417478238,-0.443326417478238,0.9994783040208233,0.00038145868292802207
-0.4426901134203945,-0.4426901134203945,0.9999411911279387,0.0003828423540811809
-0.4420567044740892,-0.4420567044740892,0.9998915331697571,0.0003639429294027336
-0.44161584116372976,-0.44161584116372976,0.9998874803533602,0.00037369147469817665
-0.4410959246764833,-0.4410959246764833,0.9998127961271772,0.0003455181690835142
-0.4407421268384496,-0.4407421268384496,1.000113366970569,0.0003771350023945986
-0.4401784425288497,-0.4401784425288497,0.9999857187205835,0.00034578390321674446
-0.4396455916525156,-0.4396455916525156,0.999768639003285,0.00038619635970628136
-0.4393026997589914,-0.4393026997589914,0.9998176913497729,0.00034511195428586983
-0.4388705875004234,-0.4388705875004234,0.9999643703575434,0.0003741573903607051
-0.438388294653123,-0.438388294653123,1.0002856878625483,0.00034558450844036806
-0.43803569011288346,-0.43803569011288346,1.0002257676054254,0.0003601993922901965
-0.4376054883286997,-0.4376054883286997,1.0005640442154244,0.0003715792728774209
-0.4372922832269978,-0.4372922832269978,0.9999852772787268,0.0003521903192447226
-0.43685635313158855,-0.43685635313158855,1.0000419915582004,0.00036640792799246945
-0.4364062213244324,-0.4364062213244324,0.9999861235213416,0.00034219740318175906
-0.43588346375181575,-0.43588346375181575,1.000383145028159,0.00035426179557982845
-0.43567189151071944,-0.43567189151071944,0.9994677963408909,0.0003340425506815995
-0.4352614618932421,-0.4352614618932421,1.0005048937109315,0.0003472280595123866
-0.43487886142611387,-0.43487886142611387,0.9996019735162399,0.00035157772349101785
-0.4346414456682396,-0.4346414456682396,0.9995524653135565,0.0003312277247304651
-0.434173108318646,-0.434173108318646,1.0000608550129495,0.00034568103960808463
-0.43384439597430174,-0.43384439597430174,1.0002642724554272,0.000332092556548318
-0.4331704268079193,-0.4331704268079193,1.0005969659163108,0.0003566371175770712
-0.43277075537262133,-0.43277075537262133,0.9997949871988651,0.00033135844952013923
-0.43209240937940196,-0.43209240937940196,0.9998376494131751,0.00033425280586921896
-0.43151390145430923,-0.43151390145430923,0.9999325500935733,0.0003578871130884525
-0.43107574824389305,-0.43107574824389305,0.9999084890180775,0.0003407606587230323
-0.4306469375558663,-0.4306469375558663,1.0005214425910063,0.0003606080506242547
-0.4301598819445644,-0.4301598819445644,0.9998804457825301,0.00034038308304292257
-0.42982573744957336,-0.42982573744957336,0.9999112095856951,0.00037945606171905404
-0.42955760924596686,-0.42955760924596686,0.9997045081035469,0.000348846479196177
-0.42904919763168436,-0.42904919763168436,1.000391971356104,0.00036689332157414245
-0.42857528178574283,-0.42857528178574283,0.9995524860629994,0.000339058618842811
-0.42821220062396603,-0.42821220062396603,0.9999042253199445,0.00035231729635054794
-0.42764483923601804,-0.42764483923601804,0.9998228284098047,0.0003527872413274009
-0.42729040062840795,-0.42729040062840795,1.0001252726968937,0.00033841431458266844
-0.4266950196681137,-0.4266950196681137,1.000195226202201,0.0003716509223059248
-0.42649696951993976,-0.42649696951993976,0.9996710973355739,0.0003420602142129722
-0.4258072640397586,-0.4258072640397586,0.9995902791450323,0.00036974859829423695
-0.4256229587706912,-0.4256229587706912,1.0000849543833927,0.0003397164428396201
-0.42499968959818946,-0.42499968959818946,1.0002505123895942,0.00037097148149314846
-0.4248021402672748,-0.4248021402672748,1.0001540682783663,0.0003569113087578061
-0.42447267983370696,-0.42447267983370696,1.0003462312066222,0.00036282300638569153
-0.423988095203822,-0.423988095203822,0.9997192922349225,0.0003488887255273179
-0.4237762197481061,-0.4237762197481061,0.9997671953863204,0.000353557842822896
-0.4233086395688588,-0.4233086395688588,0.9995813926571351,0.00038989409550901216
-0.4229613332230656,-0.4229613332230656,0.9999066854030598,0.000351909069131114
-0.422504229615879,-0.422504229615879,1.0000163642513928,0.0003765144603583315
-0.42209391985306866,-0.42209391985306866,1.0003757115937304,0.0003432051623828352
-0.42146013100573326,-0.42146013100573326,1.0004594741275485,0.0003706342801585586
-0.42109730246083926,-0.42109730246083926,0.999885796224555,0.00035215433049336583
-0.42045106549048794,-0.42045106549048794,0.999979774611265,0.00036445951274655217
-0.4201457107606984,-0.4201457107606984,1.0002297576408494,0.00035176264690125206
-0.4196687362687953,-0.4196687362687953,0.9999822285835924,0.0003611082986500605
-0.41939115053464776,-0.41939115053464776,0.9997752092184922,0.0003542681538246364
-0.4188407686757273,-0.4188407686757273,0.9998983243254294,0.00036279830779703754
-0.4185334812354995,-0.4185334812354995,1.0001773734701516,0.00036785844164311416
-0.4180448385886848,-0.4180448385886848,0.9993702084106376,0.0003669884019916677
-0.4177354472099978,-0.4177354472099978,0.9995545130371152,0.0003556811914255614
-0.4173254808658385,-0.4173254808658385,0.9997861540129275,0.00036225932429290034
-0.4168753169411502,-0.4168753169411502,0.9999154542740103,0.000361093247667174
-0.41626961555957676,-0.41626961555957676,0.9994691207103011,0.00033611745678200093
-0.41559435828457936,-0.41559435828457936,1.00038256438735,0.00035799957380423244
-0.4149138853550539,-0.4149138853550539,1.0001076177455768,0.0003464821964407058
-0.4141323601157637,-0.4141323601157637,0.9999593402151964,0.0003311056101908066
-0.41356512532875056,-0.41356512532875056,0.9999326681579295,0.00036443928035720553
-0.41298335936298824,-0.41298335936298824,0.9997865884259006,0.0003347580355483079
-0.4124454586795764,-0.4124454586795764,0.9999843438166742,0.0003726118490108853
-0.4117972806030593,-0.4117972806030593,0.999840627385798,0.00035278888258442675
-0.410949193356646,-0.410949193356646,1.0002441546682141,0.00037115499792491334
-0.41031043595066874,-0.41031043595066874,1.000179738239598,0.0003588235478121875
-0.4092546757121454,-0.4092546757121454,0.9997766303803874,0.00035304737880918134
-0.40833611838534123,-0.40833611838534123,1.000125858239382,0.0003530472902113537
-0.4075194077231572,-0.4075194077231572,0.9998985486260292,0.00037488608854335684
-0.40689236013131447,-0.40689236013131447,0.999929514528802,0.0003662022520702818
-0.4061648946655623,-0.4061648946655623,1.0002824427449206,0.0003829289569625334
-0.4053301045911212,-0.4053301045911212,0.9998605488054094,0.0003728856457412502
-0.4046596847118053,-0.4046596847118053,1.0001414340687105,0.0003765644548552246
-0.40387028587792884,-0.40387028587792884,1.0001929137881749,0.0003765328771548369
-0.4032337231859856,-0.4032337231859856,1.0003505736470018,0.00038995813852260586
-0.40279332049467487,-0.40279332049467487,0.9995398705699096,0.00035848434911136455
-0.4021068050467875,-0.4021068050467875,0.9997568694597433,0.00034973821996402973
-0.4016183344705496,-0.4016183344705496,0.9998574272642543,0.0003787196757360926
-0.40111704212322363,-0.40111704212322363,1.0002630586304881,0.0003459665898829767
-0.4006167027597257,-0.4006167027597257,1.0007012707192167,0.00036543605049235337
-0.40017589887211213,-0.40017589887211213,1.0002185094644442,0.000354824730800428
-0.3997818051604554,-0.3997818051604554,0.999795390111888,0.0003730499456575146
-0.3994028356297349,-0.3994028356297349,0.9998298271563344,0.0003601085505489991
-0.39891928354118134,-0.39891928354118134,0.9998717250019196,0.0003592237216685024
-0.39849052042045513,-0.39849052042045513,0.9997314369128751,0.0003394863534459989
-0.3981600746199547,-0.3981600746199547,1.0002214374904355,0.0003820293749541175
-0.39772342995129295,-0.39772342995129295,1.0002638882898411,0.0003670989007192613
-0.39750507613280206,-0.39750507613280206,1.0001048518621332,0.0003339344159168829
-0.3971841400678386,-0.3971841400678386,1.0004428709021373,0.0003615222875741078
-0.3968072969677451,-0.3968072969677451,1.0003813642136858,0.0003378650298564156
-0.3965729744399141,-0.3965729744399141,0.9998302391793523,0.000345125169156398
-0.3961737634723249,-0.3961737634723249,1.0001985358791718,0.0003376402057335203
-0.3958237261918839,-0.3958237261918839,1.000137292672445,0.00035354553125629203
-0.3955189146909106,-0.3955189146909106,1.0000013443059477,0.00034521648427352197
-0.39497295732289783,-0.39497295732289783,0.9998134734924393,0.00033959673155383515
-0.3946095246916229,-0.3946095246916229,1.0003702686396987,0.0003511870122002897
-0.39424043700491895,-0.39424043700491895,1.000065612678323,0.0003592773795339439
-0.3937053871275566,-0.3937053871275566,1.0003142561802814,0.00034660278964121786
-0.3931750737618131,-0.3931750737618131,0.9998960047634557,0.00034361215421662794
-0.39280153313375193,-0.39280153313375193,1.0001117168053075,0.00035114864604855907
-0.39232128898438534,-0.39232128898438534,0.9998793284235241,0.00034977395909622014
-0.39194509955268586,-0.39194509955268586,0.9997958302488291,0.00035427041302256575
-0.3915675122574612,-0.3915675122574612,1.0004291177721276,0.00036902493026547237
-0.3912600774157909,-0.3912600774157909,0.9994351454418,0.00035515342616363697
-0.3907148491394764,-0.3907148491394764,1.0001490304100513,0.0003455658624004314
-0.3902575706204516,-0.3902575706204516,1.0005048696095138,0.00035340913132502594
-0.389577392226056,-0.389577392226056,1.0001950746824848,0.0003602472081621352
-0.3891688014817191,-0.3891688014817191,1.0000995956779914,0.00032942367129082606
-0.38856265522845207,-0.38856265522845207,0.9997757391955598,0.0003662408668507627
-0.38823681840949575,-0.38823681840949575,1.0002496703054078,0.00034319171022421897
-0.3875813882426883,-0.3875813882426883,1.0001999562377712,0.00035845496666478773
-0.38733951762187646,-0.38733951762187646,1.0006151017152893,0.0003587865960270976
-0.3867247598907852,-0.3867247598907852,0.9999736944941289,0.0003699469126763172
-0.3865615446382435,-0.3865615446382435,1.0000744825352534,0.0003398061915608738
-0.38602974094537784,-0.38602974094537784,1.0001286555206816,0.00036447069408504875
-0.38575991877441995,-0.38575991877441995,0.9998599170311028,0.00034951839590122716
-0.38554528685926925,-0.38554528685926925,1.0000681464850172,0.00036685099985918476
-0.3849865129872342,-0.3849865129872342,1.0001030316078132,0.0003637412365589504
-0.3846162433292193,-0.3846162433292193,1.0002197722782973,0.00035905993779724953
-0.3840360090594913,-0.3840360090594913,1.0004920962543538,0.0003489209256964399
-0.3836116432335984,-0.3836116432335984,1.0000317973764483,0.0003654650312001788
-0.38311063339424434,-0.38311063339424434,1.0000450511695986,0.00034103918671210315
-0.3826752829561883,-0.3826752829561883,0.9997895296980095,0.0003579609177688396
-0.38215088194046987,-0.38215088194046987,1.0002369155253907,0.00035265844807691726
-0.381686496756447,-0.381686496756447,1.0005612646031539,0.0003816575916310906
-0.38130944919830656,-0.38130944919830656,1.000343477008087,0.00035881708375128715
-0.38081171420417376,-0.38081171420417376,1.000647554938862,0.00035742220844833475
-0.3804475206510688,-0.3804475206510688,1.0005451249130122,0.0003734763916428894
