time,time,flux,flux_err
-0.49994456459826325,-0.49994456459826325,1.0001053574843721,8.216369807444686e-05
-0.4998021685431013,-0.4998021685431013,1.0000325786194026,8.571069959258012e-05
-0.4997004919365281,-0.4997004919365281,0.9999865799845393,8.251374111837151e-05
-0.499635031982325,-0.499635031982325,1.0000655666409792,8.154466939797324e-05
-0.49953208889928646,-0.49953208889928646,1.0000691631404461,8.440668897484159e-05
-0.4994311058835592,-0.4994311058835592,0.9999107340837705,8.659666108150919e-05
-0.4993352033285191,-0.4993352033285191,1.0000492520540494,8.336595758878034e-05
-0.4992399579554331,-0.4992399579554331,1.0000670257675632,8.288011446647243e-05
-0.4991392612049822,-0.4991392612049822,0.9999896713536132,8.268977562801594e-05
-0.49895862698322163,-0.49895862698322163,1.0000464335110306,8.529549522403686e-05
-0.49881807511264925,-0.49881807511264925,0.9999594479014784,8.345679596191222e-05
-0.4987418925622478,-0.4987418925622478,0.9999652984893206,8.220072777003988e-05
-0.4986100173933664,-0.4986100173933664,1.0001016149345596,8.362228399379866e-05
-0.49842965767893477,-0.49842965767893477,1.00012911865462,8.454722714434335e-05
-0.49833749945682937,-0.49833749945682937,1.0000493432573698,8.487874038078145e-05
-0.4982066335680429,-0.4982066335680429,1.0000989022567874,8.311366889243084e-05
-0.49809950616327114,-0.49809950616327114,0.9999019047861951,8.156312572179927e-05
-0.4979906225024024,-0.4979906225024024,1.0000233067640747,8.494898169218434e-05
-0.49787781388440633,-0.49787781388440633,1.000048294654304,8.404281804397264e-05
-0.49775111365306657,-0.49775111365306657,0.9999729023964923,8.297003526635266e-05
-0.49765024485823234,-0.49765024485823234,1.0000203438535635,8.321512680481567e-05
-0.4975447964126943,-0.4975447964126943,0.9999847855455444,8.363569605094709e-05
-0.4974563082563691,-0.4974563082563691,0.9999468430927447,8.492475915762988e-05
-0.4973147551034344,-0.4973147551034344,0.9999935126863481,8.372061607941482e-05
-0.49723674106353427,-0.49723674106353427,0.9999067574485023,8.414149615595026e-05
-0.4971707767865155,-0.4971707767865155,0.9999397842645813,8.205914729538723e-05
-0.49705646515067203,-0.49705646515067203,0.9999560066283066,8.281158628739189e-05
-0.4969406045420328,-0.4969406045420328,0.9999548381814078,8.377607928336216e-05
-0.4968492653657449,-0.4968492653657449,1.0000587552341222,8.470922690768798e-05
-0.49674049087043387,-0.49674049087043387,1.0001035453554112,8.425965220752739e-05
-0.4965470285358606,-0.4965470285358606,0.9998865010880987,8.657166185608321e-05
-0.4964451948355418,-0.4964451948355418,1.0001260731683603,8.274930578270084e-05
-0.49626680923101957,-0.49626680923101957,0.9999258110966812,8.406504032932392e-05
-0.4961505833431147,-0.4961505833431147,1.0000460188392062,8.191943268803541e-05
-0.49604550482181364,-0.49604550482181364,1.0000444092834937,8.484977118509258e-05
-0.495952664228389,-0.495952664228389,1.000018969910243,8.537779902862895e-05
-0.49577417284599506,-0.49577417284599506,1.0001270646109535,8.43128954196475e-05
-0.49567982165317515,-0.49567982165317515,0.9999003326570073,8.198576383723068e-05
-0.49560266196494923,-0.49560266196494923,1.0000897629739547,8.579595270303877e-05
-0.49547228739829735,-0.49547228739829735,0.9999852706631909,8.312323510515805e-05
-0.49532277292455545,-0.49532277292455545,1.0000337895596483,8.21781797064367e-05
-0.49522102428309156,-0.49522102428309156,1.0000421706449656,8.159417483556819e-05
-0.49515911992057227,-0.49515911992057227,0.9999613510146554,8.469081430096127e-05
-0.4950517423218116,-0.4950517423218116,1.0000613688941198,8.513781997159454e-05
-0.49498759308480655,-0.49498759308480655,1.0000135342272678,8.271519761970461e-05
-0.49492530441202687,-0.49492530441202687,1.0000105048861467,8.202073167249685e-05
-0.49480965033289975,-0.49480965033289975,0.9999409495292444,8.55480491246493e-05
-0.49464115604932885,-0.49464115604932885,1.0000486745793329,8.731134219476852e-05
-0.49455988262197936,-0.49455988262197936,1.000092317819383,8.445754734884909e-05
-0.4943949740525568,-0.4943949740525568,0.9999501654429412,8.150140096937758e-05
-0.49427302383992355,-0.49427302383992355,0.9999583276176833,8.365949713586278e-05
-0.4941849871829618,-0.4941849871829618,0.9999449487397969,8.47490719672557e-05
-0.4939868234243477,-0.4939868234243477,1.0000204493315732,8.264675109945979e-05
-0.49383360932115467,-0.49383360932115467,0.9999345597237383,8.41976987221946e-05
-0.4937202767468989,-0.4937202767468989,0.9999895715804861,8.325223045089895e-05
-0.4935940768336877,-0.4935940768336877,0.9999129797108723,8.550126666108924e-05
-0.4934979857323924,-0.4934979857323924,1.0000273649373432,8.401859413880317e-05
-0.49336943877860906,-0.49336943877860906,0.9998368556621926,8.548058622301863e-05
-0.4932804324082099,-0.4932804324082099,0.9999703658148931,8.389957549642724e-05
-0.49311796279798725,-0.49311796279798725,0.9998978257777384,8.282996745821313e-05
-0.4930196820612764,-0.4930196820612764,1.0000951116025274,8.402049148126557e-05
-0.49295558708545284,-0.49295558708545284,0.9999894298926847,8.153293452763601e-05
-0.4928453081432963,-0.4928453081432963,1.0001185544106377,8.305547148061308e-05
-0.4927047264412977,-0.4927047264412977,0.9999213578731642,8.185025768587417e-05
-0.49257865020481406,-0.49257865020481406,1.0000480465587138,8.54189511692702e-05
-0.49249185978551396,-0.49249185978551396,0.9998779629287501,8.418033926779562e-05
-0.4923548329679761,-0.4923548329679761,0.9999893137310529,8.18795767859428e-05
-0.4922334650764242,-0.4922334650764242,1.0000656996127806,8.457393255002061e-05
-0.49215588672377636,-0.49215588672377636,1.0000651821227748,8.410411384410154e-05
-0.49202534154173916,-0.49202534154173916,0.9999063514244433,8.254393262929405e-05
-0.4918954230175586,-0.4918954230175586,0.9999292633007899,8.341403859222685e-05
-0.49184033016499595,-0.49184033016499595,1.0000025499300795,8.44597045975753e-05
-0.49180334137927273,-0.49180334137927273,0.9997830921935303,8.300402462686342e-05
-0.4916856099676806,-0.4916856099676806,0.999921033451227,8.100801116263463e-05
-0.49154849830083547,-0.49154849830083547,1.0000984314282588,8.547476014852434e-05
-0.4913958001183346,-0.4913958001183346,1.0001303436325715,8.382628146400815e-05
-0.4912787860375829,-0.4912787860375829,0.9999646505168546,8.271160018281748e-05
-0.4911901847051922,-0.4911901847051922,0.9999408087249837,8.188087509194657e-05
-0.4910280972049804,-0.4910280972049804,1.0000427615247136,8.479242158746151e-05
-0.49089959586854093,-0.49089959586854093,1.0001547015551167,8.34798776393319e-05
-0.49077379699156154,-0.49077379699156154,1.000010070732144,8.515812587526736e-05
-0.49066063317004593,-0.49066063317004593,0.9997613371905473,8.446087822975968e-05
-0.490569797923672,-0.490569797923672,0.9999589207569736,8.231777439410229e-05
-0.4904896061983891,-0.4904896061983891,1.0000399997877785,8.348235907027659e-05
-0.4904192651505582,-0.4904192651505582,1.0000670870893718,8.287061112423414e-05
-0.4903406563360477,-0.4903406563360477,0.9999774088075754,8.303219180655838e-05
-0.4902165894396603,-0.4902165894396603,0.9999541665946774,8.380532570773193e-05
-0.49006081936240664,-0.49006081936240664,0.9998986984797072,8.279429099687522e-05
-0.48994846901041456,-0.48994846901041456,1.0000828049762847,8.474896843094558e-05
-0.48986453548714054,-0.48986453548714054,1.0000599199289044,8.220015705786986e-05
-0.4897221383813303,-0.4897221383813303,0.9999257332429996,8.192810980546102e-05
-0.48966376842290626,-0.48966376842290626,0.999970821624192,8.640929863819763e-05
-0.4896242600458208,-0.4896242600458208,1.0000101498405467,8.248666113482048e-05
-0.4895062918192707,-0.4895062918192707,1.000092434649623,8.295914164498863e-05
-0.48940926101640797,-0.48940926101640797,0.9999508344257814,8.30129334258788e-05
-0.4892395779985236,-0.4892395779985236,0.9998947715977208,8.322905742864716e-05
-0.4891145089146448,-0.4891145089146448,1.0000763576806206,8.552899710915064e-05
-0.48898531102749987,-0.48898531102749987,1.0000231979284993,8.276552500258336e-05
-0.4889074085833272,-0.4889074085833272,1.0000429302668121,8.286708081549715e-05
-0.4887750937748933,-0.4887750937748933,1.000048640339947,8.370048848066987e-05
-0.4886211784702027,-0.4886211784702027,0.9999489952474647,8.345472012168935e-05
-0.4884983768046368,-0.4884983768046368,0.9999602727677628,8.303119995674037e-05
-0.4884504490095424,-0.4884504490095424,0.9999933761669876,8.524052308657799e-05
-0.4883878595865099,-0.4883878595865099,1.0000922415771378,8.315902382428885e-05
-0.4882813593256287,-0.4882813593256287,1.000098659388565,8.20902210325902e-05
-0.4881410117232008,-0.4881410117232008,1.0001332851278588,8.337999217508401e-05
-0.48801905240106863,-0.48801905240106863,1.0000428664014727,8.439024085054586e-05
-0.4879319913277868,-0.4879319913277868,1.0000375169966524,8.626216123457105e-05
-0.4878059260227019,-0.4878059260227019,1.0000394424106758,8.16505921513056e-05
-0.4876918412250234,-0.4876918412250234,1.000125911651582,8.133300915879279e-05
-0.48757037124305497,-0.48757037124305497,1.0001579031357797,8.537898616901905e-05
-0.4874256490787957,-0.4874256490787957,0.9999526559320346,8.396982755969897e-05
-0.48725274624302983,-0.48725274624302983,1.0000002962583794,8.374102199377609e-05
-0.4871693064138526,-0.4871693064138526,1.000105351096981,8.242813419192972e-05
-0.4871103566256352,-0.4871103566256352,1.0000756991740196,8.510748505481276e-05
-0.4869328610046068,-0.4869328610046068,1.0001397460276071,8.411766514422965e-05
-0.48675807141989935,-0.48675807141989935,1.0000369145262957,8.274684508876603e-05
-0.4866804385004798,-0.4866804385004798,1.000038744190825,8.613053011870256e-05
-0.48645138401188887,-0.48645138401188887,0.999964563864,8.329549847197429e-05
-0.4863172165758442,-0.4863172165758442,0.999991557778299,8.411770951198498e-05
-0.48623381612997035,-0.48623381612997035,1.0000758833929244,8.589413656104763e-05
-0.4860685422376264,-0.4860685422376264,0.9999647983360018,8.260270947411264e-05
-0.4858893960947171,-0.4858893960947171,1.000222325194196,8.438735076205517e-05
-0.4858152711996809,-0.4858152711996809,0.9999713735468024,8.368930391358555e-05
-0.48574906366993675,-0.48574906366993675,0.999971121289059,8.225036477279467e-05
-0.48567974019097165,-0.48567974019097165,0.999904719104123,8.532999178817128e-05
-0.48559203651675487,-0.48559203651675487,1.0000012203879058,8.224354646648355e-05
-0.48552537827927156,-0.48552537827927156,0.9998905663813197,8.506871178228561e-05
-0.48537748439994177,-0.48537748439994177,0.9999239902773926,8.243041742804261e-05
-0.485280483745737,-0.485280483745737,1.0000921443854747,8.202969179229955e-05
-0.4850531076808693,-0.4850531076808693,1.0001326699394346,8.196778391283742e-05
-0.48489951629890127,-0.48489951629890127,1.000114579756365,8.273636861064998e-05
-0.4847669917391613,-0.4847669917391613,0.999897171938748,8.26041985245215e-05
-0.4846968024474336,-0.4846968024474336,0.9999387426564537,8.294379350083059e-05
-0.4845761324831983,-0.4845761324831983,1.0000339009257524,8.460144532145887e-05
-0.48446228743123354,-0.48446228743123354,1.0001712995970122,8.450444447324864e-05
-0.4843768428545445,-0.4843768428545445,1.0000230970426573,8.362580810685505e-05
-0.4842038916336605,-0.4842038916336605,1.0001164860901928,8.339160284580397e-05
-0.4840993433899712,-0.4840993433899712,1.0000035843193602,8.296882962022587e-05
-0.48397584329650273,-0.48397584329650273,1.0001314341403187,8.539149323781391e-05
-0.48388191232224925,-0.48388191232224925,1.0000716962156315,8.387837046704039e-05
-0.4837493460829137,-0.4837493460829137,0.9998778669875998,8.47809150217115e-05
-0.4836466495733475,-0.4836466495733475,0.9999247696845204,8.241353191336471e-05
-0.4835267660673708,-0.4835267660673708,1.0001357670620143,8.226897085562593e-05
-0.483389491084381,-0.483389491084381,0.9998958944977311,8.428106835909294e-05
-0.48327207594702487,-0.48327207594702487,0.9998942593352818,8.385698562072262e-05
-0.4831384316756157,-0.4831384316756157,1.0001455580650132,8.48940781490233e-05
-0.4830111045448575,-0.4830111045448575,0.9998462310669651,8.365588599176067e-05
-0.48292420082725585,-0.48292420082725585,1.0000210921768717,8.359257243925477e-05
-0.4828078620543238,-0.4828078620543238,0.9999678820634008,8.481683766974799e-05
-0.4827114312356571,-0.4827114312356571,1.000182653854248,8.416235796480581e-05
-0.48260233289329335,-0.48260233289329335,1.0000505303881781,8.414088994841644e-05
-0.48248014492273794,-0.48248014492273794,1.0001458405885455,8.279427513159984e-05
-0.48239127260749226,-0.48239127260749226,0.9998488596765007,8.403263983779399e-05
-0.4823206595639931,-0.4823206595639931,0.9998755948194706,8.12530215806984e-05
-0.4822194729233161,-0.4822194729233161,1.000083422307835,8.358158728751719e-05
-0.4819946682546288,-0.4819946682546288,1.0000706051379158,8.524129753236807e-05
-0.4818176457541995,-0.4818176457541995,0.9999672057181008,8.366851100417176e-05
-0.48172973495966287,-0.48172973495966287,1.000120096956412,8.430410951195153e-05
-0.48167216005676894,-0.48167216005676894,1.0001158557484615,8.329542063926343e-05
-0.4815536473382963,-0.4815536473382963,0.9999768214105387,8.250717196531874e-05
-0.48133860209200063,-0.48133860209200063,1.0001694297894397,8.295905149179773e-05
-0.48122396725811994,-0.48122396725811994,1.0000538823943976,8.379379127888332e-05
-0.4811222473101225,-0.4811222473101225,0.9999525604050801,8.255491432687415e-05
-0.4809940809704131,-0.4809940809704131,0.999809430076475,8.250267337054525e-05
-0.48094323281839024,-0.48094323281839024,0.9998088244226249,8.336135238318156e-05
-0.4808227422996424,-0.4808227422996424,1.0000617687669209,8.620661049896373e-05
-0.4807061223487835,-0.4807061223487835,0.9999861645700298,8.22991534007466e-05
-0.4806526474218117,-0.4806526474218117,1.0000338672940507,8.270775560485545e-05
-0.4805622875923291,-0.4805622875923291,0.9999775867809635,8.412432579182235e-05
-0.4804634510539472,-0.4804634510539472,0.999940854081456,8.15539834985225e-05
-0.4802467282628641,-0.4802467282628641,0.9999952260039991,8.425005961761368e-05
-0.4801751218503341,-0.4801751218503341,1.000019766951043,8.559233190587684e-05
-0.4800884606753243,-0.4800884606753243,0.9999338762664207,8.310570502661925e-05
-0.4799354834045516,-0.4799354834045516,0.9998791569682994,8.34122362650635e-05
-0.47976058948552236,-0.47976058948552236,1.0000245712570623,8.342911942127513e-05
-0.47963997737388125,-0.47963997737388125,1.0000795041210102,8.535885435649937e-05
-0.47954008710512425,-0.47954008710512425,0.9998082541072865,8.293161011511253e-05
-0.4794269206759054,-0.4794269206759054,1.000060085424892,8.641978451411569e-05
-0.4793697223474737,-0.4793697223474737,0.9999955704235706,8.196034475748827e-05
-0.47928994719404727,-0.47928994719404727,1.0000762947578834,8.47816474438693e-05
-0.4792205462610582,-0.4792205462610582,0.999982887928145,8.222162114360932e-05
-0.4791420015040785,-0.4791420015040785,1.0001585097167083,8.302423535700104e-05
-0.47901802507985847,-0.47901802507985847,1.0000702436325144,8.311379080037665e-05
-0.4789437782135792,-0.4789437782135792,0.9998797756367284,8.270325461830006e-05
-0.4788604101253441,-0.4788604101253441,0.9999308629244483,8.172749976292522e-05
-0.4787037102098111,-0.4787037102098111,1.0000865821901808,8.289371024388723e-05
-0.47857392225414513,-0.47857392225414513,0.9998783569888179,8.256708711958895e-05
-0.4784643014892936,-0.4784643014892936,0.9999791128793625,8.5100994758458e-05
-0.47840532193658875,-0.47840532193658875,0.9999409399996072,8.198328998897832e-05
-0.4783301899326034,-0.4783301899326034,1.0001553640431982,8.37649030210304e-05
-0.47824125467450357,-0.47824125467450357,1.000080060433992,8.540814522935512e-05
-0.4780628078937298,-0.4780628078937298,1.000134205758263,8.472100830006268e-05
-0.47795017280441243,-0.47795017280441243,1.0000934244808188,8.451650795412157e-05
-0.477877301062108,-0.477877301062108,1.0001078196688433,8.497754564174635e-05
-0.4776928403851343,-0.4776928403851343,1.0000493854391392,8.232335804775932e-05
-0.4775607809104258,-0.4775607809104258,0.9998511968897981,8.518632294414742e-05
-0.4774288662214531,-0.4774288662214531,0.9998848612306238,8.346359742364567e-05
-0.4772907292295713,-0.4772907292295713,0.9999235948557514,8.297165896357171e-05
-0.4771343475586036,-0.4771343475586036,0.9999038507995163,8.421151307618822e-05
-0.4769863558845827,-0.4769863558845827,0.9999112812981764,8.195362774005154e-05
-0.4768846488179406,-0.4768846488179406,1.0000693399476739,8.50555249079121e-05
-0.4767517155385576,-0.4767517155385576,0.999903270771294,8.478432173772917e-05
-0.47665212805150076,-0.47665212805150076,1.0000413235533205,8.459822703930946e-05
-0.4765843213215703,-0.4765843213215703,1.0000135692312317,8.21138222343625e-05
-0.4765082319121575,-0.4765082319121575,1.0000439233524818,8.326321304891257e-05
-0.4763848225877155,-0.4763848225877155,1.0000800807716292,8.23477045953436e-05
-0.476265350531321,-0.476265350531321,1.000231738994426,8.241003836041153e-05
-0.47595357277605216,-0.47595357277605216,1.000021291408357,8.282700442381755e-05
-0.4758172230271157,-0.4758172230271157,0.9999509329906149,8.441264355727002e-05
-0.4756779446732253,-0.4756779446732253,1.0001144211197697,8.469790546833814e-05
-0.4756017023784807,-0.4756017023784807,0.9998590773759425,8.387884935933343e-05
-0.47546183971571737,-0.47546183971571737,0.9998923596604529,8.288646592626502e-05
-0.4753831523354165,-0.4753831523354165,1.0000181895699298,8.257562640069604e-05
-0.47530760915542486,-0.47530760915542486,0.9998844754896776,8.268807929807773e-05
-0.4752072593459161,-0.4752072593459161,0.9999651412146748,8.482345594704337e-05
-0.47504558679356707,-0.47504558679356707,0.9999785245764693,8.392627016593924e-05
-0.47480703727924267,-0.47480703727924267,0.9998331405295252,8.6765592896405e-05
-0.47472490823129193,-0.47472490823129193,1.0000162742880274,8.287945485862432e-05
-0.4746215256425785,-0.4746215256425785,0.9999308095168598,8.301306076023709e-05
-0.4745156580785988,-0.4745156580785988,1.0000024690490057,8.300120868406425e-05
-0.4743720653001219,-0.4743720653001219,1.0000165317364964,8.436317554805762e-05
-0.47422959441610146,-0.47422959441610146,0.9999490278122984,8.280341325953141e-05
-0.47407140757713934,-0.47407140757713934,0.9999277662286075,8.404066240993078e-05
-0.47396789166377856,-0.47396789166377856,1.0000335773525273,8.522740020760118e-05
-0.47388178734399844,-0.47388178734399844,0.999974663707064,8.39102054515322e-05
-0.4737876127619529,-0.4737876127619529,1.0001466483411308,8.302660614865011e-05
-0.47364574873354287,-0.47364574873354287,1.0000406901692274,8.432719991738329e-05
-0.4734961257287068,-0.4734961257287068,0.9998977419943496,8.373353391358586e-05
-0.47342955238709694,-0.47342955238709694,0.9999748561281695,8.362415620596017e-05
-0.47334703992819416,-0.47334703992819416,0.9999762002834236,8.257376765022958e-05
-0.4731818958185613,-0.4731818958185613,1.0000205267301117,8.317727494094045e-05
-0.47307073579577263,-0.47307073579577263,1.000127991612113,8.330345420205367e-05
-0.4730063371011056,-0.4730063371011056,1.0000588433076623,8.530748648403956e-05
-0.47291231275594325,-0.47291231275594325,0.9999877436764557,8.261968442572659e-05
-0.47277517077163794,-0.47277517077163794,0.9999547363835581,8.347991919931075e-05
-0.4725815852085361,-0.4725815852085361,0.9999628688783944,8.38344954244743e-05
-0.47248788565339056,-0.47248788565339056,1.00003332451157,8.46671840965893e-05
-0.4723481517605251,-0.4723481517605251,0.9998574124396864,8.249964110712902e-05
-0.47223486921575386,-0.47223486921575386,0.9999354742454825,8.242402285985189e-05
-0.47216885689413174,-0.47216885689413174,1.000218856242215,8.356099041222437e-05
-0.47199664867366664,-0.47199664867366664,1.0001777591072345,8.259861570827816e-05
-0.47189934987109156,-0.47189934987109156,1.0000433069847279,8.521617177055467e-05
-0.4718417283700546,-0.4718417283700546,0.9999070093817316,8.388127372767802e-05
-0.4717675133579178,-0.4717675133579178,1.000077120483441,8.391285549976782e-05
