time,time,flux,flux_err
-0.4995571082672541,-0.4995571082672541,0.9998220252211946,0.00019124586502129774
-0.49889474276218,-0.49889474276218,0.9999878866348951,0.00017674012532281868
-0.49816327647713476,-0.49816327647713476,1.000255801157555,0.00016201881185592918
-0.49782709555438487,-0.49782709555438487,0.9999069437202035,0.00016381409627247217
-0.49720211427411415,-0.49720211427411415,0.9999914111926449,0.00016387053666673944
-0.49656947601397405,-0.49656947601397405,0.9999295664858051,0.00016197480046856288
-0.4960053491704457,-0.4960053491704457,1.0000667237918275,0.00016047198536206189
-0.4954569189932954,-0.4954569189932954,1.0001835208131955,0.0001616819171931395
-0.4949426103681617,-0.4949426103681617,1.0000307276977183,0.00016152839917688214
-0.49439113900880327,-0.49439113900880327,0.9999259250575273,0.0001651749802334545
-0.4937733151513385,-0.4937733151513385,1.0000639413333214,0.00016181129276612443
-0.49320593787706457,-0.49320593787706457,0.9999187700194732,0.00016154248383687265
-0.4926120324264048,-0.4926120324264048,0.9996460237392366,0.00016166024150415263
-0.4922548820984957,-0.4922548820984957,1.0001202943086902,0.00016375646532000994
-0.49157276234982417,-0.49157276234982417,1.0000786918898084,0.00016277050284626524
-0.49113600084456266,-0.49113600084456266,1.000106306200426,0.0001608262132799485
-0.4907364262318879,-0.4907364262318879,1.0000685383349892,0.00016156048580217842
-0.4900951860647183,-0.4900951860647183,0.9998270318275846,0.00016278053280139576
-0.48947855229343984,-0.48947855229343984,1.0002110859438123,0.0001637999778734511
-0.4886712274696038,-0.4886712274696038,1.000121886146337,0.00016283393524907616
-0.487881140292302,-0.487881140292302,1.000104500562611,0.0001626467625285874
-0.4873734080210852,-0.4873734080210852,0.9998816032456576,0.00016164099520387157
-0.4869014666430303,-0.4869014666430303,1.000105014888207,0.00016369121061661585
-0.4866484534504707,-0.4866484534504707,1.0001862179712273,0.00016222081179196603
-0.48582434682539316,-0.48582434682539316,0.9999034085168086,0.00016190470103919242
-0.48546010660575123,-0.48546010660575123,1.0001427117600017,0.00016045811665682186
-0.4847900106360612,-0.4847900106360612,0.9999689879110798,0.00016265150456907525
-0.48439364517253125,-0.48439364517253125,1.000063625173277,0.00016273533892602175
-0.483698338089016,-0.483698338089016,1.0002944837754333,0.0001629575519244076
-0.4830280401962227,-0.4830280401962227,1.0001948290339255,0.0001606580972186613
-0.48223818035257865,-0.48223818035257865,0.9996946325924367,0.00016161831501491493
-0.48182048124581345,-0.48182048124581345,0.9998398516486999,0.00016269875255672496
-0.4813930109179637,-0.4813930109179637,0.9999622707919272,0.0001622990078763502
-0.48078798062779243,-0.48078798062779243,1.0001172404410628,0.00016540624153903378
-0.4803091896661499,-0.4803091896661499,0.9999591776688044,0.00016193097389092303
-0.47987050182928215,-0.47987050182928215,0.9999115953989106,0.00016174025676892262
-0.4792429623485077,-0.4792429623485077,1.0000159503362862,0.00016062546599533988
-0.47894907929148756,-0.47894907929148756,1.0003150003100847,0.0001647768696048053
-0.4781781437035534,-0.4781781437035534,1.0000691811748716,0.00016299136642358443
-0.4776877705378865,-0.4776877705378865,1.0000298968222487,0.0001617109700674776
-0.47705521422321906,-0.47705521422321906,1.0001219438587472,0.00016263344738845059
-0.4764199861056113,-0.4764199861056113,1.0000026979640064,0.0001627414877012023
-0.4756447718165873,-0.4756447718165873,1.0002388478465911,0.00016382089299012782
-0.4748101781398873,-0.4748101781398873,1.0002355872493705,0.0001616557543286004
-0.47413784604141257,-0.47413784604141257,1.0002719109433844,0.00016253230008152176
-0.473596094072127,-0.473596094072127,1.0002491744941184,0.00016393521768432075
-0.4731613940581155,-0.4731613940581155,1.0001222727127501,0.0001626512149244346
-0.4723780408130551,-0.4723780408130551,1.0000722539026499,0.00016193920251764764
-0.4719704025774263,-0.4719704025774263,1.0000682434959323,0.00016053765933379374
-0.4714470345606969,-0.4714470345606969,0.9999634355810519,0.00016290783767103158
-0.47110150572407294,-0.47110150572407294,1.0001112460758022,0.0001616916048138928
-0.470613949726976,-0.470613949726976,1.0001100879686653,0.00016380917987989513
-0.4698076352797216,-0.4698076352797216,0.9999368395647737,0.0001619552253571963
-0.4693238028296037,-0.4693238028296037,0.9999667621601727,0.00016259340732494728
-0.4687804476969177,-0.4687804476969177,1.0000254730083797,0.00016171077196700776
-0.46828698765893934,-0.46828698765893934,0.9999204855608129,0.00016176862092762595
-0.46787438709361595,-0.46787438709361595,1.000192189628997,0.00016411669363653532
-0.4671981878353108,-0.4671981878353108,0.9999663234284413,0.000167069509519134
-0.4667123638166231,-0.4667123638166231,0.999773180683739,0.00016313425570041828
-0.46619309339148457,-0.46619309339148457,0.9999483035861105,0.00016161596234122788
-0.4657379474323534,-0.4657379474323534,1.0000021708491986,0.00016389188115758878
-0.4650998120727309,-0.4650998120727309,1.0001845967115917,0.00016365652795737802
-0.46436223135096955,-0.46436223135096955,0.9999682705361058,0.00016197037347129365
-0.463922429637023,-0.463922429637023,0.9998294696038815,0.00016066422559326602
-0.4630527581270144,-0.4630527581270144,0.9999520744165767,0.0001627496090922678
-0.4622838771902025,-0.4622838771902025,0.9999634966147213,0.0001638058123746603
-0.4616235651563329,-0.4616235651563329,0.9998010540808961,0.00018399118191371922
-0.4611380910690059,-0.4611380910690059,0.9999222093867486,0.00016262648863650563
-0.4605021477662376,-0.4605021477662376,1.0000557788655002,0.0001606137867858923
-0.4601237417722587,-0.4601237417722587,0.999777725081184,0.00016378392587954377
-0.4592792262614239,-0.4592792262614239,1.000008709142171,0.00016295846604097967
-0.4588815755741962,-0.4588815755741962,1.0002104225372577,0.00016063605948000284
-0.4584477626507578,-0.4584477626507578,1.0001883321539895,0.00016183613128483804
-0.45786654553885453,-0.45786654553885453,1.000203518960212,0.00016389391723873418
-0.4574827349795669,-0.4574827349795669,0.9999120051997755,0.0001626678995940194
-0.4567962231201818,-0.4567962231201818,1.0000438018472737,0.0001638521676100093
-0.45626543337421027,-0.45626543337421027,1.0000798819164147,0.00016070156407041927
-0.45569160633676803,-0.45569160633676803,0.9997246385705557,0.00016145578502826046
-0.4552474972646451,-0.4552474972646451,1.0000782447679688,0.0001626752804099806
-0.454731155596528,-0.454731155596528,1.00014078679274,0.00016388998583697698
-0.454471107221616,-0.454471107221616,1.000141672228032,0.0001631618371310188
-0.4537675399435102,-0.4537675399435102,1.0000673948293137,0.00017263556483850044
-0.45329781644541073,-0.45329781644541073,0.9998628470791739,0.00016284224142076617
-0.45268045803095447,-0.45268045803095447,1.0001839135698791,0.00016187846728051057
-0.4523155930379289,-0.4523155930379289,1.0002822229732662,0.00016274286583541192
-0.4517245615446882,-0.4517245615446882,0.9998748234526926,0.00016378118914483103
-0.45107431781871127,-0.45107431781871127,0.9998653251353424,0.0001629448119758831
-0.45058268646971555,-0.45058268646971555,0.9997611430726681,0.0001605457439441211
-0.44992469209319097,-0.44992469209319097,1.0003530380020347,0.00016170593542863166
-0.44938256983223257,-0.44938256983223257,1.0000087779505928,0.00016274210283112725
-0.4485731259170279,-0.4485731259170279,0.999797938175303,0.0001627971843251927
-0.44802574094501324,-0.44802574094501324,0.9999932870556847,0.00016180487345328175
-0.4473684525051794,-0.4473684525051794,1.0000184645272827,0.00016149119349747227
-0.4468725943763275,-0.4468725943763275,1.0000880698056218,0.00016390219305281235
-0.4464027556328801,-0.4464027556328801,1.0000486657191012,0.00016287943548831693
-0.4456684733748261,-0.4456684733748261,1.0000081449455347,0.00016192382711223023
-0.44537506355191,-0.44537506355191,0.9998851191265722,0.00016159018454508915
-0.44480452689167577,-0.44480452689167577,1.0000559571160417,0.00016320700601505942
-0.44429028936865506,-0.44429028936865506,1.0000707793452395,0.00016276877067480567
-0.44359667705139144,-0.44359667705139144,0.9999798014611974,0.00016378695139508627
-0.4428684924961999,-0.4428684924961999,1.0000670027049279,0.00016068478414104005
-0.4422064821672393,-0.4422064821672393,1.0002078058018946,0.00016166990601871096
-0.4417819261128898,-0.4417819261128898,0.9999220870897318,0.0001626048518834017
-0.4413031081632653,-0.4413031081632653,1.0001760264037212,0.00016370860198809366
-0.44110675568590524,-0.44110675568590524,1.0002162906435608,0.00016217346956057108
-0.4403384152588842,-0.4403384152588842,0.9999779702075265,0.00016277759383007438
-0.43987347032816615,-0.43987347032816615,1.0000510343112095,0.00016042596502800448
-0.43918931707230513,-0.43918931707230513,1.0000512353116329,0.00016265765348046993
-0.43882854399780624,-0.43882854399780624,1.000063561409687,0.00016275046712951535
-0.43817380870532363,-0.43817380870532363,1.0000962228224044,0.0001629175347088243
-0.437544112616888,-0.437544112616888,1.0002795658061039,0.00016175070571918895
-0.43678785514057383,-0.43678785514057383,0.9999854053160011,0.00016055586097314336
-0.4363071304222103,-0.4363071304222103,0.9996649490438797,0.00016271685839851967
-0.4358014034034568,-0.4358014034034568,0.9999519905033406,0.00016239009404372934
-0.43519123958176353,-0.43519123958176353,0.9999029783272869,0.00016452044810100382
-0.4347176925177337,-0.4347176925177337,0.9999648939908232,0.00016190186779205324
-0.4340445246518357,-0.4340445246518357,0.9999203190370934,0.0001603923721424046
-0.4335113829198235,-0.4335113829198235,1.0002998829699947,0.00016391141779353933
-0.4329105765995337,-0.4329105765995337,1.0000299320670574,0.00016275270980419264
-0.43222824533149834,-0.43222824533149834,0.9997781101083444,0.00016194258558422753
-0.4319097797982977,-0.4319097797982977,1.0001528520379028,0.00016162739423886523
-0.4312213406585215,-0.4312213406585215,0.9997655670201464,0.00016273464703259836
-0.4306530140915129,-0.4306530140915129,0.9999555850118684,0.00016270955119949106
-0.42987609077463274,-0.42987609077463274,1.0002969322316708,0.00016382895177040655
-0.42906427418856763,-0.42906427418856763,1.0000109383569247,0.00016164542101684818
-0.42853207729494897,-0.42853207729494897,0.9998047801981539,0.0001638546031607611
-0.4280774099388509,-0.4280774099388509,0.9999537552908959,0.00016256822504115062
-0.427812199183245,-0.427812199183245,0.9999741957012036,0.00016373108900308086
-0.4269655407348182,-0.4269655407348182,0.9998998233653037,0.00016288034028513548
-0.42661727292725116,-0.42661727292725116,0.999938228593536,0.0001615604582156701
-0.426142417974188,-0.426142417974188,1.000063515611923,0.0001607750095892043
-0.4256267671160458,-0.4256267671160458,1.0001954037669603,0.00016281532566592155
-0.4252755949171842,-0.4252755949171842,1.0002132441316764,0.00016266301413989445
-0.42465497021185,-0.42465497021185,0.999670492735943,0.0001638901638542516
-0.4240549477814056,-0.4240549477814056,1.0002631467157914,0.0001606621405385425
-0.42335078839896595,-0.42335078839896595,0.9998937489702397,0.00016165511058985227
-0.4229340269594104,-0.4229340269594104,1.0001109079370847,0.00016273037671712113
-0.422493809232401,-0.422493809232401,1.0001468126380586,0.00016223697000777908
-0.4220359514154552,-0.4220359514154552,1.000284025570801,0.0001684417129823192
-0.42140997279639125,-0.42140997279639125,1.0002527760640647,0.00016178984267248346
-0.42104188435550893,-0.42104188435550893,1.0001346102725497,0.00016293995216908004
-0.4204556352793588,-0.4204556352793588,1.0000878354158693,0.00016067685868291062
-0.4200807357134181,-0.4200807357134181,1.0003323530159205,0.00016367255488927308
-0.4195002925145673,-0.4195002925145673,1.0000030187730755,0.0001638226933321734
-0.41884617854375394,-0.41884617854375394,0.9999942822805771,0.00016294962640106913
-0.41839037820172964,-0.41839037820172964,1.0001070570653252,0.0001605863806803337
-0.41774271311442135,-0.41774271311442135,1.0004057439197842,0.00016364314940428304
-0.4170077049828251,-0.4170077049828251,0.9999259809962368,0.00016375843142670657
-0.41618216346396364,-0.41618216346396364,1.0001146433761448,0.00016186283479463942
-0.41554403882546465,-0.41554403882546465,1.0001304939032032,0.00016263523283759545
-0.41494113666776683,-0.41494113666776683,0.9999305673369534,0.00016169280154490546
-0.41452981557667956,-0.41452981557667956,1.000232916296009,0.00016382284849416153
-0.41368545102013743,-0.41368545102013743,1.0001301026446858,0.00016294339183002023
-0.4132963273776113,-0.4132963273776113,1.0001228634720085,0.00016064751368875907
-0.4126983773734537,-0.4126983773734537,1.0000326182931385,0.000161714208505235
-0.4122177900499082,-0.4122177900499082,1.0002313166132457,0.00016282207316145988
-0.41175579269838636,-0.41175579269838636,0.9999999770534258,0.0001626631457274995
-0.4110770199979015,-0.4110770199979015,1.000255290917473,0.00016382778410286889
-0.41059748534171375,-0.41059748534171375,0.9999487115856069,0.0001606999876400989
-0.40998094112583205,-0.40998094112583205,0.9997491562884848,0.00016164909759281676
-0.4095611521959654,-0.4095611521959654,1.000051096570204,0.00016267910387009313
-0.40905003230291187,-0.40905003230291187,1.000304170432352,0.00016205682612490895
-0.40849421687744325,-0.40849421687744325,1.000140768920454,0.0001706551548991663
-0.4078413061244646,-0.4078413061244646,0.9999180028722587,0.00016172566036410372
-0.407235108808527,-0.407235108808527,1.000352930137183,0.00016243640836732519
-0.4067769856294035,-0.4067769856294035,1.0000307083686668,0.0001638762385352839
-0.4061407487708493,-0.4061407487708493,1.0001170965677122,0.00016363739917876755
-0.4053919874902931,-0.4053919874902931,0.9999677409976119,0.00016195625980492632
-0.4048274848268193,-0.4048274848268193,0.9999208398207345,0.0001604998980313322
-0.4042310066615755,-0.4042310066615755,1.0002480653019306,0.00016170834893331187
-0.4036416183487745,-0.4036416183487745,1.00033790713734,0.00016379348176466434
-0.40282359595730666,-0.40282359595730666,1.0001237590970553,0.00016189737330805996
-0.4023065940345987,-0.4023065940345987,0.9999112137110385,0.00016270733435180286
-0.40165565960560345,-0.40165565960560345,1.0002409263911554,0.0001606206622759854
-0.401215513257921,-0.401215513257921,1.0001258430710134,0.00016369694490877602
-0.4006323029534542,-0.4006323029534542,1.0001170673871778,0.0001628721760045121
-0.4000233556587773,-0.4000233556587773,1.0000472069819695,0.00016193805441361368
-0.39969484213361284,-0.39969484213361284,0.9999162079447366,0.00016156909833433405
-0.3991001804060943,-0.3991001804060943,1.000069091719131,0.00016299705123867686
-0.3985749289422529,-0.3985749289422529,1.000002397410138,0.00016290156509642432
-0.39783644439157795,-0.39783644439157795,0.9998449234940212,0.00016381971806254735
-0.397287883421086,-0.397287883421086,0.9999507673914421,0.00016070067904002606
-0.396611390428734,-0.396611390428734,1.0002537625054115,0.00016170932108455581
-0.3961884994772845,-0.3961884994772845,1.0003857318150942,0.00016266171718607974
-0.39569867401805825,-0.39569867401805825,1.000123554677458,0.00016384643683229784
-0.39542566220261505,-0.39542566220261505,0.9997494733344758,0.00016207762185224453
-0.39479820695487433,-0.39479820695487433,1.0002475137122278,0.00017663381348261687
-0.3942869537990191,-0.3942869537990191,0.9998570372559163,0.0001604251315161275
-0.3936033118479827,-0.3936033118479827,0.9999797333162194,0.00016198215400185098
-0.39326738797753935,-0.39326738797753935,0.9998945404148044,0.0001638038838376792
-0.39264220358090823,-0.39264220358090823,0.9998992520273828,0.00016381627160914916
-0.3920105933364539,-0.3920105933364539,1.0002073764643566,0.00016195456906576837
-0.3914464475943532,-0.3914464475943532,0.999971902144922,0.00016045748923973355
-0.39089792512604615,-0.39089792512604615,1.0000373209510633,0.00016165078176742987
-0.39038379415724195,-0.39038379415724195,1.0000114702511265,0.00016153265716106882
-0.3898314360478253,-0.3898314360478253,0.9999870882087736,0.00016511928979633187
-0.3892148757899122,-0.3892148757899122,0.9999756859309196,0.00016180501849138252
-0.38864674342621586,-0.38864674342621586,0.9999820727328107,0.00016160722711494588
-0.38805264922921195,-0.38805264922921195,0.999887956521774,0.0001617003134213211
-0.38769535807150535,-0.38769535807150535,0.999977813090587,0.0001637330792627363
-0.3870130827002868,-0.3870130827002868,0.9999506066660203,0.00016276296413272664
-0.38657745661912485,-0.38657745661912485,0.9999584715133842,0.0001608231917314074
-0.38622431695330306,-0.38622431695330306,1.0000732679850335,0.00016241279259463333
-0.3856230177269026,-0.3856230177269026,0.9998928550338988,0.00016275449456614212
-0.38505659891015964,-0.38505659891015964,0.9999775118879187,0.00016272999850347567
-0.38432062985375526,-0.38432062985375526,0.9999952106745147,0.00016378791928216911
-0.38363711888887336,-0.38363711888887336,0.9999203317727033,0.00016164696838016744
-0.3829802726570051,-0.3829802726570051,0.9999577808622687,0.000162685736175981
-0.38248477073066167,-0.38248477073066167,0.999655235419963,0.0001625929517382882
-0.3822442320342816,-0.3822442320342816,1.0002866130361905,0.00016135265424431773
-0.38153982100920986,-0.38153982100920986,0.9998810950784206,0.00016359510473290686
-0.38109971923622654,-0.38109971923622654,0.9995304112801323,0.0001605840868735595
-0.3804941287686233,-0.3804941287686233,0.9999336985938989,0.00016163863037226982
-0.3799833894510812,-0.3799833894510812,1.0001692661797896,0.00016280635983523297
-0.37953230294879176,-0.37953230294879176,0.9998444496485064,0.00016270397647830345
-0.3786295071884524,-0.3786295071884524,1.0000690977418327,0.00016195325055781674
-0.37798231059714454,-0.37798231059714454,1.0000035422878324,0.00016057443757737833
-0.3774326725098945,-0.3774326725098945,1.0000368260809225,0.00016257311222238175
-0.3769741252879612,-0.3769741252879612,1.000353778200401,0.000161428186423771
-0.3765478649853321,-0.3765478649853321,1.0002164341505215,0.0001672071162155038
-0.3758940631887526,-0.3758940631887526,0.9999140803565038,0.00016085566300579984
-0.37543108500321976,-0.37543108500321976,1.0003300763593534,0.00016281019681289242
-0.3747848076491209,-0.3747848076491209,0.9999605405210756,0.0001606109453484746
-0.3744820773616084,-0.3744820773616084,1.0000048121460041,0.00016367522242154395
-0.3737786157827941,-0.3737786157827941,0.9998793238545358,0.0001638498805892601
-0.37318996211106426,-0.37318996211106426,0.9996740897593817,0.0001608346429960416
-0.3727999262999219,-0.3727999262999219,1.0002038527030854,0.00016158235007156325
-0.3721396560111316,-0.3721396560111316,0.9999974801697749,0.0001636860467742983
-0.37141106979033794,-0.37141106979033794,1.000229162083276,0.00016382190953734678
-0.3705444233797607,-0.3705444233797607,0.9997186044209293,0.00016180237500409335
-0.36982122776462345,-0.36982122776462345,1.0002421733175044,0.00016256724446244686
-0.36923185255291174,-0.36923185255291174,1.0000627326238316,0.0001628230063977253
-0.36890295959165087,-0.36890295959165087,0.9998810438790402,0.0001637411947543812
-0.3679987486953905,-0.3679987486953905,1.000111708662061,0.00016288642915758967
-0.3676285018897033,-0.3676285018897033,1.000035604997105,0.00016054853604361205
-0.3670783577734255,-0.3670783577734255,0.999807417395836,0.00016079640932125159
-0.36666527039851643,-0.36666527039851643,1.0002383816592928,0.00016385450922285733
-0.3662970034842147,-0.3662970034842147,1.0000265880713124,0.00016265604114732481
-0.36551939897690316,-0.36551939897690316,1.00005953364299,0.0001627883838514216
-0.36501148904644654,-0.36501148904644654,0.999864157675475,0.00016174125079075765
-0.364386086644663,-0.364386086644663,0.9998686752849366,0.00016166131065341224
-0.36396790006838275,-0.36396790006838275,1.0001115857878276,0.0001627013634534864
-0.36345815226595735,-0.36345815226595735,1.0000656264843424,0.00016216254531678645
