time,time,flux,flux_err
-0.49951689669796906,-0.49951689669796906,0.9999899658632155,0.00011826352823917875
-0.4986964064373751,-0.4986964064373751,0.9999681546352517,0.00011821180775435888
-0.49795378227354375,-0.49795378227354375,0.9998079028093609,0.0001078962094618632
-0.4972721221107349,-0.4972721221107349,0.9999598765583102,0.00010789826056039333
-0.49659057065073287,-0.49659057065073287,1.0000004455649294,0.00010788596591302295
-0.49590912972707885,-0.49590912972707885,1.000163694161858,0.00010787694623276038
-0.4952278018979996,-0.4952278018979996,0.999966760736126,0.00010786848985771494
-0.4945465886274178,-0.4945465886274178,0.99996991187483,0.0001078836826731945
-0.49386549186965567,-0.49386549186965567,1.0000798625941218,0.000107869393376372
-0.4931845138205972,-0.4931845138205972,0.9999415549427082,0.00010786606641781415
-0.4925036560664012,-0.4925036560664012,0.9999844520661695,0.00010786185430498685
-0.49182292116456666,-0.49182292116456666,0.9998386603698455,0.00010786239430582991
-0.4911180918694299,-0.4911180918694299,1.0001638575276153,0.00010784644730789939
-0.4902792414955911,-0.4902792414955911,1.0000329544738895,0.00010785630314442943
-0.48908705836292937,-0.48908705836292937,0.999840670028669,0.00010785755194731947
-0.48796399511993516,-0.48796399511993516,1.000123987408314,0.00010786015150602111
-0.48687119600217554,-0.48687119600217554,1.0000476353903942,0.00010784963082703283
-0.4856666407569719,-0.4856666407569719,0.9998744288583525,0.00010783281528595198
-0.48440559787413806,-0.48440559787413806,0.9999572975723584,0.00010786056691293387
-0.482674867012247,-0.482674867012247,0.9998957666549366,0.00010785230014530112
-0.48041283858474343,-0.48041283858474343,0.9999964534821617,0.00010787998902854118
-0.47703139054283383,-0.47703139054283383,0.999889524223127,0.00010783919798620838
-0.47303829369193406,-0.47303829369193406,1.0001633702050943,0.00010781082972767418
-0.4695951762078039,-0.4695951762078039,1.0000053104475115,0.000107816776941387
-0.46615489978721597,-0.46615489978721597,0.9999754284606327,0.00010784624749301405
-0.46271754458430225,-0.46271754458430225,0.9999819387374564,0.0001078824395020693
-0.4592832041780639,-0.4592832041780639,1.0000313640341059,0.00010788480672253658
-0.45585198885091816,-0.45585198885091816,0.9999057690917699,0.00010788395209510832
-0.4531946573013556,-0.4531946573013556,1.0000315687227064,0.00010785300222639887
-0.4516524471233424,-0.4516524471233424,0.9999232848776897,0.00010836553665221713
-0.45042992046655855,-0.45042992046655855,0.9999794395126103,0.00010821312370172047
-0.4488454524303961,-0.4488454524303961,1.0002785687089668,0.00010785587567336481
-0.4475768562500889,-0.4475768562500889,0.9999968686313425,0.00010785288860823829
-0.4463509613575297,-0.4463509613575297,0.9998335859678769,0.00010785466801287253
-0.44484553232323376,-0.44484553232323376,0.9999986881456294,0.00010785453663796428
-0.4437328433865332,-0.4437328433865332,0.9998839901486998,0.00010783909813152791
-0.44257591827336,-0.44257591827336,0.9998916966970631,0.00010784854588924177
-0.44126482655337895,-0.44126482655337895,1.0000261142730993,0.00010784523050773074
-0.4395829132889048,-0.4395829132889048,0.9998631114972703,0.00010785702090438378
-0.43785742010513784,-0.43785742010513784,1.0000531318203332,0.00010785355506870901
-0.43568576496254535,-0.43568576496254535,0.9997824907835108,0.00010786634802481699
-0.43246415899920976,-0.43246415899920976,1.0000933577739448,0.00010814696888230291
-0.4305290483745921,-0.4305290483745921,0.9999731069967911,0.00010841558699099575
-0.42879767089834786,-0.42879767089834786,0.9999714163461609,0.00010805093364812544
-0.426493948809366,-0.426493948809366,1.0001812458216928,0.00010787284083464398
-0.42372542105877076,-0.42372542105877076,1.0000990679367898,0.00010886561717846309
-0.42227748268051074,-0.42227748268051074,0.9997182826367466,0.00010814513369604608
-0.4211401370266685,-0.4211401370266685,0.9998804535290441,0.00010831932484886849
-0.4199174880151986,-0.4199174880151986,0.9999863864245331,0.00010824859156940286
-0.4183503321473836,-0.4183503321473836,1.0000495546110197,0.00010815868072026406
-0.4173000081565988,-0.4173000081565988,1.0000698961200392,0.00010807466005649294
-0.4164711359066132,-0.4164711359066132,1.0000861164929282,0.00010794620008691756
-0.415644112406153,-0.415644112406153,1.000030654993953,0.00010793119886675319
-0.41467852295245394,-0.41467852295245394,1.0000393358710515,0.00010798180329225455
-0.41356124202720823,-0.41356124202720823,0.9998576098255235,0.0001079052409367281
-0.4123993207766034,-0.4123993207766034,0.999926599703709,0.00010791409019798927
-0.4112910614916473,-0.4112910614916473,0.9999404823954237,0.00010789526424842754
-0.4101881742884871,-0.4101881742884871,1.0000611153312273,0.00010788305688903879
-0.4094379003632639,-0.4094379003632639,1.0001157019438458,0.00010795287312936597
-0.40875588688068093,-0.40875588688068093,0.999822654984208,0.00010793750569502728
-0.4080739740500576,-0.4080739740500576,1.0000070274932562,0.00010790781884491805
-0.40739216455840505,-0.40739216455840505,0.9999846403995685,0.00010791761561099289
-0.40671059040396357,-0.40671059040396357,0.9999927270513096,0.00010791255231305048
-0.4060311312874546,-0.4060311312874546,1.0001574796786663,0.00010790398013726474
-0.40534963802419954,-0.40534963802419954,0.9999575931366241,0.00010787336410770876
-0.40466825627154324,-0.40466825627154324,0.9999726532458141,0.00010787863249687553
-0.40398698822173174,-0.40398698822173174,1.0001492032063148,0.00010788230316880737
-0.40330583510003637,-0.40330583510003637,1.0000468765169512,0.00010788007594676174
-0.40262479885350333,-0.40262479885350333,0.9999433205145529,0.00010785634904281419
-0.4019438826624537,-0.4019438826624537,0.9998681764025225,0.0001078409537411127
-0.40126308797989624,-0.40126308797989624,0.9999401760961343,0.0001078661098395885
-0.40058241579099557,-0.40058241579099557,1.000102131595271,0.00010785615776236805
-0.3998549652911606,-0.3998549652911606,0.9999065731656257,0.00010786911835891224
-0.3988001895369962,-0.3988001895369962,0.9997305589309725,0.00010785145007433431
-0.3976776809213334,-0.3976776809213334,1.0000356566676585,0.00010786472414397339
-0.3965815288152953,-0.3965815288152953,1.0000903608482017,0.00010784974816610787
-0.3953792098713166,-0.3953792098713166,0.9999043023321162,0.00010784362533721177
-0.39426748130790656,-0.39426748130790656,1.0001099685829113,0.00010784149908955836
-0.39275713150345837,-0.39275713150345837,1.0000168430041017,0.0001078501526946971
-0.39099546710058347,-0.39099546710058347,1.00016296022436,0.00010786458320844543
-0.38808854346352745,-0.38808854346352745,0.9999119891559174,0.00010786355182628529
-0.38447129816995584,-0.38447129816995584,1.000141456993751,0.00010783507870015948
-0.38068901268125044,-0.38068901268125044,0.9998508202153943,0.00010779250312483062
-0.37724707422385106,-0.37724707422385106,1.0000737241044724,0.00010783403201983616
-0.37380800867467767,-0.37380800867467767,1.0000129261453552,0.00010784431568304209
-0.3703719024088059,-0.3703719024088059,0.9999055327943879,0.0001078761906896044
-0.3669388538808562,-0.3669388538808562,1.000184679765285,0.0001079037482302635
-0.3637773358706909,-0.3637773358706909,1.000078321154887,0.00010789161626953248
-0.3619287287307088,-0.3619287287307088,0.9999964035663778,0.00010785832558075205
-0.3604136102505436,-0.3604136102505436,1.0000183439448496,0.00010834767267578485
-0.35919124695283244,-0.35919124695283244,1.0001251204199335,0.0001082136245871556
-0.3575813909061253,-0.3575813909061253,0.9999611221086683,0.00010783517405267299
-0.3563604136732465,-0.3563604136732465,1.0000797765612102,0.00010785362588072362
-0.3550708985225356,-0.3550708985225356,1.0001077264910982,0.00010782755400247943
-0.3536319481812825,-0.3536319481812825,1.0000719294115783,0.00010784814459347133
-0.3525165157712763,-0.3525165157712763,0.9998418680972281,0.00010784101023886107
-0.35140091171706445,-0.35140091171706445,0.9999364199261997,0.00010784497951158071
-0.3499651280377293,-0.3499651280377293,0.9999075151557498,0.00010784368426337192
-0.3482488112502324,-0.3482488112502324,0.9998270880173374,0.00010783931357916511
-0.3465848454856314,-0.3465848454856314,1.000009896318105,0.0001078491273828343
-0.34404768718377454,-0.34404768718377454,1.0001189048596406,0.0001078782112425141
-0.34100973841850646,-0.34100973841850646,0.9999659909241082,0.00010835647972013427
-0.33921028140830456,-0.33921028140830456,1.0000529462851224,0.00010818534300699196
-0.3374113806064997,-0.3374113806064997,1.000070105878186,0.00010803694412926448
-0.3343778754249797,-0.3343778754249797,0.9999652868658855,0.00010785730183433127
-0.3322103804348444,-0.3322103804348444,1.0000149331717112,0.00010884252996814291
-0.33111382204733675,-0.33111382204733675,1.0000427626415238,0.00010841190551894783
-0.32994255561716274,-0.32994255561716274,1.0003323896735226,0.00010806977838801405
-0.32862793733438594,-0.32862793733438594,1.0000619844183416,0.00010841211214818503
-0.3271072615512821,-0.3271072615512821,0.9999553620256064,0.00010810796038551569
-0.32617316500181914,-0.32617316500181914,0.9999703243247794,0.0001079758221389581
-0.3253489180242468,-0.3253489180242468,1.0001038042321535,0.00010796518417304963
-0.3245092859200668,-0.3245092859200668,1.000104179755913,0.00010792772955007615
-0.3234646504126431,-0.3234646504126431,1.0001991852205336,0.00010797082647729613
-0.32235256953063074,-0.32235256953063074,0.9999764603685268,0.0001079406229008424
-0.3212365620631317,-0.3212365620631317,0.9998687849184963,0.00010787917401389711
-0.3200715814877185,-0.3200715814877185,1.00007066816686,0.00010789364887761022
-0.31906258849267033,-0.31906258849267033,1.0000919018071526,0.00010787430380216622
-0.31833232438366393,-0.31833232438366393,1.0000307823423242,0.00010793278898441824
-0.3176503466493159,-0.3176503466493159,1.0000897705705643,0.00010792592730711023
-0.31696847017665275,-0.31696847017665275,1.000020838215819,0.00010790743392149232
-0.31628669703786727,-0.31628669703786727,0.9999623481322925,0.0001079425083989408
-0.31560503004075147,-0.31560503004075147,0.999933358802221,0.00010790367440667947
-0.31492347053062986,-0.31492347053062986,0.9999834907467525,0.0001078717737707233
-0.31424202155321834,-0.31424202155321834,0.999915027125635,0.00010788011177615718
-0.3135606853087666,-0.3135606853087666,1.0000880533330505,0.00010787617147971496
-0.31287946227676,-0.31287946227676,1.000133700359473,0.00010788806231033451
-0.31219835575975596,-0.31219835575975596,0.9999267484770318,0.00010785723506655083
-0.31151736770771093,-0.31151736770771093,0.9999337486452372,0.00010787396001522463
-0.31083649994470763,-0.31083649994470763,0.9998620908761413,0.00010787409489219097
-0.31015575528726913,-0.31015575528726913,0.9998732060868971,0.00010787170138054111
-0.3094751342170639,-0.3094751342170639,0.9999070237455712,0.0001078544285645901
-0.30864870663936017,-0.30864870663936017,0.9999180883661246,0.00010785798716298808
-0.3076554443970963,-0.3076554443970963,1.000177468085456,0.00010786440245252565
-0.30646013507794123,-0.30646013507794123,0.9999603643205652,0.00010785312442542108
-0.3053399113909109,-0.3053399113909109,0.9999525315092814,0.00010785399872991867
-0.30424443477168095,-0.30424443477168095,0.9999118803762326,0.00010787153642564
-0.30302474157797404,-0.30302474157797404,0.9999997168326352,0.00010783874612395744
-0.3014104826390394,-0.3014104826390394,1.0001091675540867,0.0001078652994474835
-0.299586982888286,-0.299586982888286,0.9999106083999771,0.00010785993646052418
-0.29644173483829944,-0.29644173483829944,1.0000376311520642,0.00010785336970147181
-0.29270127541094554,-0.29270127541094554,1.0000313653868986,0.00010781684508587377
-0.289028712707659,-0.289028712707659,0.9998215134086463,0.00010779235946442326
-0.2855873938999139,-0.2855873938999139,0.9999137565183579,0.000107834224667799
-0.2821489666654088,-0.2821489666654088,1.0001367682818179,0.00010786019058199809
-0.27871351823196167,-0.27871351823196167,0.9999399802100843,0.00010788442677302672
-0.275281151944364,-0.275281151944364,1.0003600423348789,0.00010790512633623872
-0.27236777705766146,-0.27236777705766146,1.0000494184580275,0.00010787698825577013
-0.27057381534104935,-0.27057381534104935,0.9999970755576368,0.00010786649596614413
-0.2692563734090072,-0.2692563734090072,1.0001796765604252,0.00010867515667488574
-0.2678586966736475,-0.2678586966736475,1.000113172221539,0.0001078589504202952
-0.2663378990459023,-0.2663378990459023,0.9999501912268972,0.00010784727772924647
-0.2652195188209589,-0.2652195188209589,1.0001614992840373,0.00010785258084922798
-0.263735278522654,-0.263735278522654,1.0002364734241944,0.00010785387575693438
-0.26247158116602803,-0.26247158116602803,0.9998291721529379,0.00010783237779054395
-0.2613102895913471,-0.2613102895913471,0.9998431660539356,0.00010784991746582272
-0.26018818902157365,-0.26018818902157365,0.9999198938176846,0.00010782675466372452
-0.25864086084475274,-0.25864086084475274,0.9999167926807567,0.00010784331380777639
-0.2569657472500694,-0.2569657472500694,0.9999557815206284,0.00010784429380020005
-0.25523452361885574,-0.25523452361885574,1.000060222465691,0.0001078705427148527
-0.25238438388259965,-0.25238438388259965,0.9999780651790079,0.00010786850492830989
-0.24962311652343488,-0.24962311652343488,0.9998926036881756,0.00010834841182033917
-0.24789160885848105,-0.24789160885848105,1.000132872594321,0.00010825952898596305
-0.2459574172986322,-0.2459574172986322,1.0001217153701913,0.00010795419613035117
-0.24280032419919734,-0.24280032419919734,0.9998435193910058,0.00010839828106868244
-0.2410173377589672,-0.2410173377589672,1.0000520126307344,0.00010825998209733735
-0.23987859309854684,-0.23987859309854684,1.000077874360337,0.00010839835555345372
-0.23877601817075628,-0.23877601817075628,0.9999642555807757,0.00010826779471180519
-0.23731315854020069,-0.23731315854020069,0.9997659995249657,0.00010818564738129864
-0.23591226014250424,-0.23591226014250424,0.9999495430549515,0.00010809524815147412
-0.23505384271629737,-0.23505384271629737,1.0001455224470208,0.00010796947663211517
-0.23421301718699397,-0.23421301718699397,1.000039796002668,0.00010795683138993535
-0.23333161393820773,-0.23333161393820773,0.9999754799209966,0.00010797481945594397
-0.23229710591404001,-0.23229710591404001,1.0000676865065101,0.00010790994130197755
-0.23113636955386027,-0.23113636955386027,0.9999450823497709,0.00010794535063979312
-0.2300270278690732,-0.2300270278690732,0.9998748233867895,0.00010790927576705498
-0.22891233241025474,-0.22891233241025474,0.9999459490853816,0.00010786170832215741
-0.2279043286893284,-0.2279043286893284,1.0001212848008518,0.00010794282604091151
-0.22722226701516773,-0.22722226701516773,0.9999695434209845,0.00010792831760246614
-0.2265403064826387,-0.2265403064826387,0.999897824397707,0.00010792511679902516
-0.2258584477014665,-0.2258584477014665,1.0001863277970293,0.00010794185900629286
-0.2251766939625668,-0.2251766939625668,0.9999859014401933,0.00010790570636006655
-0.22449504722244457,-0.22449504722244457,1.0000301626047179,0.00010788562339499185
-0.22381350930372718,-0.22381350930372718,0.9999460474346709,0.00010788945091726823
-0.2231320822822454,-0.2231320822822454,0.9999138282451769,0.00010788045515087107
-0.22245076860563132,-0.22245076860563132,1.0000543431630138,0.00010786949974528168
-0.2217695699786418,-0.2217695699786418,0.9999927817576217,0.00010787082532244317
-0.2210884879808873,-0.2210884879808873,0.9997479801618046,0.00010786017493175475
-0.22040752530447208,-0.22040752530447208,0.9999128704274977,0.00010785602014304933
-0.21972834409752978,-0.21972834409752978,0.9999933918699876,0.0001078785018624971
-0.21904883508759668,-0.21904883508759668,0.9999732821916311,0.00010786255687466161
-0.21836083898524522,-0.21836083898524522,1.0000322316837393,0.00010787131020753918
-0.21752544674964155,-0.21752544674964155,1.0000795902684052,0.00010784630152356862
-0.21642010061405018,-0.21642010061405018,1.0000887180951374,0.00010786569751188898
-0.21532093810237712,-0.21532093810237712,1.0000629542031418,0.00010784575383479436
-0.2141206129133934,-0.2141206129133934,1.000166528020873,0.00010784825466068409
-0.2130064630990091,-0.2130064630990091,1.0001952137460326,0.0001078564843724728
-0.21178335961230915,-0.21178335961230915,0.9999419284099675,0.0001078315648441199
-0.2101382558401383,-0.2101382558401383,0.9999544499572306,0.00010784942059408791
-0.20807433968875558,-0.20807433968875558,1.0000305162353949,0.00010786497859504756
-0.20479537968276418,-0.20479537968276418,0.9999557744806309,0.00010784727422309716
-0.2009280050820962,-0.2009280050820962,0.9998150894135639,0.0001077976120374069
-0.19736854583825333,-0.19736854583825333,0.9999770028774803,0.00010780903690629104
-0.19392785155869205,-0.19392785155869205,1.0001024749831515,0.00010784645339854074
-0.19049006630011717,-0.19049006630011717,1.000008664732958,0.0001078625313963289
-0.1870552803389728,-0.1870552803389728,1.0001276286783969,0.00010787911510036045
-0.18362360287064802,-0.18362360287064802,0.9999485545817464,0.00010788799371660865
-0.18098541328217835,-0.18098541328217835,1.0000497875072787,0.00010787654284806535
-0.1793116228414874,-0.1793116228414874,1.0000251078859514,0.00010784520498172037
-0.1780285211185401,-0.1780285211185401,1.0002466607286595,0.00010865416166925643
-0.17660923633884523,-0.17660923633884523,0.9999049751310644,0.00010784438183805769
-0.17509836930403253,-0.17509836930403253,1.0000565337389804,0.00010784792439722359
-0.17398234021820827,-0.17398234021820827,0.999948274028563,0.00010784623003223853
-0.17247720155210117,-0.17247720155210117,1.0001979905375038,0.00010784767940418248
-0.17125387712439988,-0.17125387712439988,1.0001270537676281,0.00010784381656082262
-0.17013942427947767,-0.17013942427947767,0.9998610031657048,0.00010783038648103449
-0.16894045610824832,-0.16894045610824832,0.9999911625861941,0.00010784286711848483
-0.16734747545342543,-0.16734747545342543,1.0002587940876875,0.00010787877911013342
-0.16562548886067816,-0.16562548886067816,1.000081645476282,0.00010786447833148312
-0.16384855370415607,-0.16384855370415607,0.9998922206047312,0.00010786702734797702
-0.1607211997761624,-0.1607211997761624,0.9999708247591771,0.00010788026984421856
-0.15830596070663888,-0.15830596070663888,0.9998426900417012,0.00010850256248366242
-0.15657387476385337,-0.15657387476385337,1.0001027442859434,0.00010807842744991053
-0.15443327187313116,-0.15443327187313116,1.0000635258410078,0.00010795330749325349
-0.15127996286173584,-0.15127996286173584,1.0001113837219868,0.00010839296762799051
-0.149854774169944,-0.149854774169944,0.9999847160059734,0.00010856837544864595
-0.14868226441176374,-0.14868226441176374,0.9999552628666166,0.0001080750474954535
-0.14754706965613879,-0.14754706965613879,1.0000502816489987,0.00010827171621622055
-0.1460077498020837,-0.1460077498020837,0.9998623702601671,0.00010832132363079926
-0.14476921989844413,-0.14476921989844413,1.0001507503548888,0.00010798582422340329
-0.14391687264724168,-0.14391687264724168,1.0000550141922455,0.00010797559842399961
-0.14303672882597313,-0.14303672882597313,0.9999972099999536,0.00010800356749150609
-0.14200369983809652,-0.14200369983809652,0.9999911448629712,0.00010790849200431644
-0.1408442712163378,-0.1408442712163378,0.9999416440804685,0.00010796312416013894
-0.13973373342014384,-0.13973373342014384,1.0000254917969402,0.00010792966773605658
-0.13861846345389495,-0.13861846345389495,0.9999601395542422,0.00010788481139875587
-0.13745173349016113,-0.13745173349016113,1.0001953441260059,0.00010790109134393754
-0.13666138058615615,-0.13666138058615615,0.9999316390980864,0.00010793910449702453
-0.1359793630799686,-0.1359793630799686,1.0000704348841367,0.00010793159355603475
-0.13529744610204944,-0.13529744610204944,0.9999264528915152,0.00010792482304744983
-0.13461563294331427,-0.13461563294331427,1.0001740213716712,0.00010793844609653101
