time,time,flux,flux_err
-0.49989724325028345,-0.49989724325028345,1.0001702507769512,0.0001747251070600041
-0.49971947136380096,-0.49971947136380096,0.9998459593224233,0.00017315240739646708
-0.4995790976356659,-0.4995790976356659,1.0000742477852431,0.00015768292899174223
-0.49939256616274863,-0.49939256616274863,1.0000849418174689,0.00016093320159941044
-0.4992852453723799,-0.4992852453723799,1.000214298638051,0.00017180754694847328
-0.4991457107285953,-0.4991457107285953,0.9999923232016888,0.00017210735604479321
-0.4990267437738794,-0.4990267437738794,1.0001121402932234,0.00017620783934796887
-0.49896575470074256,-0.49896575470074256,0.9999561575420024,0.0001919506401366178
-0.49887219014379414,-0.49887219014379414,0.9998956425555017,0.0001759361737851159
-0.49876043334236897,-0.49876043334236897,1.0000485746010024,0.00015882195006959333
-0.49858663681123405,-0.49858663681123405,0.9998976649552859,0.00017496866015168528
-0.49845385930498765,-0.49845385930498765,1.0001477160334598,0.000158144158919704
-0.4982702210192599,-0.4982702210192599,0.9999266553847923,0.0001607916271846623
-0.49815617173471194,-0.49815617173471194,1.000028030396666,0.00016977682956171837
-0.4980037661351787,-0.4980037661351787,1.0001596574782678,0.0001741181170320342
-0.49789171515406566,-0.49789171515406566,1.0000678857846474,0.0001763016365432048
-0.4978243392402192,-0.4978243392402192,0.9999717638246584,0.00018941822463924423
-0.4977299246382586,-0.4977299246382586,1.0000028555173652,0.00017746275841774438
-0.49763239935189174,-0.49763239935189174,1.000233815750131,0.00015619860866391736
-0.4974612683545274,-0.4974612683545274,0.9999844846946487,0.00017630829705633455
-0.49733181111384966,-0.49733181111384966,0.9998870809904463,0.00015829005322453242
-0.4971506975906948,-0.4971506975906948,0.9999919291610535,0.00016037213793491727
-0.49701175228508987,-0.49701175228508987,1.0000671102637004,0.00016013642305640486
-0.4968781439702695,-0.4968781439702695,1.0000291160206345,0.00018351356129312502
-0.49675666096784427,-0.49675666096784427,0.9999106661778331,0.00017537905099614576
-0.49668259286548844,-0.49668259286548844,1.0002829009474832,0.00018826485849444117
-0.49658734744579647,-0.49658734744579647,0.9999304575271324,0.00016519721649344894
-0.4964992026201685,-0.4964992026201685,1.000124899329648,0.00016923840141555322
-0.49633756865370626,-0.49633756865370626,1.0003682989079412,0.00017722187812457244
-0.4962036017184744,-0.4962036017184744,1.0003444313757732,0.00016083426705590302
-0.4960077997372423,-0.4960077997372423,1.0000796610763083,0.0001607332771502583
-0.49585452769662763,-0.49585452769662763,0.999874680255385,0.00016016279725831765
-0.4957209157262469,-0.4957209157262469,1.0000772948474208,0.0001833720124352661
-0.49559942344783964,-0.49559942344783964,0.9998733441587462,0.00017538294908542873
-0.4955253559903497,-0.4955253559903497,0.9999509125570964,0.00018833387764897577
-0.49543012787443674,-0.49543012787443674,0.9999181602014137,0.00016516206376808313
-0.4953419708337776,-0.4953419708337776,0.9997965871531289,0.00016922798910533373
-0.49518034396059535,-0.49518034396059535,1.0000569298613537,0.00017732744970120826
-0.49504637649631034,-0.49504637649631034,1.0000209910418199,0.00016078302801550095
-0.49485056424120444,-0.49485056424120444,1.0001066570525663,0.00016074140489953794
-0.49466915585586546,-0.49466915585586546,0.9999044715372163,0.00016216846784834212
-0.4945167654639988,-0.4945167654639988,0.9999694073355314,0.00017210495865098953
-0.4943978143882418,-0.4943978143882418,1.0000605261932038,0.00017614426574035364
-0.4943368146580667,-0.4943368146580667,1.0002203854961071,0.0001919820788580911
-0.4942432904653685,-0.4942432904653685,0.9996902349576088,0.00017590249259105128
-0.49413153812221255,-0.49413153812221255,1.0000573135086797,0.00015888071419957838
-0.4939763350937369,-0.4939763350937369,1.0000979748167245,0.00017292715399555268
-0.49386013255106603,-0.49386013255106603,1.0001883032785348,0.00015825922677195983
-0.4936789867960954,-0.4936789867960954,1.0000872482402519,0.0001603378534291247
-0.49351193131304855,-0.49351193131304855,1.0001624998637957,0.00016213297286319048
-0.49335952915002396,-0.49335952915002396,1.0000143460931932,0.00017210932523467628
-0.4932405820429153,-0.4932405820429153,1.0001219230264728,0.00017616907832179702
-0.4931795796616939,-0.4931795796616939,1.0001817603280638,0.00019196395030167344
-0.4930735474458288,-0.4930735474458288,0.9999390487106116,0.00017258992787128698
-0.49294195880286223,-0.49294195880286223,1.0001052160792039,0.0001590279792216892
-0.4928166411225618,-0.4928166411225618,0.9998216174650117,0.00018331278164550227
-0.4927029063684586,-0.4927029063684586,0.9999632648278688,0.00015819969002736514
-0.49248793796756446,-0.49248793796756446,1.000191900777386,0.00016304683843300138
-0.4923223146634257,-0.4923223146634257,0.9999920028521165,0.00017610617480112823
-0.4921742322787793,-0.4921742322787793,1.0002409855979122,0.00017198169416346402
-0.4920752592694839,-0.4920752592694839,0.9999205307692914,0.0001761344772998509
-0.49200218628699305,-0.49200218628699305,0.9999569642224859,0.00018045532449492986
-0.4918999632170369,-0.4918999632170369,1.0001717473003744,0.0001689915685771346
-0.4918094493235515,-0.4918094493235515,0.9998232452640272,0.0001616361288577234
-0.4916618826327408,-0.4916618826327408,0.9998830092397467,0.0001729468623036829
-0.4915456801860216,-0.4915456801860216,0.9997848033159155,0.00015817502527775304
-0.4913306997868915,-0.4913306997868915,1.0001138297134555,0.00016303588549816008
-0.49116508947230386,-0.49116508947230386,0.9999961187446921,0.0001760689884415339
-0.4910169951478792,-0.4910169951478792,1.0002146081202616,0.00017199518551905146
-0.4909180277849202,-0.4909180277849202,0.9998108379090784,0.00017606844537129058
-0.4908449560365057,-0.4908449560365057,0.999934425193573,0.00018037950545054377
-0.49074273068182495,-0.49074273068182495,1.0001225746824698,0.00016894242598312307
-0.4906090031298504,-0.4906090031298504,0.9997119517679309,0.00015899909748764567
-0.49049292958055163,-0.49049292958055163,0.999759515775188,0.0001829099725101858
-0.4903884540085869,-0.4903884540085869,0.9996880339754235,0.00015817040374907417
-0.49017346160953823,-0.49017346160953823,1.000100981866776,0.00016298835605379054
-0.49000003368371947,-0.49000003368371947,1.0000615987684032,0.0001762662335319466
-0.48983534600923806,-0.48983534600923806,1.0002422894034388,0.00017380759791475
-0.4897560079496657,-0.4897560079496657,1.0000708255924697,0.00017405975566883242
-0.48968772578926406,-0.48968772578926406,1.0000310195601647,0.00018052180255821604
-0.48958549814850016,-0.48958549814850016,1.0000090282778458,0.00016899172910414222
-0.48946794282681483,-0.48946794282681483,1.0000678825437197,0.0001623656513483716
-0.48933570270231713,-0.48933570270231713,0.9995884752710454,0.00018272514942806647
-0.4892477633337478,-0.4892477633337478,0.9997263146040926,0.0001580499112198474
-0.48906438682421366,-0.48906438682421366,0.9995707060011979,0.00016072728058044686
-0.4888798349821002,-0.4888798349821002,1.0000348498980265,0.00017644098634345094
-0.488702520883885,-0.488702520883885,0.9997419166208001,0.0001720598880605616
-0.4886035648203972,-0.4886035648203972,1.000264372582419,0.0001760594239686373
-0.4885304955465301,-0.4885304955465301,1.0001315595177886,0.00018044076476866945
-0.48842826561482866,-0.48842826561482866,0.9999450841698387,0.00016892829529000227
-0.48831176333355303,-0.48831176333355303,1.0000100914023426,0.00016091368859728832
-0.48817847582856755,-0.48817847582856755,1.0000355576696558,0.0001826962846831331
-0.48809053640479194,-0.48809053640479194,1.0001541366296387,0.00015804443090488963
-0.48790715135169194,-0.48790715135169194,1.0000859588685294,0.0001607805265658703
-0.48772260554202373,-0.48772260554202373,0.9997457803966873,0.0001765911115831529
-0.4875452837507396,-0.4875452837507396,0.9999086373439277,0.00017201375524948054
-0.4874463333402105,-0.4874463333402105,0.999650146323342,0.00017610744651730718
-0.4873732653078548,-0.4873732653078548,0.9996927604332002,0.00018048847978080165
-0.4872710330826749,-0.4872710330826749,1.0002118899818953,0.00016904660789508335
-0.48713993872547123,-0.48713993872547123,1.000066204243239,0.00015948516124172034
-0.48700395727799445,-0.48700395727799445,1.0002737934352628,0.00018236848361451473
-0.4869189194216119,-0.4869189194216119,1.00012542705706,0.00015940270740045319
-0.48674991588503075,-0.48674991588503075,0.9996549484324632,0.00016073871321563624
-0.4865653761099168,-0.4865653761099168,1.0003269760444393,0.0001765842077274087
-0.4863880466161902,-0.4863880466161902,0.9999560280685402,0.00017193373279768254
-0.4862891018632126,-0.4862891018632126,1.000134432459021,0.0001761341713932527
-0.4862160350747047,-0.4862160350747047,1.000271439729072,0.00018046066556593506
-0.48611380055074277,-0.48611380055074277,1.0000897243476363,0.00016900901228067606
-0.4859827164366209,-0.4859827164366209,1.000172709663095,0.00015945496600346703
-0.48584673095105585,-0.48584673095105585,0.9999639704287704,0.00018221151830306867
-0.48576169659114043,-0.48576169659114043,0.9998242693106251,0.00015934473876609584
-0.48559376688373845,-0.48559376688373845,0.9999688163714099,0.0001740103839466865
-0.48545238218208625,-0.48545238218208625,1.0002504156075376,0.00016172650108355229
-0.48525887498155384,-0.48525887498155384,1.0002803292990174,0.0001720423009538438
-0.48513995563903334,-0.48513995563903334,1.0000614721571515,0.00017606767454159236
-0.4850789348510375,-0.4850789348510375,1.000260106861062,0.00019179989662932193
-0.48497546448552953,-0.48497546448552953,0.9997147204709188,0.00017249214134379073
-0.4848591830412431,-0.4848591830412431,1.0002062752369238,0.0001571117606904389
-0.4847067952324721,-0.4847067952324721,1.0001823456169376,0.00018203637233940494
-0.4846208868734834,-0.4846208868734834,1.0001387029259567,0.0001590254090140588
-0.48448008883148075,-0.48448008883148075,1.0004310397689309,0.00016174453461529007
-0.4842951520308588,-0.4842951520308588,0.9998925146210615,0.00016169848401962592
-0.4841016386762192,-0.4841016386762192,1.0001562911318576,0.0001721704487503423
-0.48398272329853287,-0.48398272329853287,0.9999317639459218,0.00017609126490124178
-0.4839216999018106,-0.4839216999018106,0.9997988734567096,0.00019202647046922373
-0.4838182356241873,-0.4838182356241873,1.0000673505948023,0.00017256242893649458
-0.483701961432007,-0.483701961432007,0.999978074045105,0.00015709483342633802
-0.4835495683773331,-0.4835495683773331,1.000071986086604,0.00018192115894670018
-0.48346162870858506,-0.48346162870858506,1.0000770410891886,0.00015793365068858902
-0.4833063749284179,-0.4833063749284179,1.0002690191207324,0.00016278952254848548
-0.48313792188540106,-0.48313792188540106,0.9999167011591755,0.0001616707215021186
-0.482944402371453,-0.482944402371453,1.0001058651257337,0.00017213010901092897
-0.48284344243627403,-0.48284344243627403,0.999951122359796,0.00017943589389463939
-0.4827803072928418,-0.4827803072928418,1.0001634387302498,0.00018949182683605082
-0.4826835361189694,-0.4826835361189694,1.0000373380159098,0.00017516688591311482
-0.4825795876139637,-0.4825795876139637,1.0000706901864702,0.0001568735118488116
-0.48239234152453037,-0.48239234152453037,0.9999672409587166,0.00018167683600926586
-0.4823116962892982,-0.4823116962892982,0.9999741064980737,0.0001553043331523632
-0.48216562506044625,-0.48216562506044625,0.9999871745446921,0.00016166021704674033
-0.48199447318711464,-0.48199447318711464,0.9998120636213124,0.00016424534858852237
-0.4817979518071979,-0.4817979518071979,0.999992609309319,0.0001731598297989838
-0.4816862113772629,-0.4816862113772629,1.0000841391173758,0.00017952912214849986
-0.4816126064167065,-0.4816126064167065,1.0001403221309222,0.00018955792192157017
-0.4815263082126592,-0.4815263082126592,0.9997594698256572,0.00017511692416345083
-0.48144040927335824,-0.48144040927335824,1.000027841560399,0.00015456337465046829
-0.48126760322869017,-0.48126760322869017,1.000183070335054,0.00018091727852077258
-0.4811678980091301,-0.4811678980091301,0.9999639302359185,0.00015804382417570773
-0.48104119330274103,-0.48104119330274103,0.9999576926022901,0.00015908820006561977
-0.4808593314249663,-0.4808593314249663,1.0002186696650137,0.00016459450867263
-0.4806604135631062,-0.4806604135631062,1.0000226204822849,0.00017425445284528041
-0.4805477272369728,-0.4805477272369728,0.9999354537950869,0.00017802235848800627
-0.4804659278432723,-0.4804659278432723,1.0000858958826773,0.0001919107330555021
-0.48038015172590465,-0.48038015172590465,0.9998502441316848,0.00017404238748031702
-0.4802971505485914,-0.4802971505485914,1.0001442094837738,0.0001516729753235595
-0.48010328203875474,-0.48010328203875474,0.999778721176105,0.0001785959680061997
-0.4799945488195704,-0.4799945488195704,0.9999214361824167,0.0001642540203441019
-0.4798839651862409,-0.4798839651862409,0.9997617573426798,0.00015906028711643608
-0.479692839682059,-0.479692839682059,0.9997821784893393,0.00016454917476926538
-0.47950317724655633,-0.47950317724655633,1.0003231488622517,0.00017412875220784352
-0.47939049946741646,-0.47939049946741646,1.0002400451346325,0.00017802560521405883
-0.47932101293333174,-0.47932101293333174,0.9998779627306374,0.00018840085698879332
-0.4792376632007006,-0.4792376632007006,0.9998536695748326,0.0001615065784997442
-0.47915612609771757,-0.47915612609771757,0.9997735800429393,0.00016898681845834692
-0.4789916513191429,-0.4789916513191429,1.000079684105871,0.0001763573437811487
-0.4788396482131816,-0.4788396482131816,1.000279458437697,0.0001574024350541615
-0.4787351337936059,-0.4787351337936059,0.9998340454871993,0.0001652207043231588
-0.4785577647801517,-0.4785577647801517,1.0001103839487797,0.000163683241178325
-0.4783459409321381,-0.4783459409321381,0.9997401961337065,0.00017426282853748952
-0.4782332717018164,-0.4782332717018164,0.9996811934764269,0.00017799733409386054
-0.4781623886862292,-0.4781623886862292,0.999936311679603,0.0001915125537617476
-0.4780804429515911,-0.4780804429515911,0.9999728633072497,0.00016149914948945834
-0.47799889365135184,-0.47799889365135184,0.9999309591651508,0.0001690055026177544
-0.4778344242855269,-0.4778344242855269,1.0003148398109543,0.00017633194789109
-0.47768242339866446,-0.47768242339866446,0.9999390772284672,0.00015735043942321218
-0.47757790687211354,-0.47757790687211354,1.0000454567169301,0.00016497939263100612
-0.4774005287821126,-0.4774005287821126,1.0000789724953347,0.00016366318194515478
-0.47718870461920915,-0.47718870461920915,0.999941392688015,0.0001742278545965808
-0.4770760439399339,-0.4770760439399339,0.9996629342768844,0.00017803865747110208
-0.47699589459715525,-0.47699589459715525,0.9998813495661405,0.00019153098428997334
-0.4769232227040504,-0.4769232227040504,0.9998035328481951,0.00016147236485831857
-0.4768416612089766,-0.4768416612089766,0.9999763738157711,0.00016899909891680622
-0.4766771972552476,-0.4766771972552476,0.999829217145102,0.00017636080771393808
-0.4765251985862335,-0.4765251985862335,0.9998257258222443,0.0001573418025940106
-0.47642067995202525,-0.47642067995202525,1.0001690787102053,0.00016473500919671677
-0.4762432927890359,-0.4762432927890359,0.999822537732113,0.00016366782020310768
-0.47603146830819015,-0.47603146830819015,0.9998683670879215,0.00017424299698626247
-0.47591881618246246,-0.47591881618246246,0.9998884683092271,0.0001780242809466584
-0.475838658249387,-0.475838658249387,1.0000534508059593,0.00019148845423814842
-0.47576600246415524,-0.47576600246415524,1.0002227207563998,0.00016151212009341952
-0.47568442876709016,-0.47568442876709016,1.0001560236379312,0.0001690623460409879
-0.475519970226992,-0.475519970226992,0.9997194500712288,0.00017626688087591925
-0.47536797377747464,-0.47536797377747464,0.9997789073722112,0.0001573577447634929
-0.4752634530355294,-0.4752634530355294,0.9998460239868475,0.0001644935573239423
-0.47512383067943914,-0.47512383067943914,0.9998165239438606,0.00016078711860419988
-0.47491313116384504,-0.47491313116384504,1.0002178265638484,0.00017675909436990292
-0.4747793501865772,-0.4747793501865772,1.0000977844384442,0.00017654495270279837
-0.47469947206790836,-0.47469947206790836,1.0001195889082473,0.00018991482086908891
-0.4746148335016812,-0.4746148335016812,1.000187364303902,0.00016502663440307082
-0.47452719632533447,-0.47452719632533447,1.0001754482928698,0.00016905246042334574
-0.4743627432016865,-0.4743627432016865,1.0000421559967356,0.00017633296887484992
-0.47421074897281984,-0.47421074897281984,1.000072247344337,0.0001573998201406043
-0.47412516873066013,-0.47412516873066013,1.0001167940051894,0.00015612888172709193
-0.474000157627745,-0.474000157627745,1.0001243150744066,0.00016620352967344917
-0.4738003291153802,-0.4738003291153802,0.9997952462180903,0.00017766187830198292
-0.4736390678289581,-0.4736390678289581,1.0000763101331007,0.00017423061340973708
-0.4735559399359374,-0.4735559399359374,1.0003367573139041,0.00019119779020188558
-0.4734764481588741,-0.4734764481588741,0.9998224169958799,0.0001677089176180588
-0.47338424274681756,-0.47338424274681756,1.0001855122499799,0.0001690496481242555
-0.47325152625140277,-0.47325152625140277,1.0000777035920154,0.00017376255900373056
-0.4730719310203426,-0.4730719310203426,1.0001061114117005,0.00015895558382826697
-0.47298907184372185,-0.47298907184372185,1.0001306930987117,0.00015512434551630147
-0.4728688063118682,-0.4728688063118682,1.0000756620241646,0.00016640181492109544
-0.47269196153046666,-0.47269196153046666,1.000591005554847,0.0001771454913348379
-0.47250527174309126,-0.47250527174309126,1.000413621665281,0.00015992789133532556
-0.4724084853383658,-0.4724084853383658,1.0000299785256348,0.00019126731677088758
-0.47233759540533243,-0.47233759540533243,1.000017630000384,0.00018022644227601572
-0.4722459470421029,-0.4722459470421029,1.0001687104098056,0.00017256582762662664
-0.4721371221074321,-0.4721371221074321,0.9999215217965796,0.00015704475483022579
-0.4719323172406519,-0.4719323172406519,0.9998873386396452,0.00017345554738158248
-0.47184278476868824,-0.47184278476868824,1.0003132702275572,0.00015729603680577034
-0.47171157878317443,-0.47171157878317443,0.9995956366153983,0.00016618600970097057
-0.4715733520595052,-0.4715733520595052,1.0003248799783917,0.00016058759928700626
-0.47136430808222374,-0.47136430808222374,0.9999513364214273,0.00017316259990764204
-0.47127113193114384,-0.47127113193114384,0.9999620584444562,0.00017937817590794726
-0.47119430591847616,-0.47119430591847616,0.9999205093130904,0.00019260429382579223
-0.4711112572444051,-0.4711112572444051,0.9996895428519241,0.00017511351154399262
-0.47101612720590535,-0.47101612720590535,1.000276684125446,0.00015459013278205314
-0.4708005411481963,-0.4708005411481963,0.9999109557851675,0.0001753630910301869
-0.4707049845660947,-0.4707049845660947,0.999950725291183,0.00015740503999192823
-0.4705871851840072,-0.4705871851840072,1.0001379589040584,0.00016353921141725245
-0.47039459581043275,-0.47039459581043275,0.9999055585627842,0.0001632367221265588
-0.47020707163084696,-0.47020707163084696,0.9998953272275329,0.0001731953862579051
-0.47011390088987925,-0.47011390088987925,0.9999515904893578,0.0001794226137299458
-0.47003707322173793,-0.47003707322173793,1.000157359798975,0.00019250826359498805
-0.4699540293801817,-0.4699540293801817,0.9999837605473528,0.00017513646998965228
-0.46985890228739324,-0.46985890228739324,1.0001410931039398,0.0001545899853484941
-0.4696433099675289,-0.4696433099675289,0.9999361037054344,0.00017536719613297583
-0.46954775982540015,-0.46954775982540015,1.0000036645370771,0.00015738481246238296
-0.4694021881891672,-0.4694021881891672,0.9999878396167453,0.0001633773846437353
-0.46922025648216276,-0.46922025648216276,1.0002623740477234,0.0001770325424949799
-0.4690484248110295,-0.4690484248110295,1.0002619204571528,0.00015905655289560953
-0.4689566698512692,-0.4689566698512692,1.0001171196260126,0.00017941427203841518
