time,time,flux,flux_err
-0.4999528458113976,-0.4999528458113976,1.0001603854611163,0.00014018109562265928
-0.49986972052720374,-0.49986972052720374,1.0000787490627085,0.0001298683276020168
-0.4997686876246007,-0.4997686876246007,0.9999261100585066,0.00012925923600262196
-0.49960140374896583,-0.49960140374896583,1.0000561118421363,0.00013641142412412928
-0.4994903647195315,-0.4994903647195315,1.0000522095259528,0.0001270123149941766
-0.4993486194667639,-0.4993486194667639,0.9999152391926668,0.00012832750213449882
-0.49924778479035015,-0.49924778479035015,0.9998741876245202,0.00012927602330384505
-0.4992017404991202,-0.4992017404991202,1.0000069678488117,0.00012841758804785856
-0.49916400673100725,-0.49916400673100725,1.0001833159666584,0.0001456398982521531
-0.499075642216485,-0.499075642216485,1.0000023002936562,0.00013149661326079207
-0.49895930926140863,-0.49895930926140863,0.9999149003536129,0.0001291621738619375
-0.4987997610180173,-0.4987997610180173,1.0000644623695285,0.00012801343050979425
-0.49867500785621816,-0.49867500785621816,1.0002224239356878,0.0001277205959112338
-0.498551252760808,-0.498551252760808,0.9999505683809791,0.00012637554720014028
-0.498424932625494,-0.498424932625494,0.9998987029226756,0.00013049907267698494
-0.49832677928206975,-0.49832677928206975,0.999648369852159,0.0001290288342498166
-0.49819947190990205,-0.49819947190990205,1.0001506426433442,0.0001292548333741334
-0.498096327696112,-0.498096327696112,1.000143514381893,0.00012953759748863598
-0.4979770239471691,-0.4979770239471691,0.9999352499764264,0.00013677341721611571
-0.497855926209013,-0.497855926209013,1.0001191844722228,0.0001409892574078841
-0.49769470328756144,-0.49769470328756144,0.9998280342949674,0.0001489561700129801
-0.49757844174746424,-0.49757844174746424,0.9997517151897138,0.00012700039465116184
-0.49738536675286016,-0.49738536675286016,0.9998962854303208,0.00013561690540279326
-0.4972063636116218,-0.4972063636116218,1.000121915434209,0.00012852989652875757
-0.497058556319098,-0.497058556319098,1.000147263462192,0.00013006662196672197
-0.49696154065604786,-0.49696154065604786,0.9999387402184648,0.0001309137401796536
-0.49684644035296516,-0.49684644035296516,1.000016864798883,0.00012653030875467232
-0.4967218876903644,-0.4967218876903644,0.9999917173333325,0.00013831858516531734
-0.49664838388562205,-0.49664838388562205,0.9999178413470208,0.00012833499925163236
-0.49650038401887286,-0.49650038401887286,1.0000393131375431,0.00012651171419399636
-0.4963472846633522,-0.4963472846633522,0.9999264544092427,0.00012964191665533316
-0.4961557104747044,-0.4961557104747044,0.9999699209903424,0.0001285140577588124
-0.4960529828123981,-0.4960529828123981,1.0001854825628338,0.00013741426735318281
-0.49597120296093633,-0.49597120296093633,1.000132429689458,0.00013812087028167034
-0.49583110203966496,-0.49583110203966496,1.0000356524660887,0.000131730160162055
-0.4957590759615414,-0.4957590759615414,0.9999504899442279,0.0001292646688162716
-0.49566213332291226,-0.49566213332291226,1.000267648187042,0.00012390956278748576
-0.4955492559558479,-0.4955492559558479,0.9998719789184104,0.0001281983351181999
-0.4954575217270758,-0.4954575217270758,1.0001756495801437,0.00012753748497672956
-0.4953894216683693,-0.4953894216683693,1.000067515467207,0.0001281627504725259
-0.49531956904102115,-0.49531956904102115,0.9999746699005115,0.0001463951389780482
-0.4952287947293371,-0.4952287947293371,0.9998536925426873,0.00012664866234645658
-0.49517736222187525,-0.49517736222187525,1.0000616190954694,0.0001336797482261074
-0.4950893995410297,-0.4950893995410297,0.999992969042842,0.00012947138386355038
-0.4948712758108741,-0.4948712758108741,1.00001875380155,0.00012912973274127005
-0.4947089426248567,-0.4947089426248567,1.000179893661967,0.00013738532351083245
-0.494558271652204,-0.494558271652204,1.0000480088536874,0.000128718364745096
-0.4944382043235237,-0.4944382043235237,1.0001622403705988,0.00012919380918861796
-0.494356614415301,-0.494356614415301,1.0001128356093048,0.00013707876033486997
-0.4942678567051189,-0.4942678567051189,1.0003748633214797,0.0001359557656590661
-0.4941646012710407,-0.4941646012710407,0.9999320226528443,0.0001289786152542004
-0.4941268845286686,-0.4941268845286686,0.9998824499126785,0.00012837520244701598
-0.4940436124888947,-0.4940436124888947,1.0001159290088062,0.0001382414645950476
-0.4939662462420529,-0.4939662462420529,0.9999790933806925,0.00013609865905057808
-0.4938591891608667,-0.4938591891608667,1.0001215766781542,0.0001306865328091971
-0.4937294759438373,-0.4937294759438373,0.9999741348936306,0.00012700207405113128
-0.49356824608985334,-0.49356824608985334,1.000181981030169,0.00013877931311434406
-0.49346287120133636,-0.49346287120133636,1.000119840566752,0.00013347451671668172
-0.4932831522601191,-0.4932831522601191,1.0000388874020687,0.0001290688051565912
-0.49308775122335646,-0.49308775122335646,1.0000584694002765,0.00013017308244064302
-0.49285006114805585,-0.49285006114805585,0.9999777725756822,0.00013949527191180666
-0.492670074509806,-0.492670074509806,1.0000960566909498,0.00012625874283426808
-0.4925511625042418,-0.4925511625042418,0.9999738154623209,0.00012993566993412672
-0.49248456381901634,-0.49248456381901634,1.0000389290543532,0.00013887833094362108
-0.49233410617453044,-0.49233410617453044,1.0001475693909014,0.00012989323641702288
-0.4922205317940097,-0.4922205317940097,1.0000000493335903,0.00013685154323878973
-0.49215966385090726,-0.49215966385090726,0.9999923649923185,0.00012842479580716426
-0.4921104114095215,-0.4921104114095215,1.0000266117879628,0.00013817418372326454
-0.49203065294132103,-0.49203065294132103,1.0001499583415714,0.00012853077427637383
-0.4919168199761771,-0.4919168199761771,1.0000512381706026,0.0001257642626724716
-0.4918353156215744,-0.4918353156215744,0.9999051979307405,0.00012669244508056528
-0.49164959581103174,-0.49164959581103174,0.9998296949638787,0.0001288250676665638
-0.4915540347894421,-0.4915540347894421,1.000098945504928,0.00014025949823246004
-0.49144489147583953,-0.49144489147583953,0.9998736558716074,0.00012597349899927558
-0.4912761191750178,-0.4912761191750178,0.9999955058621355,0.00012832136814562472
-0.49120662197528875,-0.49120662197528875,0.999987323416416,0.00012900374998264758
-0.4910993034718558,-0.4910993034718558,0.9998723171128052,0.0001391882550582371
-0.49094036932801827,-0.49094036932801827,0.9999963375024237,0.00012874438230339524
-0.49086448932648635,-0.49086448932648635,1.0000359751269605,0.00015125851705516592
-0.4907908298104303,-0.4907908298104303,1.000149442941923,0.00012911208370756927
-0.490683413943043,-0.490683413943043,1.000184594938096,0.00013522292028391293
-0.49057525126845575,-0.49057525126845575,1.0001065437743333,0.000135136682171043
-0.49051681178971196,-0.49051681178971196,0.999951737664641,0.00013053087893899183
-0.4903676716377959,-0.4903676716377959,1.0002036920947,0.00013664970431689764
-0.49025455674564,-0.49025455674564,1.0001642847801129,0.0001283711137799501
-0.4901488026865991,-0.4901488026865991,1.000055827675765,0.0001280909394026019
-0.49000209433725106,-0.49000209433725106,1.0001016073146753,0.00013766950635112776
-0.48992512046534104,-0.48992512046534104,1.0000977604960013,0.00013670384779801783
-0.4898851219273638,-0.4898851219273638,1.0000605459688359,0.00013512691414105586
-0.48981134030327667,-0.48981134030327667,1.000018952689252,0.00012926521890117008
-0.48974436220887585,-0.48974436220887585,1.0001014734048772,0.00013160454229813308
-0.48968257126980463,-0.48968257126980463,1.0000788570074661,0.00012894757406526215
-0.48955472400120925,-0.48955472400120925,1.0002486589774726,0.00012804172674395185
-0.48940538718306925,-0.48940538718306925,0.9999394507979291,0.00012856488043566078
-0.4892548498872202,-0.4892548498872202,1.0001835157393444,0.00013148427984090272
-0.48904544266988526,-0.48904544266988526,1.0000322067530072,0.00012715021484795255
-0.4889309485064587,-0.4889309485064587,0.9999873656339939,0.00012844618490298875
-0.4887872219318524,-0.4887872219318524,1.000051184416657,0.000130611186479191
-0.4886809070594609,-0.4886809070594609,1.000135159793151,0.0001396100365489182
-0.48859518068493346,-0.48859518068493346,1.0000049040034846,0.00012864221625648022
-0.4885439761652378,-0.4885439761652378,0.9999873081809344,0.00013091486691879325
-0.4884031196503201,-0.4884031196503201,1.0000801488803301,0.00014624021392719465
-0.4882645705161849,-0.4882645705161849,0.9999706259840396,0.000128267233418461
-0.48815477504977023,-0.48815477504977023,1.0000957958095307,0.00012741323284361065
-0.48805726554710416,-0.48805726554710416,1.0000122969037786,0.0001297206059548739
-0.48786905508604833,-0.48786905508604833,1.0000628843195614,0.0001306696819931333
-0.4877790437283693,-0.4877790437283693,1.0004488429741216,0.00012975321014820797
-0.48759826488094404,-0.48759826488094404,0.9998144930722749,0.0001270360608535325
-0.48733993321075103,-0.48733993321075103,1.0000139461998103,0.00013189292951286733
-0.4871031272865366,-0.4871031272865366,1.0001682100627662,0.0001272987437067239
-0.48696091502788474,-0.48696091502788474,1.0001204804639847,0.0001290010168616853
-0.4868846654891968,-0.4868846654891968,0.9999741742703339,0.00012699726546229527
-0.48681472830066924,-0.48681472830066924,0.9999987141310598,0.00012940939195017702
-0.48669898227381053,-0.48669898227381053,0.999976265219449,0.00014550587596687844
-0.48653901773504915,-0.48653901773504915,0.9999923605611514,0.00012633729332412177
-0.4864472491433844,-0.4864472491433844,1.0000275543233272,0.00012707963109384116
-0.4863705538620707,-0.4863705538620707,1.0000858253319433,0.0001253898244512595
-0.4862908537441399,-0.4862908537441399,1.000006346831515,0.0001282367171404912
-0.48618400177219884,-0.48618400177219884,1.0000639142413859,0.00013930962755470975
-0.48610724286118057,-0.48610724286118057,0.999986551112132,0.00013455380241019331
-0.4860487947764341,-0.4860487947764341,1.0001128504660488,0.00012969167424389314
-0.48585833973193077,-0.48585833973193077,1.0000016310339217,0.00012903177233957166
-0.4857413564081071,-0.4857413564081071,0.9999798490092063,0.00012615909970850142
-0.4856632580951555,-0.4856632580951555,1.0000584456832093,0.0001291686749035309
-0.48560803828877397,-0.48560803828877397,0.9998137692246409,0.00012860541775482607
-0.48553320181090387,-0.48553320181090387,1.0000492724389676,0.00012833939635441694
-0.4853821719181724,-0.4853821719181724,1.00021423605893,0.00013888482441843582
-0.4852557105361484,-0.4852557105361484,1.0000860983763615,0.00012951147406401186
-0.48513365355611315,-0.48513365355611315,1.0000978315332427,0.00012759480841063607
-0.4850604280101834,-0.4850604280101834,1.0000645611019157,0.0001369767543541372
-0.4849498870316893,-0.4849498870316893,0.9999429828318196,0.0001276017803591387
-0.4847770979074994,-0.4847770979074994,1.0000720122607833,0.0001380651040844198
-0.48467610215593593,-0.48467610215593593,0.999836563558558,0.00013731118841908338
-0.4845739778189454,-0.4845739778189454,1.0000060008665241,0.000127488576612714
-0.48441276738012673,-0.48441276738012673,0.9998980362317805,0.0001372767336892878
-0.4841565856710076,-0.4841565856710076,0.99997678960832,0.00013074280398598932
-0.4840000512835104,-0.4840000512835104,1.0000778717368446,0.00012665299816966557
-0.48384011071466376,-0.48384011071466376,1.0000510129271798,0.00012898221747468939
-0.4837233498197747,-0.4837233498197747,0.9999844272457054,0.000133950005964595
-0.48364525272045283,-0.48364525272045283,1.0000028654911093,0.00012756613435531967
-0.4835235195874702,-0.4835235195874702,1.0001897173431242,0.00013792884184414834
-0.48344065810088066,-0.48344065810088066,1.0000386590248784,0.0001283613759344072
-0.48334054557490164,-0.48334054557490164,1.0000298666594492,0.00012655626833707974
-0.4832151718379464,-0.4832151718379464,1.000158420170632,0.00013784857524396838
-0.4831414341140771,-0.4831414341140771,0.9999234726824561,0.00012907122894235116
-0.483071326467325,-0.483071326467325,1.0001899026501877,0.00013610122933316538
-0.4829755810555071,-0.4829755810555071,1.0001199485731687,0.00012661142629972287
-0.4829105682933005,-0.4829105682933005,0.9999174520492101,0.0001435794110379719
-0.48280189305078236,-0.48280189305078236,1.00010627912162,0.00012895593378817397
-0.4826924718800001,-0.4826924718800001,0.9998879731576705,0.00012958734182624577
-0.4825862328056246,-0.4825862328056246,0.999946536726372,0.00012572809735973993
-0.4824302776018158,-0.4824302776018158,0.9999463918645615,0.00013207115351203513
-0.4823588162049418,-0.4823588162049418,0.9998765080323743,0.0001402197902560627
-0.4822832153295167,-0.4822832153295167,1.0001686144965405,0.00013682675872025334
-0.48221621361153666,-0.48221621361153666,0.9999599805217031,0.00012810254094625567
-0.4821124420472188,-0.4821124420472188,1.0000744203105048,0.00012421497409942684
-0.4819256093120202,-0.4819256093120202,0.9999944305407407,0.00013064951592613026
-0.48179550789063796,-0.48179550789063796,1.0000066383522426,0.00012771808459194334
-0.48175287947233303,-0.48175287947233303,1.0000528337053394,0.00013445448172738408
-0.48166087105928457,-0.48166087105928457,0.9999144085596983,0.00012867838746249735
-0.48150647038710304,-0.48150647038710304,0.9999809638806727,0.00015324710555274544
-0.4813956750993384,-0.4813956750993384,1.0000807075999951,0.0001375939116639059
-0.48123949341243133,-0.48123949341243133,0.999863124212928,0.00012726818801465405
-0.4811274445033632,-0.4811274445033632,1.0001795612936266,0.00013651855781522104
-0.4809964049316477,-0.4809964049316477,0.9999847125195027,0.0001321827123559655
-0.4809398455108749,-0.4809398455108749,1.0001120146815357,0.00013601065733550975
-0.48081595776602626,-0.48081595776602626,1.0001505903504768,0.00012945431677641167
-0.48075973601371513,-0.48075973601371513,0.999998675982031,0.00013482409681669924
-0.48069710250128994,-0.48069710250128994,1.0000589641823923,0.0001303254255478572
-0.4806039194809273,-0.4806039194809273,0.9998074916108269,0.0001564890848143825
-0.4804841049888637,-0.4804841049888637,0.999945499099465,0.00012992324955096477
-0.4801167346391594,-0.4801167346391594,0.9999847703967205,0.00013783599858151606
-0.47996145418146624,-0.47996145418146624,0.9999520928700522,0.00013080621519511712
-0.4797769568860531,-0.4797769568860531,0.9999908981297502,0.00012971115666161382
-0.4796367825445486,-0.4796367825445486,1.0001278431910474,0.00013496362645512664
-0.4795247593778186,-0.4795247593778186,0.9999831630501521,0.00013026796515171413
-0.4793671969353454,-0.4793671969353454,0.9999890566882581,0.00013692999916717645
-0.47924847693357153,-0.47924847693357153,1.0000778764515084,0.00012857407250153283
-0.4791807536268607,-0.4791807536268607,1.0000168956262736,0.0001380256899724734
-0.47909400082426146,-0.47909400082426146,1.0000423199612611,0.00013093482853622547
-0.4789743172499584,-0.4789743172499584,0.9999665686780436,0.0001319218615583594
-0.4788849005679367,-0.4788849005679367,0.9999590260267281,0.00012675366415907562
-0.47878795213473496,-0.47878795213473496,1.0001911669855506,0.0001374798388574757
-0.47865308718464805,-0.47865308718464805,0.9998426200887117,0.00012878633698371934
-0.47857833524467425,-0.47857833524467425,0.9999118088918129,0.00012899520780187436
-0.47842731848650144,-0.47842731848650144,1.0001148131671727,0.0001299133834212782
-0.4782551479671383,-0.4782551479671383,1.0001097958805032,0.00012706272399145004
-0.47811509306775407,-0.47811509306775407,0.9998231908586236,0.00013045207046479316
-0.4779889289842686,-0.4779889289842686,0.9999344973997586,0.0001305546578013003
-0.47787739863561,-0.47787739863561,1.0000600348877655,0.00012648251413958526
-0.47773212743923066,-0.47773212743923066,0.9998347984225239,0.0001360092950145481
-0.47764510616834743,-0.47764510616834743,1.0000498447551398,0.00012895545204755606
-0.47757277995406183,-0.47757277995406183,0.9999462241332356,0.00012891810810514452
-0.47751406792667694,-0.47751406792667694,0.9998402812008408,0.00012827428309452235
-0.4773725096951239,-0.4773725096951239,0.9998652218484978,0.00013687830910686204
-0.4772369256388629,-0.4772369256388629,1.0000796975343285,0.00012766661979349877
-0.47714942060702015,-0.47714942060702015,1.000056396843542,0.00013504383661037104
-0.47703002953494433,-0.47703002953494433,1.0000647567082577,0.00012888330143753416
-0.4769853913254337,-0.4769853913254337,1.0000844041281116,0.00012796473712486266
-0.47693667297426146,-0.47693667297426146,0.999835845156194,0.00013064178905085856
-0.4768401658860967,-0.4768401658860967,0.9999048276828091,0.0001466836298143782
-0.47672868510417177,-0.47672868510417177,1.000124800144584,0.00012820748464872317
-0.4765698453236837,-0.4765698453236837,1.0000582142148267,0.00012789720781158386
-0.4764579838491045,-0.4764579838491045,1.0000620901419397,0.0001272926903350286
-0.476354536274448,-0.476354536274448,0.9999364395277601,0.00012623057793426123
-0.4762480460864026,-0.4762480460864026,0.9999348632431195,0.0001290882090981621
-0.47609630578081125,-0.47609630578081125,1.0001763728410085,0.00012902714608187406
-0.47596749802469274,-0.47596749802469274,0.9998348533952788,0.00012948942633924033
-0.4758371334464755,-0.4758371334464755,0.9999322788956124,0.00012961734442548727
-0.47572332353156527,-0.47572332353156527,1.0000665321572175,0.00013883387373526357
-0.47560907973966093,-0.47560907973966093,1.000132775633154,0.00015046185105410093
-0.4754142773803324,-0.4754142773803324,0.9999133113201756,0.00014471516491282963
-0.4752871638222132,-0.4752871638222132,1.0001047097351563,0.00012812234583081908
-0.4750848190742545,-0.4750848190742545,0.9998840357419695,0.00013793908376119382
-0.4749061431211885,-0.4749061431211885,0.9999704063310558,0.00012803491861919936
-0.474782265452086,-0.474782265452086,0.9998546647325472,0.0001303264967771083
-0.4746918362507131,-0.4746918362507131,0.9997064117357322,0.00012971523594407108
-0.47457791721390097,-0.47457791721390097,1.0000605187079898,0.00012997082978458266
-0.47445525968214497,-0.47445525968214497,1.0002156061480498,0.00013747702564745288
-0.4743222115939716,-0.4743222115939716,0.9998445012970762,0.00012546573177532467
-0.47419958049431443,-0.47419958049431443,0.9998773202652373,0.0001291424297840679
-0.4740036953560775,-0.4740036953560775,1.000046178109537,0.00012883424006373984
-0.47386567727371587,-0.47386567727371587,0.9998824374366369,0.00012815690734193483
-0.47377439262345433,-0.47377439262345433,0.9997749250766615,0.0001380648492686839
-0.47367682474141476,-0.47367682474141476,1.000036699338263,0.00013574623856323068
-0.4735625147819519,-0.4735625147819519,1.0001568423856697,0.00013170978213871201
-0.4734666752512567,-0.4734666752512567,0.9999250340860067,0.00012755257628779888
-0.47331442136201074,-0.47331442136201074,0.9998883050641751,0.00012842654409280844
-0.4732284092489863,-0.4732284092489863,0.9999696712684736,0.00012465826148506148
-0.4731758944108151,-0.4731758944108151,0.9999692527387399,0.00013620332743975096
-0.4730950814060634,-0.4730950814060634,1.000096539303846,0.00013879997167318294
-0.4730125608417438,-0.4730125608417438,1.000076415578096,0.00012831836408289677
-0.47295889275847003,-0.47295889275847003,1.0001296303647997,0.00013267413977614362
-0.4728791231493233,-0.4728791231493233,0.9999284716704577,0.00013161971245702477
-0.47272475981444584,-0.47272475981444584,0.9998844510225917,0.00012472089906401227
-0.4725601679150714,-0.4725601679150714,0.9999658691288003,0.00012914855542616287
-0.4724277747882297,-0.4724277747882297,1.0000985608549209,0.00013721379416115377
-0.47225184335839004,-0.47225184335839004,1.0000574581923944,0.0001305980502333675
-0.4721488324954407,-0.4721488324954407,0.9999968131600575,0.00013610232951183758
-0.4720725982071599,-0.4720725982071599,1.0001592431812183,0.00012912414474215987
-0.47197864955232943,-0.47197864955232943,0.9999715054004168,0.00013610582051936998
-0.47192351473495364,-0.47192351473495364,1.0000706991914647,0.0001284200896832927
