time,time,flux,flux_err
-0.49996180136319407,-0.49996180136319407,1.0000630057321762,0.00021621119674438498
-0.4997923940412875,-0.4997923940412875,0.9999860873814834,0.0001962470025006297
-0.49969163256828325,-0.49969163256828325,1.0000565540233064,0.00020008519296393592
-0.4995830784399004,-0.4995830784399004,1.000065469116483,0.0002184680823561074
-0.499534418262192,-0.499534418262192,0.9999238252986317,0.0001959791814254923
-0.49942121545172996,-0.49942121545172996,1.000170140673239,0.0002014874008232699
-0.4992605716615799,-0.4992605716615799,1.0001245895214397,0.00021585098473951513
-0.49914932109895743,-0.49914932109895743,0.9998282599119804,0.00021371918688889625
-0.4990163360504084,-0.4990163360504084,0.9999614691664764,0.00019918727028282068
-0.4988969485850248,-0.4988969485850248,0.9999700342817487,0.00021598409755622626
-0.4987622097542044,-0.4987622097542044,1.0002627781744937,0.00020831251956606218
-0.49858178884824156,-0.49858178884824156,0.9999506841764976,0.0002066951147456591
-0.498449620622705,-0.498449620622705,1.000037543143846,0.00022297634630195402
-0.4983243741233309,-0.4983243741233309,0.999684886769406,0.00019570576721431938
-0.4982223525919835,-0.4982223525919835,1.0000183455154126,0.0002121552813032262
-0.49803310443385274,-0.49803310443385274,1.0003722354342233,0.00020083565650840996
-0.4979869434617285,-0.4979869434617285,0.9997067185278905,0.0001990502297940786
-0.49790172877910666,-0.49790172877910666,0.9996250875016359,0.00019012996679372885
-0.497810148307326,-0.497810148307326,0.9996999819821744,0.00022581235884202308
-0.49765242209323335,-0.49765242209323335,1.000192143897204,0.00021001357384652338
-0.49757059096882583,-0.49757059096882583,1.0001226475056557,0.00020213361667415956
-0.4975063596430118,-0.4975063596430118,1.0001511308976478,0.00021560091737580115
-0.49736753297256653,-0.49736753297256653,1.000286723559323,0.0002184672601068753
-0.49730140122555894,-0.49730140122555894,1.000060096829014,0.00019863026587278233
-0.49716469200502617,-0.49716469200502617,0.9998467488257352,0.00020537579727142557
-0.49707673771335975,-0.49707673771335975,0.9997425064571546,0.0002130485767258591
-0.4969531574563007,-0.4969531574563007,1.0001645905756467,0.00019671991937427968
-0.49682923026848586,-0.49682923026848586,0.9998833523064722,0.00018238359703151718
-0.49671152036244165,-0.49671152036244165,0.9999526590130536,0.00019987215927578364
-0.4966130170767428,-0.4966130170767428,0.9999742216731541,0.00018938282193950933
-0.49653220419131683,-0.49653220419131683,1.0002442806679817,0.00020334663362626707
-0.4964295012643561,-0.4964295012643561,0.999919603193255,0.00019094637677847262
-0.4963211018301081,-0.4963211018301081,1.0000515979744022,0.00019288914387906945
-0.4962267604787485,-0.4962267604787485,1.0002268311850928,0.0002012302062517545
-0.49617413073574423,-0.49617413073574423,0.9998984260153859,0.0002048330402799192
-0.49608399988137536,-0.49608399988137536,0.9999932472604872,0.0002003073302462011
-0.49595132115719026,-0.49595132115719026,0.999821299638997,0.00018899150781769063
-0.4957843456635601,-0.4957843456635601,0.9998473188837353,0.00021207096009534667
-0.49565089686366265,-0.49565089686366265,0.9998167301117201,0.00019602981796302396
-0.49551745160642896,-0.49551745160642896,1.0003517430463151,0.0002055650246055207
-0.4953380972110608,-0.4953380972110608,0.9998464065849518,0.0002095464649108053
-0.4951921536106966,-0.4951921536106966,0.9999502869786948,0.00019545305108203555
-0.4950022370627266,-0.4950022370627266,1.0000000744271904,0.00022379877017625224
-0.4948485011322191,-0.4948485011322191,0.9999926103906798,0.00019996264519483442
-0.494764489926456,-0.494764489926456,1.0000628686743616,0.0001965654565736321
-0.4945979729636747,-0.4945979729636747,1.000448240966411,0.0002108205728460695
-0.49454496268444925,-0.49454496268444925,1.000197705167171,0.00021968048221228712
-0.4943770090787439,-0.4943770090787439,1.000241501757051,0.00020254104936171462
-0.49424078583761,-0.49424078583761,0.9997998530235096,0.00021850018343162118
-0.4941991149491514,-0.4941991149491514,1.0000661063793064,0.0002034932055739067
-0.49405936969196773,-0.49405936969196773,1.0001884206232918,0.0002033760525640907
-0.4938848693476757,-0.4938848693476757,0.9999027945605551,0.00019601979887703735
-0.49378393238366697,-0.49378393238366697,1.000245045661647,0.00019859134910049655
-0.4936014201135549,-0.4936014201135549,1.0000400700322252,0.000195131472833309
-0.49348536563920786,-0.49348536563920786,1.000118443082539,0.00020309721302105163
-0.49343456064598284,-0.49343456064598284,1.000007412724684,0.0001972061763647986
-0.49334790821012575,-0.49334790821012575,0.9998884456115865,0.0002016612540025409
-0.4932150594293489,-0.4932150594293489,0.9999412932577595,0.0001983379181357961
-0.4931547086824139,-0.4931547086824139,1.0002068779025706,0.0002000667723265522
-0.4930762077885447,-0.4930762077885447,0.9998256594303985,0.00021237743911839638
-0.4929998560954118,-0.4929998560954118,1.0000054632742972,0.00020021111403885393
-0.49285111453136776,-0.49285111453136776,1.0000026789343577,0.00022000453941053787
-0.492727329981426,-0.492727329981426,1.000142532831901,0.000189405366328039
-0.4926229198317742,-0.4926229198317742,1.0000085407030137,0.0002057205209685992
-0.49252468124905135,-0.49252468124905135,0.9998986591165349,0.00021864872633773624
-0.4924131945132103,-0.4924131945132103,0.9999835144230736,0.00021034157502590215
-0.4922943625264452,-0.4922943625264452,0.9999600622839419,0.00019947917935814728
-0.4922149856975011,-0.4922149856975011,0.9998697473758824,0.00020292736046111532
-0.49208574241856695,-0.49208574241856695,0.9998008827275628,0.0002410349936246596
-0.4920110731087334,-0.4920110731087334,0.9997532538903181,0.00019999467656965772
-0.49189531483934845,-0.49189531483934845,0.9999646170469602,0.00019416045717333483
-0.4917443107980944,-0.4917443107980944,1.0000147657699123,0.00020118931303781448
-0.4916579736425774,-0.4916579736425774,1.0000698948845568,0.00019671633315181906
-0.4914870618944406,-0.4914870618944406,0.9999186637385048,0.00020169962506401897
-0.4912919299771602,-0.4912919299771602,1.0000113877941446,0.00020321382616923664
-0.4911245948911528,-0.4911245948911528,1.0000283200776159,0.0002017773186963995
-0.4909521307446994,-0.4909521307446994,1.000104765213956,0.00019562054669065702
-0.4908456456483691,-0.4908456456483691,0.99973580586802,0.0001983521968177445
-0.49066628167784077,-0.49066628167784077,0.9999902275840569,0.00020251447207694076
-0.4905824113513518,-0.4905824113513518,0.9998441380281312,0.00018953271417603928
-0.49048556946509053,-0.49048556946509053,0.9999685243221336,0.00019752017439169566
-0.49034190709644465,-0.49034190709644465,1.000113455533738,0.00019541880292906806
-0.49017664532802885,-0.49017664532802885,0.9996898062700446,0.00020359330439834907
-0.49008667694215546,-0.49008667694215546,1.0001796842107993,0.000193862190996143
-0.4899648557096953,-0.4899648557096953,0.9998829531812021,0.00019907258905065434
-0.4898107888373488,-0.4898107888373488,1.0000450569213748,0.00020794644559532873
-0.48975832021897076,-0.48975832021897076,0.9997444366403843,0.0001855755383728622
-0.4897162687484524,-0.4897162687484524,0.9998651243495236,0.0001999692109931707
-0.4895400392670126,-0.4895400392670126,1.0001486403538244,0.00020084725045980658
-0.48942655851351446,-0.48942655851351446,1.0003424270279084,0.00020638072486345443
-0.4893261499113578,-0.4893261499113578,0.999919748038917,0.00019807401892732606
-0.4892187850244227,-0.4892187850244227,0.9999823008949118,0.00019548446452690137
-0.48914413758029696,-0.48914413758029696,0.9999994518347106,0.00021435514905261522
-0.4890485844000068,-0.4890485844000068,0.9998460930439028,0.0002029839471358303
-0.48891048458754083,-0.48891048458754083,0.9998835979106658,0.00019968657263953776
-0.48882569183042507,-0.48882569183042507,1.0002849470306354,0.0002104958950326126
-0.48869306918641087,-0.48869306918641087,1.0004809647108908,0.00020042374417221978
-0.48857497193530436,-0.48857497193530436,1.0006232016054448,0.00020100312846657183
-0.48848710950114765,-0.48848710950114765,0.9999314227889758,0.00019512989527657094
-0.48842346471355996,-0.48842346471355996,1.000192617147381,0.00020037944713417405
-0.4883342033390363,-0.4883342033390363,0.9999432855843198,0.00019059568301280967
-0.4881744785023329,-0.4881744785023329,0.9997767870595474,0.00020243761495363494
-0.4880775936791906,-0.4880775936791906,0.9999126798565132,0.00021318757693364015
-0.4880016773829993,-0.4880016773829993,1.0001524700822224,0.000196577723370974
-0.48787298692695913,-0.48787298692695913,1.000221046947407,0.00019371463153997813
-0.48774391731931244,-0.48774391731931244,1.0000076614647915,0.00020408811619130885
-0.4876062299314071,-0.4876062299314071,1.0000208269645197,0.00019512672654536668
-0.4875036924815504,-0.4875036924815504,0.9998800656577778,0.00018795163302316804
-0.4874065013515064,-0.4874065013515064,1.0001656742736285,0.00020926057672668728
-0.4873177464891342,-0.4873177464891342,0.9998934149521224,0.0002106581084657976
-0.4872581903124228,-0.4872581903124228,0.9998519875258131,0.00019886381454495378
-0.4870901649039297,-0.4870901649039297,0.9996827907583281,0.00021803913720734887
-0.4869667104096152,-0.4869667104096152,1.0001447941107198,0.0002119777184855442
-0.4868524034798611,-0.4868524034798611,0.9998409081368175,0.00020840807186370825
-0.48667922024978905,-0.48667922024978905,1.0001449426504674,0.00021383113955329431
-0.4865668094214925,-0.4865668094214925,0.999957579167754,0.00020922792805426233
-0.48641521361132617,-0.48641521361132617,0.9999622342965537,0.00020570661134955334
-0.4862795581640967,-0.4862795581640967,1.000039306033493,0.00021347583254438854
-0.4861341795171029,-0.4861341795171029,1.0000784757299335,0.00021933909751663686
-0.4860294547106605,-0.4860294547106605,1.0000399464867105,0.00019675521692761664
-0.4858789999037981,-0.4858789999037981,1.0001952733736925,0.0002167504919073954
-0.48577955030923475,-0.48577955030923475,1.0003313982692719,0.00020677620515444987
-0.4857276812865166,-0.4857276812865166,0.9999324293562271,0.00021090950774323405
-0.4856595920588006,-0.4856595920588006,0.9998036816339351,0.00019078618971574328
-0.48556237624943605,-0.48556237624943605,1.0001859010070944,0.00022045721887923764
-0.4854222445224877,-0.4854222445224877,0.9999666051715496,0.00021566678615249395
-0.4853398948725953,-0.4853398948725953,1.0001239727007891,0.00020035655182171346
-0.4852704872864706,-0.4852704872864706,1.000008682465764,0.00020515547277142137
-0.4851373157776834,-0.4851373157776834,1.000040533130394,0.0002168468024393611
-0.48506219242626686,-0.48506219242626686,1.0000382713108589,0.0001959479454645013
-0.48489734911418053,-0.48489734911418053,1.000027059395821,0.00020629911892463285
-0.48484249810280744,-0.48484249810280744,1.000095916210568,0.00018978995167424852
-0.48472368457514675,-0.48472368457514675,1.0000394975361746,0.00020051603411491776
-0.4845939413360611,-0.4845939413360611,1.0003621954906408,0.00019513921997782417
-0.484480204868305,-0.484480204868305,1.0001978475004898,0.00020042638744150913
-0.4843743177356373,-0.4843743177356373,1.0000258943427967,0.00019019557279505327
-0.48424442157993325,-0.48424442157993325,0.9998796120249512,0.00020011571201173904
-0.4840961353496823,-0.4840961353496823,1.0000363168087807,0.0001986616013743692
-0.48397386735887266,-0.48397386735887266,0.999803213145834,0.00019424190441303624
-0.4839312647571205,-0.4839312647571205,1.0002407758923175,0.00020330310449853087
-0.48377891823474783,-0.48377891823474783,1.000092789132496,0.00019264207001337282
-0.4836005753335485,-0.4836005753335485,0.9999644649119702,0.00021218391362637563
-0.4834016088228964,-0.4834016088228964,0.9998529377803724,0.00019037277716332457
-0.4832757281437807,-0.4832757281437807,0.9998819854106685,0.00020359727698319912
-0.4831083242308523,-0.4831083242308523,0.9998868290781644,0.00020964988966686756
-0.4830107753550692,-0.4830107753550692,0.9999977389444512,0.0001981896281042927
-0.4828447938285535,-0.4828447938285535,1.0000528620109495,0.00020711831346248286
-0.4826753566398111,-0.4826753566398111,1.0001479464569294,0.00020871210750319065
-0.48253644136566437,-0.48253644136566437,0.9998879964518247,0.00020549152657705865
-0.48239152878522873,-0.48239152878522873,0.9999974836793364,0.00020659242991665064
-0.4823342924035387,-0.4823342924035387,1.0001753560550342,0.0002200592573032577
-0.4822576391234179,-0.4822576391234179,1.0001096114421704,0.00019814633296409232
-0.48207038929031115,-0.48207038929031115,0.9998352415359235,0.00018692358305146022
-0.48198322337775606,-0.48198322337775606,0.9996265552541918,0.00022266222201613762
-0.48192752018367174,-0.48192752018367174,1.0003309636504922,0.00021475254626812694
-0.4817671758588403,-0.4817671758588403,1.0000815143835946,0.00019653708336659037
-0.48162187397101663,-0.48162187397101663,0.9995944103837899,0.0002033054257685369
-0.48152469538254083,-0.48152469538254083,0.9999510228632481,0.000190918437676763
-0.4813896398722136,-0.4813896398722136,0.999772767704951,0.00020360971295898386
-0.4812671256680915,-0.4812671256680915,1.000037047883596,0.0002009796828721504
-0.48120480714860603,-0.48120480714860603,1.0003412990117788,0.00020032872979654776
-0.4811266966498806,-0.4811266966498806,1.0000187510235874,0.00020924201077416677
-0.48098285148007563,-0.48098285148007563,1.0000979293390526,0.000194738286752653
-0.48092148578216437,-0.48092148578216437,1.0001251748278521,0.00020356077921199943
-0.48084237708026195,-0.48084237708026195,1.0004073866259042,0.0002152506544078427
-0.48077765726484356,-0.48077765726484356,0.9999396724381804,0.00019822093837684285
-0.4806849283158954,-0.4806849283158954,0.9999446672146213,0.00020640333938087897
-0.48057056915640717,-0.48057056915640717,0.9999944914506743,0.00020599120995808476
-0.4804788493645901,-0.4804788493645901,1.0000161014733517,0.0001959612471307352
-0.48036163284341454,-0.48036163284341454,1.0001900725945307,0.00020059726649682857
-0.4803035295000882,-0.4803035295000882,1.0000229191236503,0.00020891784088241232
-0.4801974599336972,-0.4801974599336972,1.0002542961278995,0.0002088328436558189
-0.4800571697349369,-0.4800571697349369,1.0001949285393719,0.00019954497590165513
-0.4799753031991713,-0.4799753031991713,0.9998930606749845,0.00020597564162424235
-0.47986085871816614,-0.47986085871816614,0.9999872003888429,0.00021245552138695868
-0.4797885432992189,-0.4797885432992189,1.0002046690418072,0.00021877858781838233
-0.47973211018543227,-0.47973211018543227,0.9999475882180331,0.0002029694104474082
-0.47961926384450637,-0.47961926384450637,0.9999472011111982,0.00019091737671096974
-0.47951918692415346,-0.47951918692415346,0.9998149680926736,0.00020124093300584036
-0.4794400307349861,-0.4794400307349861,0.9998253965340377,0.00020111109792945704
-0.479299362947495,-0.479299362947495,1.000089385059714,0.00018793513744306758
-0.47911779661517356,-0.47911779661517356,1.0001261135911528,0.0002059508018586611
-0.47898762339755196,-0.47898762339755196,1.0000391962521253,0.00020153370463314203
-0.47880679672889526,-0.47880679672889526,0.9998808396500662,0.00019928589961936476
-0.47870304713360384,-0.47870304713360384,0.999629166565353,0.00019762020451037074
-0.4785723101827898,-0.4785723101827898,1.0001351634150517,0.00019929582468426786
-0.47841547317293587,-0.47841547317293587,0.9999306504929599,0.00019610767717390693
-0.47832632441568423,-0.47832632441568423,1.0000846407290802,0.00019896684759843644
-0.4782350189940189,-0.4782350189940189,0.9998895615147074,0.00020658638964395865
-0.47806992647310836,-0.47806992647310836,0.99992242174005,0.0001888713713172234
-0.47795875519877884,-0.47795875519877884,0.9998279425391713,0.00019891112913868243
-0.4778650079424551,-0.4778650079424551,0.9999980728362499,0.00019763439057337168
-0.47776055173308124,-0.47776055173308124,1.0001386255471458,0.0002039037324407667
-0.4775669243899756,-0.4775669243899756,1.000084549716859,0.00020185034158459758
-0.47752007821909503,-0.47752007821909503,0.9998239634629049,0.0002047388772213359
-0.4773936210680404,-0.4773936210680404,1.0001906151676618,0.00020248560596144833
-0.4772671361854009,-0.4772671361854009,1.0002395041203553,0.00019269724044234502
-0.4771989073007717,-0.4771989073007717,1.0000087621785216,0.00021013132050496817
-0.47710732645646203,-0.47710732645646203,0.9998613773940834,0.00019833979741357643
-0.4769921795326809,-0.4769921795326809,1.0000631057015346,0.00019581265489151947
-0.4769185736506188,-0.4769185736506188,0.9999093800203065,0.00021234137713340532
-0.4768567762672319,-0.4768567762672319,1.0000096037639143,0.00019388398607473402
-0.4767386753228493,-0.4767386753228493,0.9998887162854613,0.00019662565140869057
-0.4766632671155094,-0.4766632671155094,1.0001334495172876,0.00020461497731941964
-0.4765863941298448,-0.4765863941298448,1.0001575536802423,0.00019471261896935314
-0.47641985709342405,-0.47641985709342405,0.9999696272724264,0.00021050612483176123
-0.47633051257944314,-0.47633051257944314,1.000086630146479,0.00021256337020406608
-0.47623925085790686,-0.47623925085790686,1.0001676555817867,0.00020294181344518198
-0.4761767002426495,-0.4761767002426495,0.9997651795821044,0.00019255872752296224
-0.47609266573708736,-0.47609266573708736,1.0001384260387378,0.0002003332563175236
-0.47595365590241273,-0.47595365590241273,1.0000258233276926,0.00019672933820243107
-0.4758538787078578,-0.4758538787078578,1.0000112441494355,0.00021647602413515333
-0.47579286983600466,-0.47579286983600466,1.0000235313362993,0.0001960585874274048
-0.4756907464201504,-0.4756907464201504,0.9998924295904216,0.00019296705369304298
-0.4755501901592652,-0.4755501901592652,0.999980803173453,0.00019609326970447392
-0.47542273665821994,-0.47542273665821994,1.0000142568061785,0.00020625718505257583
-0.47525526001045365,-0.47525526001045365,1.0002249050044485,0.00018762795660089572
-0.4751301779760979,-0.4751301779760979,1.0001175469158214,0.00020926495534310803
-0.47505838997240063,-0.47505838997240063,0.9998747233598622,0.00019752322456382032
-0.4749406104485388,-0.4749406104485388,1.0000833378483764,0.00021270493126493038
-0.4747941778463428,-0.4747941778463428,0.9999308401991088,0.00020999364576761173
-0.4746974745678017,-0.4746974745678017,0.9998241922038446,0.00020847544908184678
-0.47457164603256385,-0.47457164603256385,1.0001978337564994,0.00020543959849363187
-0.4744440677990497,-0.4744440677990497,1.000058342967957,0.00020438590969158147
-0.47436295941079154,-0.47436295941079154,0.9998465207511977,0.0002065677849586057
-0.47422430948136024,-0.47422430948136024,1.0000725892783877,0.0001964841778996692
-0.4740930771913554,-0.4740930771913554,0.9997249602288173,0.0002203492274926455
-0.473896661602339,-0.473896661602339,1.000025244382234,0.00020281728775791048
-0.4737756785660167,-0.4737756785660167,1.0000662400060611,0.000210836840351015
-0.4736125577081111,-0.4736125577081111,1.0000883956177913,0.0002052871688937602
-0.47350905563580453,-0.47350905563580453,1.0000826711408284,0.00020644125906611028
-0.4734533800408826,-0.4734533800408826,1.0001220503960326,0.00019322703060342273
-0.47337945685576416,-0.47337945685576416,0.9998574816693736,0.00022491973776382358
-0.4732392233869177,-0.4732392233869177,1.0000894706438592,0.00021291426131684368
-0.47313245877958254,-0.47313245877958254,1.0001992411488074,0.00020029726707319673
-0.47304825044120663,-0.47304825044120663,1.0001328282373172,0.00020284301094767096
-0.47295397982743453,-0.47295397982743453,1.000169692754795,0.00021520449248107337
-0.47283029341924704,-0.47283029341924704,0.9999922060351889,0.0002144852246920943
-0.4727302525738196,-0.4727302525738196,0.9998551731352301,0.00020081539742508418
-0.47262115317425923,-0.47262115317425923,0.9998203687580837,0.0001981369254530555
-0.4725679584087629,-0.4725679584087629,0.9999601119409058,0.00019657422400150203
-0.4724332935293205,-0.4724332935293205,1.0000869805481378,0.00019078680244204329
