time,time,flux,flux_err
-0.4998733930927604,-0.4998733930927604,0.9998252297169206,0.00023473956820803946
-0.49974670573525753,-0.49974670573525753,0.9998415992068773,0.00023123660514980755
-0.4995622271647638,-0.4995622271647638,0.9998958780087572,0.0002321636661544773
-0.4994511492230231,-0.4994511492230231,1.0003291734773143,0.00022346043915434256
-0.49936065538640834,-0.49936065538640834,0.9999287434671483,0.00021136518978441405
-0.49927305536111816,-0.49927305536111816,0.9998855887825983,0.00021113064926965862
-0.4991661944412044,-0.4991661944412044,1.000096539835092,0.00022441663315554873
-0.49904509139596487,-0.49904509139596487,1.00011152820206,0.00022017211259312632
-0.49889538394927513,-0.49889538394927513,0.9998209550179735,0.00020299837902535033
-0.49871788747259416,-0.49871788747259416,0.9998180202888903,0.00021228183254523797
-0.49861428325239104,-0.49861428325239104,1.0002100500977105,0.00021611616426477016
-0.4983429668383906,-0.4983429668383906,0.9998092203026996,0.00021525625266562688
-0.4982338220012025,-0.4982338220012025,1.0000018649554947,0.00021031867073944408
-0.4980646156123839,-0.4980646156123839,0.9999214392929805,0.00021419489419809747
-0.4978893214574782,-0.4978893214574782,0.9998668159363613,0.0002110481357866714
-0.4976456563163083,-0.4976456563163083,0.9996318596169129,0.00022257397363860016
-0.49751775675104,-0.49751775675104,1.0001160144742753,0.00021098074549390482
-0.4974618582855328,-0.4974618582855328,0.9999219939172953,0.00021569739034069663
-0.49736947698984296,-0.49736947698984296,0.9999049166095197,0.00021049444284258675
-0.4972334458245314,-0.4972334458245314,1.0000505859886712,0.00022516742133165524
-0.49711163494503124,-0.49711163494503124,0.9999437369565154,0.0002083895094482894
-0.4970137414828059,-0.4970137414828059,0.9997374772250411,0.0002194055767584737
-0.4967593738925643,-0.4967593738925643,1.0000489205056142,0.00021723870155029287
-0.49661428758408876,-0.49661428758408876,0.9999274167680768,0.00020224018227276244
-0.4963969490752788,-0.4963969490752788,1.0000559076361681,0.00021731069725166474
-0.4962201138652745,-0.4962201138652745,1.0002186402730535,0.000211817503733215
-0.4960973746172385,-0.4960973746172385,0.9998031489597198,0.00021224679298905563
-0.4960084015227039,-0.4960084015227039,1.000081427836235,0.00020864103701719082
-0.495794298365945,-0.495794298365945,0.9998791933842582,0.00021202575976329163
-0.4956234615470748,-0.4956234615470748,1.0000961853861767,0.00022091341232778798
-0.4955588939192239,-0.4955588939192239,0.999924015916038,0.00021460908036385532
-0.4954592535781558,-0.4954592535781558,1.0000874532758133,0.00020954584027777843
-0.49537080882728335,-0.49537080882728335,1.0001985068039179,0.00021718898767339275
-0.49525724340346644,-0.49525724340346644,1.0000652296781545,0.00021814005946756344
-0.4950808207096998,-0.4950808207096998,0.9998731532826332,0.0002225294850553542
-0.49490981507842663,-0.49490981507842663,0.9999965272542063,0.0002110513090477566
-0.4947060979815433,-0.4947060979815433,0.9997380644273116,0.00020761047816472345
-0.494533895693894,-0.494533895693894,0.9998947104822209,0.00021384015087618467
-0.4943302145373309,-0.4943302145373309,1.0003518315842566,0.00021415993645714876
-0.4941969518884434,-0.4941969518884434,1.0000593365672046,0.0002088553702847828
-0.49407938939111773,-0.49407938939111773,1.000129283455531,0.00021591979717111866
-0.4938646158654592,-0.4938646158654592,1.0000463580922272,0.00020553893021705273
-0.49367434603045696,-0.49367434603045696,1.0000363905805978,0.0002228059389988013
-0.4935156430437928,-0.4935156430437928,0.9998510311136364,0.00020928720952973948
-0.49343029376177583,-0.49343029376177583,1.0001313487756822,0.0002018056279992076
-0.493382692047453,-0.493382692047453,1.0004050188574505,0.00021900419516994668
-0.49327241041028175,-0.49327241041028175,1.000296873147938,0.0002373517800206631
-0.4930716403818224,-0.4930716403818224,1.0001538207728673,0.00020670417770989155
-0.4930100681260228,-0.4930100681260228,0.9998889860938561,0.00022172754170272625
-0.49278952896856937,-0.49278952896856937,0.9998875138881106,0.0002049971598541674
-0.4926788360287901,-0.4926788360287901,1.0002632149760955,0.00021317416637892358
-0.4924576867852011,-0.4924576867852011,1.00006976881572,0.00020949766605429004
-0.4923108820032212,-0.4923108820032212,0.9999073524373694,0.00021711968853733752
-0.4922470834950218,-0.4922470834950218,0.999779649988783,0.0002079598237238091
-0.49209216337039835,-0.49209216337039835,0.9999132856306335,0.00021632320346133592
-0.49193476107175227,-0.49193476107175227,0.9998672060371628,0.00020777407848712593
-0.4918287646898534,-0.4918287646898534,0.9999812626232142,0.00022217044862704298
-0.4916741238994291,-0.4916741238994291,1.0000025309661218,0.00020897264369243063
-0.4915577260166174,-0.4915577260166174,0.9996662763070194,0.00020345194534084708
-0.49144220929010773,-0.49144220929010773,1.000021955210059,0.00022683814937520452
-0.49136676428606735,-0.49136676428606735,1.000009169216859,0.00022421788085580374
-0.4912210238646367,-0.4912210238646367,0.9999829205042758,0.00021174517478786541
-0.4909891837727628,-0.4909891837727628,0.9997689283209906,0.00021782030172636072
-0.49082024223025655,-0.49082024223025655,1.0003113480440817,0.00020170048586044728
-0.49066266425361393,-0.49066266425361393,1.0003471973815672,0.0002156563813566615
-0.4904761492725811,-0.4904761492725811,1.0003110029040494,0.00020556574555846292
-0.4903782472247258,-0.4903782472247258,1.0001158060869986,0.00022491517293689282
-0.4902506245751283,-0.4902506245751283,1.000155556688833,0.00020912546705823546
-0.4901609175023623,-0.4901609175023623,1.0000935601471395,0.00021003717474078854
-0.4899971938430099,-0.4899971938430099,1.000136942704136,0.00020873160715107475
-0.48989801513234854,-0.48989801513234854,1.000023287756877,0.00021951133893055615
-0.4897412365724449,-0.4897412365724449,1.0001352680543518,0.00020062146427560876
-0.48962581545638384,-0.48962581545638384,1.0000654301349923,0.00020553806700873158
-0.48951187823986403,-0.48951187823986403,0.9999684852951536,0.00021651902546439018
-0.489459875949251,-0.489459875949251,1.0002050423393762,0.0002282555510456197
-0.4893580547068268,-0.4893580547068268,0.9999553639449126,0.00021209684764922137
-0.4891942514659604,-0.4891942514659604,1.0002383448724115,0.00021074066426565066
-0.4889364501606906,-0.4889364501606906,0.9997974353361432,0.0002188201896278303
-0.4886559847582248,-0.4886559847582248,1.000269323572256,0.00021620735628082626
-0.48851102708722466,-0.48851102708722466,0.9998345703361569,0.00022782431068173818
-0.4882986993921804,-0.4882986993921804,0.9999348015495126,0.0002110375404866169
-0.48817025114694845,-0.48817025114694845,1.0000627290676538,0.00020740267377203163
-0.4880312348424923,-0.4880312348424923,0.999771529221227,0.00021355469755471166
-0.48792257133318345,-0.48792257133318345,1.00005063593323,0.00021891014606205877
-0.4878229022782762,-0.4878229022782762,1.0001233123648279,0.00020300572103463892
-0.48767462926334704,-0.48767462926334704,1.000270502949869,0.00021757462040548952
-0.4875571559954551,-0.4875571559954551,0.9999207782839861,0.00022668521387434132
-0.48749138986459,-0.48749138986459,0.9998973641887231,0.00021819371771302832
-0.4873620974845835,-0.4873620974845835,1.0001752759771272,0.00022093935902773616
-0.48726976806647143,-0.48726976806647143,0.9999396404748186,0.00020903993508173527
-0.48699825086659987,-0.48699825086659987,0.9998480010793538,0.0002136926328079165
-0.4868567932615406,-0.4868567932615406,0.9998422010278617,0.00021626448446788438
-0.486720839512418,-0.486720839512418,0.9997140925089519,0.00021303334568822333
-0.48663251065881924,-0.48663251065881924,1.0000989549194075,0.00021345502387314666
-0.4864425106410636,-0.4864425106410636,1.000032523413735,0.00021285107737873792
-0.4862146977640805,-0.4862146977640805,0.9996970230859151,0.00021400184577795718
-0.4860976242503966,-0.4860976242503966,0.9998486288698551,0.0002205674827695428
-0.486002877537976,-0.486002877537976,1.0000917575732577,0.0001992146987951023
-0.4858754215340014,-0.4858754215340014,1.0001606811591834,0.00021109695104975842
-0.48570821113244167,-0.48570821113244167,1.000364775388509,0.00021515481639893422
-0.48563699378282765,-0.48563699378282765,0.9996757704815197,0.00022134445149821365
-0.4855472365976311,-0.4855472365976311,1.0001121539335567,0.0002239786191430932
-0.4854328408371657,-0.4854328408371657,1.0002812804558323,0.00021340492791727876
-0.48522969387995546,-0.48522969387995546,0.9999520239263532,0.00021873665733410444
-0.4849227853555931,-0.4849227853555931,0.9998072212919087,0.0002216793344918488
-0.4848256285957177,-0.4848256285957177,0.9998151359552431,0.00021271370518649991
-0.48472485609672733,-0.48472485609672733,0.9999525715591264,0.00022058087074824985
-0.4845984104395029,-0.4845984104395029,1.0004052434879596,0.00022421287697768793
-0.48447366212058113,-0.48447366212058113,0.9999214310422702,0.00020398282996459842
-0.48426679088152014,-0.48426679088152014,1.000065077059436,0.00021407937833149595
-0.4841271906407201,-0.4841271906407201,1.0002311196688556,0.000214327049106207
-0.48406432718766157,-0.48406432718766157,1.000099865541062,0.00020976507773080413
-0.48387521599652245,-0.48387521599652245,0.9998092326178003,0.00021102109795152266
-0.4837506632407894,-0.4837506632407894,0.999979557183439,0.0002200208580346542
-0.4836550518666627,-0.4836550518666627,1.0001378385447315,0.0002228373198442231
-0.48354974771500564,-0.48354974771500564,0.999971408198099,0.0002076608664349668
-0.4833703959098784,-0.4833703959098784,0.999839541159236,0.00021598563758205017
-0.48316640377015574,-0.48316640377015574,0.9999633345326963,0.00021025205975682895
-0.48293262941006104,-0.48293262941006104,0.9996060696432609,0.00021181547188748863
-0.4828145987456082,-0.4828145987456082,1.0000346962830196,0.00020654621146334867
-0.4827183540837723,-0.4827183540837723,0.9998169860407463,0.00020942156107806023
-0.48264781152975045,-0.48264781152975045,1.0003823449747968,0.0002131738609262882
-0.4825331650863518,-0.4825331650863518,1.000074746139718,0.00022077255020685267
-0.4823145232352545,-0.4823145232352545,0.9997108894069653,0.00020921260202622348
-0.4821699020481901,-0.4821699020481901,0.9999204521265741,0.00022085455058550341
-0.48208586448599816,-0.48208586448599816,0.9999838956360264,0.0002063897552228214
-0.4819185091590043,-0.4819185091590043,0.9997309331477695,0.00020598385124113265
-0.4817910512065282,-0.4817910512065282,1.0001290683632509,0.00022612500910128205
-0.48169184739672344,-0.48169184739672344,1.0001724025508583,0.00021538397737227915
-0.4815904416289413,-0.4815904416289413,0.9998635682814279,0.00022147589955935529
-0.4814348766594776,-0.4814348766594776,1.0002803549942136,0.00021577762377897246
-0.4813049840275198,-0.4813049840275198,1.0000993977033676,0.00021353493969179885
-0.48112563273462,-0.48112563273462,0.9998694443522848,0.00021532476584314457
-0.4809459091717144,-0.4809459091717144,1.000032720405325,0.00020986026916689163
-0.4808210066781612,-0.4808210066781612,0.9999884765427616,0.00020646365311219884
-0.48071644803567326,-0.48071644803567326,1.0000414919506437,0.00022409100654346945
-0.4805796243483201,-0.4805796243483201,0.999839686345996,0.0002239098365167866
-0.4804299824434565,-0.4804299824434565,0.9999025261963205,0.0002114198503432989
-0.4802827151317615,-0.4802827151317615,0.9999366927409767,0.00020070055553554023
-0.4800916549487738,-0.4800916549487738,0.9998272566405474,0.00020831633135840393
-0.47995858445792694,-0.47995858445792694,1.0001098049060178,0.0002197181154409973
-0.47980994725076015,-0.47980994725076015,1.0000894078549747,0.00022433831619151872
-0.47971924560988555,-0.47971924560988555,1.000004150957046,0.00021746067553650238
-0.479596562194638,-0.479596562194638,0.999943551969249,0.00020813374501076897
-0.4794639724015724,-0.4794639724015724,0.9999751688973024,0.00022094243150420442
-0.47937117658730133,-0.47937117658730133,0.9996621117570001,0.0002074789851673369
-0.4792237264526193,-0.4792237264526193,1.000191526302677,0.00020785483450032062
-0.4790704262268264,-0.4790704262268264,1.0000884700786372,0.00022160594701809149
-0.47896452018176205,-0.47896452018176205,0.9999881176370765,0.0002136482907838106
-0.4787808652603417,-0.4787808652603417,1.0000432762029576,0.00022453794672552097
-0.47864995580748654,-0.47864995580748654,0.9998043290603482,0.00020993451338009337
-0.47852690110885304,-0.47852690110885304,1.0002964194286634,0.0002028981873709235
-0.47838455188466467,-0.47838455188466467,0.9999660861416244,0.0002038784461297867
-0.47818792954349193,-0.47818792954349193,0.9999274315538094,0.00021158025877514105
-0.47806769749295197,-0.47806769749295197,0.9997946853682332,0.00021016663167592155
-0.47796111600473523,-0.47796111600473523,0.9999841441981598,0.00021923931296932874
-0.47780577576486394,-0.47780577576486394,1.0000115610743268,0.0002208907762687787
-0.4776979109257809,-0.4776979109257809,0.9999279628416307,0.00021732976387881978
-0.47753859377844493,-0.47753859377844493,0.9998327431309582,0.0002082479955608665
-0.47742952820262874,-0.47742952820262874,0.9999982082823491,0.00021747631357498407
-0.477332682342967,-0.477332682342967,1.000303745994297,0.00021532560224700724
-0.4771839794702828,-0.4771839794702828,0.9999992164349389,0.0002125095417914908
-0.4770910959981848,-0.4770910959981848,0.9997341691142448,0.00021323233747814221
-0.4769711621687748,-0.4769711621687748,1.0001569805072712,0.00022038851243768687
-0.4767457600435591,-0.4767457600435591,1.000245504676323,0.00021744605875863413
-0.4766712058626581,-0.4766712058626581,0.9999733970129411,0.00019839392993451285
-0.47658278592134595,-0.47658278592134595,1.0001023210950137,0.00021129641360387771
-0.47631814710330217,-0.47631814710330217,1.0000932775842977,0.00020625693448805463
-0.4761236888356507,-0.4761236888356507,0.9998348845532664,0.00021216433774132442
-0.47604805371083786,-0.47604805371083786,1.0000967878184472,0.00022890994484743918
-0.4758911380165955,-0.4758911380165955,0.9998869790957643,0.0002225586992603015
-0.47573273768066426,-0.47573273768066426,1.0002006867212916,0.0002097547389468605
-0.4756155324430438,-0.4756155324430438,1.0000333842932654,0.00020818654906473662
-0.47548569342761765,-0.47548569342761765,0.9999985728004113,0.00021382214822334588
-0.4753898782320903,-0.4753898782320903,1.0004381548919274,0.00021984139525134494
-0.475307414161216,-0.475307414161216,0.9999504518169176,0.0002139030822541728
-0.4751936428467161,-0.4751936428467161,1.0001928409621106,0.0002032325689004983
-0.47510517794580664,-0.47510517794580664,0.9999705156368707,0.0002219971705107336
-0.47496405673155095,-0.47496405673155095,1.0003110585889985,0.00022376016965044927
-0.4748457531139138,-0.4748457531139138,0.9998432432080712,0.00020610290112276457
-0.4747309213227709,-0.4747309213227709,1.000060217596066,0.00020596956153993347
-0.474607197214209,-0.474607197214209,1.0005780918983962,0.00021196489600465505
-0.47450102367292857,-0.47450102367292857,1.0000405788733997,0.0002033203876879264
-0.4743937111648847,-0.4743937111648847,0.9999272539902074,0.00020179276031212528
-0.47424580034421526,-0.47424580034421526,0.9997863668817919,0.00021105520079506987
-0.47410097059764666,-0.47410097059764666,0.9997814779880763,0.00023039865365109743
-0.4739930735173402,-0.4739930735173402,0.9997574468770847,0.00021862132173386468
-0.4738578940770822,-0.4738578940770822,1.0001955495603403,0.00020781260758186287
-0.4736643361640745,-0.4736643361640745,1.0000085892446833,0.0002109714474181777
-0.47351512328314127,-0.47351512328314127,1.000163669839219,0.00021317863596404755
-0.4734273295136518,-0.4734273295136518,0.9999280522145781,0.00021439053152899588
-0.47333714687265455,-0.47333714687265455,1.0001218332704704,0.00021807761494350509
-0.47324247136857595,-0.47324247136857595,1.0002560233163529,0.0002278300054527234
-0.4730903842384578,-0.4730903842384578,1.000249240796116,0.00020716048588168904
-0.4729812742880313,-0.4729812742880313,0.9999097788391973,0.00020343796099027352
-0.472919877244567,-0.472919877244567,0.9998819939451943,0.00021574343728122635
-0.47270865207101453,-0.47270865207101453,1.0002613928057973,0.00021128734151432525
-0.4726355522041558,-0.4726355522041558,0.9999721541125954,0.00020879227018171016
-0.47253553001646653,-0.47253553001646653,1.000119333294961,0.00020943026659915657
-0.47234341794101053,-0.47234341794101053,0.9997544947645742,0.00020795686743950935
-0.47218421030265745,-0.47218421030265745,1.0000714059488793,0.0002312607512671056
-0.47202258379838896,-0.47202258379838896,0.9999787411906386,0.00021705101220057275
-0.47194034270651175,-0.47194034270651175,1.0003978503594957,0.00021176946095477112
-0.47179798464494527,-0.47179798464494527,1.000334079958118,0.00020117291741348465
-0.4715761235987884,-0.4715761235987884,1.000118686632375,0.00021815511334528562
-0.47147764527471736,-0.47147764527471736,1.0000981193172434,0.00021528746220901072
-0.4713698369450867,-0.4713698369450867,0.9997871683754933,0.00021838039220683207
-0.47127299119892996,-0.47127299119892996,0.9999506489560019,0.00022966621082901403
-0.47113050886255226,-0.47113050886255226,0.9998600572893181,0.0001991782210792851
-0.47104382059478667,-0.47104382059478667,1.000016958156006,0.00020690542354101808
-0.4709020550362766,-0.4709020550362766,1.0002045974163623,0.00022112003678363348
-0.47073144469468386,-0.47073144469468386,0.9999875164598919,0.0002066828970816018
-0.47064531383657593,-0.47064531383657593,1.0000236349434823,0.00021075825408684032
-0.47053893836564387,-0.47053893836564387,0.9999760172402027,0.00021289340942642066
-0.4704391867373488,-0.4704391867373488,1.0001885507242245,0.00021162504196704955
-0.47026494320307394,-0.47026494320307394,0.999963008447119,0.0002231334664622502
-0.4701715282659279,-0.4701715282659279,0.999981122821703,0.00021091004381768123
-0.47008305459457916,-0.47008305459457916,0.9998025665305622,0.00021383600259644586
-0.4699166696955217,-0.4699166696955217,1.0000297537674367,0.00020833299878673435
-0.46983277325198286,-0.46983277325198286,0.9999949052573754,0.00020549551293015813
-0.4696375551400706,-0.4696375551400706,1.000421435267087,0.0002181798934547435
-0.46949930850678356,-0.46949930850678356,0.9997022201715892,0.00021890570092410246
-0.46937788599025226,-0.46937788599025226,1.000085464861196,0.00021704503438264362
-0.46930993613641475,-0.46930993613641475,1.0001142356321755,0.00020624678932915135
-0.46915504964999855,-0.46915504964999855,0.9998473988914902,0.0002125937400599754
-0.46901695192209447,-0.46901695192209447,0.9999930946309815,0.00021840844364173586
-0.4688466036619502,-0.4688466036619502,0.999760808476613,0.00021384095644182052
-0.4686033617297653,-0.4686033617297653,0.9998639717383826,0.00021644224141423467
-0.4684410902642412,-0.4684410902642412,1.000207239698293,0.00021300977555392767
-0.46834647064533785,-0.46834647064533785,1.0000712332484738,0.00022983049651246747
-0.46827760849992045,-0.46827760849992045,1.0002174520828997,0.00020812360187853605
-0.4681511490052799,-0.4681511490052799,1.0002260474391114,0.00021420050652711284
-0.4680047338290024,-0.4680047338290024,1.0003334661082526,0.00020364571980174034
-0.4678875094061368,-0.4678875094061368,0.9999250054801113,0.0002157122160000482
-0.46778260517749004,-0.46778260517749004,0.9999309491831386,0.00020776213255163737
-0.4675173322160845,-0.4675173322160845,0.9998566717345261,0.0002174079341364619
-0.46742108310281766,-0.46742108310281766,0.9997991274088452,0.00022372555676578894
-0.4673434796364745,-0.4673434796364745,1.0001527023983496,0.00021398634686120626
-0.46720939280930907,-0.46720939280930907,0.9998692863950011,0.00022060123928563299
-0.4670545396627858,-0.4670545396627858,1.0001372843096645,0.000206725342718868
-0.46695125290425493,-0.46695125290425493,0.999887866907389,0.00021751628295315034
-0.4667529257174465,-0.4667529257174465,1.000151290688859,0.00021509521977144453
