time,time,flux,flux_err
-0.4998564183394289,-0.4998564183394289,1.000115476366804,0.00015294135338855363
-0.49968048873633963,-0.49968048873633963,1.0001329545478983,0.0001327885712721616
-0.4995386152470019,-0.4995386152470019,1.0000615906685646,0.00013625314673225956
-0.49942774621304126,-0.49942774621304126,1.0001349195461389,0.00013684608665103662
-0.49934139716206116,-0.49934139716206116,1.0002196887942965,0.00013405893711065462
-0.49925764949730367,-0.49925764949730367,0.9999222647234444,0.00014168550182371698
-0.4991112654279277,-0.4991112654279277,1.000013874206656,0.00015060424559405696
-0.49892033784926754,-0.49892033784926754,0.9997927753982914,0.0001355686747334364
-0.49880186984155445,-0.49880186984155445,1.0000936156472935,0.00013255177135689493
-0.4986119752327795,-0.4986119752327795,1.0000579382686827,0.00014421670079095973
-0.49846239404869264,-0.49846239404869264,0.9999827454970414,0.0001454633260427165
-0.4983325614659407,-0.4983325614659407,1.0001768376857167,0.00013427911941714187
-0.49817965484471644,-0.49817965484471644,1.000175943577862,0.00013462277785564688
-0.49807472341053655,-0.49807472341053655,1.0000668023153723,0.00013264947106034276
-0.4979623596991587,-0.4979623596991587,0.9999598881010566,0.0001330945204027774
-0.4978353354388673,-0.4978353354388673,1.000255933860083,0.00014330354988921864
-0.4976899852685165,-0.4976899852685165,1.0000978645029006,0.0001364112812756979
-0.49753796234945186,-0.49753796234945186,0.9999332692981499,0.0001309421998575464
-0.49744235812395343,-0.49744235812395343,0.9999816134042536,0.00013464485309937107
-0.49732283570338043,-0.49732283570338043,0.9998546180142114,0.0001398296603272545
-0.4972288876379025,-0.4972288876379025,0.9998287537826458,0.00014462694994887032
-0.49711914785875705,-0.49711914785875705,0.9998114667981131,0.00013391295074167877
-0.49697709178726657,-0.49697709178726657,1.0001305646132517,0.00013233987934357743
-0.4968674216484942,-0.4968674216484942,1.0000851317799406,0.00013718676155186543
-0.496765836035047,-0.496765836035047,0.9998937481856498,0.00014136126672798313
-0.4965672596787044,-0.4965672596787044,1.0001136648625246,0.0001359987674974928
-0.49645688947057354,-0.49645688947057354,0.9999720383089308,0.00014266851861705805
-0.49634562748033206,-0.49634562748033206,1.000089254299771,0.00013587480739884027
-0.4962184265095857,-0.4962184265095857,0.9999283478800767,0.00013472629830826565
-0.4960124681922025,-0.4960124681922025,0.999815397374151,0.00014832150177009854
-0.49583482091984477,-0.49583482091984477,0.9999830195351744,0.0001456285107147255
-0.4957461904203228,-0.4957461904203228,1.0001185438691718,0.00013410064994754693
-0.49566044062012227,-0.49566044062012227,0.9999464290479105,0.0001334687865896071
-0.49560325963029755,-0.49560325963029755,0.9998750964236484,0.00013449858767844517
-0.4955041916509799,-0.4955041916509799,1.0001144677784735,0.0001350970081347999
-0.49536593959637687,-0.49536593959637687,1.0000065427154872,0.0001374507194585773
-0.4952489396178862,-0.4952489396178862,0.9999462098302934,0.00013219502412853613
-0.4951318926803651,-0.4951318926803651,1.0001352707761566,0.00015194197126948636
-0.4950184942026681,-0.4950184942026681,0.9999073979990335,0.00013719982788773714
-0.4948708506322873,-0.4948708506322873,0.9999672441647263,0.00013864390144864818
-0.4947733635905024,-0.4947733635905024,1.0000326457902098,0.00013352402547123744
-0.49463780874211805,-0.49463780874211805,0.9998705463871624,0.00018968723137067437
-0.49445847645256435,-0.49445847645256435,1.000086667730772,0.0001510652162302757
-0.49428218027387627,-0.49428218027387627,1.000189689536084,0.00014529114015488404
-0.49415648681751917,-0.49415648681751917,0.9998975660880847,0.00013420744281706637
-0.49404789310501657,-0.49404789310501657,1.0001074447288467,0.0001359928448248142
-0.49389669355077787,-0.49389669355077787,1.000057658166336,0.0001440123629731425
-0.49380698426321035,-0.49380698426321035,0.9999276403297781,0.0001343245009623142
-0.49372873798492944,-0.49372873798492944,1.0000315968915223,0.00014465328945686206
-0.49348890500259585,-0.49348890500259585,0.9999536496204543,0.0001352274124582405
-0.49337968230902335,-0.49337968230902335,1.0000707319121394,0.00013595157675904177
-0.4932324518857058,-0.4932324518857058,1.0003191573886503,0.0001342832057104829
-0.4931567559557152,-0.4931567559557152,0.9998439264123874,0.00014154703797182903
-0.49301281652733453,-0.49301281652733453,0.9999235005706787,0.00014409081689326683
-0.4928109147142095,-0.4928109147142095,0.9999254292719082,0.00013415822189191814
-0.49261188114251125,-0.49261188114251125,1.0001150362946474,0.00013265302400094497
-0.49247879261456545,-0.49247879261456545,0.9997985256455072,0.00014006143512094348
-0.4923389269737527,-0.4923389269737527,0.9998246941161912,0.00013342604345062246
-0.492210216967942,-0.492210216967942,1.0001761146316674,0.00013576810860493871
-0.4920683776064834,-0.4920683776064834,1.0001794659232002,0.0001368218317722311
-0.49198637075314766,-0.49198637075314766,1.0000349196582348,0.000135857693270301
-0.4918315435439581,-0.4918315435439581,0.9999440926509484,0.0001528231242563433
-0.4916771989359404,-0.4916771989359404,1.0002171980091261,0.00014514694606523683
-0.491567874734028,-0.491567874734028,0.9998674993624072,0.00013379724554234634
-0.4914493701980973,-0.4914493701980973,0.999954003496552,0.0001359369736590687
-0.4912412580451928,-0.4912412580451928,1.000097421436739,0.0001441141650487183
-0.4910740327519306,-0.4910740327519306,0.9998850853913208,0.00014469560312631755
-0.49096274233379517,-0.49096274233379517,1.0003013867397488,0.00013561929490806432
-0.49083409138111167,-0.49083409138111167,0.9998725890944881,0.0001310825698795886
-0.490719520192215,-0.490719520192215,1.000001567479567,0.00013521140714739562
-0.4906267405123799,-0.4906267405123799,0.9999825951142277,0.00013240144705789844
-0.49051076735559035,-0.49051076735559035,1.0001514084246033,0.00013703005813486374
-0.4903718948211463,-0.4903718948211463,0.9999815535301035,0.00014458025798415794
-0.4901589232191327,-0.4901589232191327,1.0000646807396931,0.00013581435529666828
-0.49001813179929743,-0.49001813179929743,1.000028274558689,0.00013745216318025618
-0.4899290413020935,-0.4899290413020935,1.0000550563930948,0.00013522044531649057
-0.48983583578374235,-0.48983583578374235,1.000199795811275,0.00014412299632147497
-0.4897247833097936,-0.4897247833097936,0.9999433571584291,0.00013392127950384965
-0.48958031522270173,-0.48958031522270173,0.9999068637581849,0.0001320863147020347
-0.48948501262202626,-0.48948501262202626,1.0000060634766108,0.0001352476582294916
-0.48941029347406584,-0.48941029347406584,1.0000287715930425,0.00014142461148615223
-0.4892091826237447,-0.4892091826237447,0.9998258640825984,0.0001372964585517355
-0.48910657217129483,-0.48910657217129483,0.9999389971617841,0.00014273609563126866
-0.4889938267020625,-0.4889938267020625,1.0001759721437193,0.0001371929461499937
-0.4889043397655769,-0.4889043397655769,1.0000045437975378,0.00013267270281583525
-0.4887067331641447,-0.4887067331641447,0.9999769609105373,0.00013501708012152974
-0.48855243561411044,-0.48855243561411044,1.0000984691445178,0.00015253383051027665
-0.4884003218634462,-0.4884003218634462,1.0000667245819828,0.00014400427805016933
-0.4883081257125014,-0.4883081257125014,0.9997882590919422,0.00013570261343413492
-0.4882331860695558,-0.4882331860695558,0.9998872180736861,0.0001338256974429652
-0.48812778067149337,-0.48812778067149337,1.0000041918622098,0.00013732402514091238
-0.4880331111737178,-0.4880331111737178,0.9997911397812185,0.00013424724717963715
-0.4878856174080283,-0.4878856174080283,0.9998882812301254,0.0001348838555091363
-0.48778767372059517,-0.48778767372059517,1.0000835717347845,0.00014387022576774076
-0.4877148768326151,-0.4877148768326151,0.9999589294489442,0.00014526912355908986
-0.48758077220918494,-0.48758077220918494,0.9999700594186296,0.00013637679847482135
-0.48747948396776336,-0.48747948396776336,0.9998556248999115,0.00013717919127579256
-0.4873854787205346,-0.4873854787205346,1.0000252021169045,0.0001334956327675866
-0.48723052834538977,-0.48723052834538977,1.0002778714564637,0.00018704021124700854
-0.48707056962375644,-0.48707056962375644,1.0000764511864872,0.00015108999360020873
-0.4868786659222678,-0.4868786659222678,1.0004074342811098,0.00013502034242067481
-0.4867516530008288,-0.4867516530008288,0.9998902018455313,0.00013234976826514874
-0.48664910509978654,-0.48664910509978654,1.0000228035942738,0.000134642912859721
-0.48652987854075036,-0.48652987854075036,0.9998854543061336,0.00014330230453284056
-0.48643526925952757,-0.48643526925952757,1.0001179023241147,0.0001343968695509859
-0.48637114201337683,-0.48637114201337683,0.9999276952073333,0.000146006213194993
-0.4861989217810333,-0.4861989217810333,1.0001000066591208,0.00013452062828354193
-0.4860828791177482,-0.4860828791177482,1.0001277781525648,0.00013592861219331297
-0.4859684415307129,-0.4859684415307129,0.9997873694842937,0.00013526807444689263
-0.4858161385564017,-0.4858161385564017,1.000006897046098,0.00014361379819601014
-0.4857074486433703,-0.4857074486433703,1.0000451680079645,0.00014432514914766337
-0.4854625228472287,-0.4854625228472287,1.0000840410576175,0.00013477034026065847
-0.4852867383531702,-0.4852867383531702,0.9996579099985501,0.00013475559663796743
-0.4851189103319484,-0.4851189103319484,0.9999611018112962,0.00014109543380336583
-0.4850161289446987,-0.4850161289446987,0.9999502251504199,0.0001340955425578663
-0.4849189512045996,-0.4849189512045996,0.9999777215138691,0.00013375698795903748
-0.48485406481995597,-0.48485406481995597,1.0000433971092741,0.00013167548975813828
-0.4847315028142475,-0.4847315028142475,0.9998198990958465,0.0001361027500601328
-0.48464453258930007,-0.48464453258930007,1.0001244606399458,0.0001353869540543123
-0.48456568734836764,-0.48456568734836764,0.9998259281648559,0.00013650878666656124
-0.48443090103319264,-0.48443090103319264,1.0000165627976931,0.00015865079442040642
-0.4842635721055558,-0.4842635721055558,1.0000742277037777,0.00013513418716817763
-0.4841747392063553,-0.4841747392063553,0.9998664301498643,0.00013359216668180655
-0.48405943825346187,-0.48405943825346187,0.9998907763038757,0.00013595610354288722
-0.4838697474806395,-0.4838697474806395,0.9999943500257704,0.0001424269562979639
-0.4837563310924452,-0.4837563310924452,0.9999637556986654,0.0001436009486757927
-0.48363952015715767,-0.48363952015715767,1.0000564219016173,0.00014175829856249132
-0.483560887681233,-0.483560887681233,1.0002828444159526,0.000134272350109286
-0.4833864331871155,-0.4833864331871155,0.9997945660135349,0.0001331422248382199
-0.4832939102801902,-0.4832939102801902,0.9999361084286997,0.00013542010768695403
-0.4831790968906716,-0.4831790968906716,0.9999541426041848,0.00013242576110010414
-0.4831142440176336,-0.4831142440176336,0.9999674239569248,0.00013889037112138915
-0.4830320122593548,-0.4830320122593548,0.9999549032307987,0.0001304480467554417
-0.4828737378498772,-0.4828737378498772,1.0000705577601,0.00014411570938653516
-0.4826959510166489,-0.4826959510166489,1.0000164803142855,0.00013464811733331238
-0.4825570419714495,-0.4825570419714495,0.9999027517474988,0.00017347000469484966
-0.4824796993918426,-0.4824796993918426,1.0001318477070649,0.00014743444571820616
-0.4823967950324004,-0.4823967950324004,1.0002034374047093,0.0001324530424028603
-0.48225835003395334,-0.48225835003395334,1.000157702984335,0.00013383943885346547
-0.48211434483891935,-0.48211434483891935,0.9997035981053612,0.00013399730155282049
-0.4820329680784198,-0.4820329680784198,0.9998731789191521,0.00014069431401176013
-0.48188454341652687,-0.48188454341652687,1.0002619905862702,0.00013664927866721287
-0.48177660474757433,-0.48177660474757433,1.0002406315445196,0.0001364931703014282
-0.48169555806307474,-0.48169555806307474,0.9999866976503246,0.00014167990264877232
-0.48158026334494936,-0.48158026334494936,0.9999750197183266,0.00013392746771178856
-0.481497432897595,-0.481497432897595,0.9998491462680767,0.00013294711518484353
-0.4812919435898948,-0.4812919435898948,0.9999947054443326,0.00013366525635927215
-0.4811365895722702,-0.4811365895722702,1.000097616068331,0.00014433451300691443
-0.48097831423146997,-0.48097831423146997,1.0000450872556423,0.00013468047992536885
-0.4808500189537881,-0.4808500189537881,0.999921820016249,0.0001339379305245393
-0.48075926676392555,-0.48075926676392555,1.0000439281358937,0.00013806230220303462
-0.48070012675379986,-0.48070012675379986,1.0000208573542226,0.0001319505872551656
-0.4806091793427186,-0.4806091793427186,1.00009310204243,0.00013577534221774409
-0.4804878959483176,-0.4804878959483176,0.9999957438935075,0.00013645051305205053
-0.4804013703855162,-0.4804013703855162,1.0000835768631062,0.00014392976421233046
-0.4803086214342329,-0.4803086214342329,1.0002235969352113,0.00014196081414063444
-0.4801504443777958,-0.4801504443777958,1.0003304298373954,0.00013765663079009545
-0.48004282119727576,-0.48004282119727576,1.0000604501339256,0.00013500155403240642
-0.47987619318882935,-0.47987619318882935,1.000093789104459,0.0001853586076474381
-0.4797130512379226,-0.4797130512379226,1.0002480035276053,0.0001514726596925201
-0.47960983795201173,-0.47960983795201173,0.9999945225135336,0.00014257919264409988
-0.47941069614025766,-0.47941069614025766,0.9998887700522581,0.00014556063386238671
-0.47934017146690167,-0.47934017146690167,1.0001036016927336,0.000135716095666486
-0.47918654610111844,-0.47918654610111844,1.0000324612996379,0.00014372654448030248
-0.4790733308363997,-0.4790733308363997,1.000100100794658,0.00013655116459987377
-0.47900248646183174,-0.47900248646183174,1.0000557274480206,0.00014682741678758227
-0.47890887495013884,-0.47890887495013884,1.000236390603062,0.0001350327153988797
-0.47874036271532533,-0.47874036271532533,1.0000616164451785,0.00013551112929503548
-0.47866238787391924,-0.47866238787391924,0.9999470989504893,0.00013717582195983116
-0.47850091928630717,-0.47850091928630717,0.9999568203935837,0.00014288874100859146
-0.4783708709066559,-0.4783708709066559,0.9998764711644575,0.0001439491934885418
-0.4782359320313844,-0.4782359320313844,1.0000730607351502,0.0001366906074904002
-0.4780320276484417,-0.4780320276484417,1.0000145057899879,0.000134179276276874
-0.4778220746498846,-0.4778220746498846,1.0001474029083945,0.0001429439253515463
-0.4776852438764763,-0.4776852438764763,0.9998708579984725,0.0001327175163272508
-0.477577849397494,-0.477577849397494,1.0000433937982225,0.00013323845879546265
-0.4774809672839183,-0.4774809672839183,0.9999178616918799,0.0001335004953523575
-0.4773679621401243,-0.4773679621401243,1.0003352646106871,0.00013510134945558176
-0.4772777360791224,-0.4772777360791224,0.9998776492631546,0.00013728708003145926
-0.47719446701376,-0.47719446701376,1.0002966757147569,0.00013619530356044342
-0.47707470011955594,-0.47707470011955594,1.0000766518649784,0.00015186953213032467
-0.476907530202152,-0.476907530202152,1.000169650160179,0.00014639814246758472
-0.47678577851766024,-0.47678577851766024,0.9999941968625471,0.00013219925469032861
-0.47669824516779047,-0.47669824516779047,1.0002539068943064,0.00013610296234023686
-0.47648693107985307,-0.47648693107985307,0.9999059979059481,0.00014556505016429265
-0.47636906078696484,-0.47636906078696484,0.9999070975212614,0.0001458961040144781
-0.47628233589639424,-0.47628233589639424,0.9999623617852924,0.00013507847828888114
-0.476191242110508,-0.476191242110508,1.0001127705031554,0.00013736359426630616
-0.4760804250850924,-0.4760804250850924,1.000149802042926,0.00013756727262048574
-0.4759447409262066,-0.4759447409262066,0.9998826029790099,0.00013174901593335093
-0.4757979680071003,-0.4757979680071003,1.000170080767568,0.00013494673776405394
-0.47569755390795765,-0.47569755390795765,1.000112782416964,0.0001399018043718268
-0.47557383046951146,-0.47557383046951146,1.0001343526549562,0.0001427661941404244
-0.4753872178218444,-0.4753872178218444,1.000025302796344,0.00013531689971616912
-0.4752690951943805,-0.4752690951943805,0.9996801307997863,0.00013486031520468418
-0.4751641935858061,-0.4751641935858061,1.0000049225175147,0.00016496202070264028
-0.47508118082987494,-0.47508118082987494,0.9999111513325774,0.0001469081094954437
-0.47499281050404535,-0.47499281050404535,1.0000641560639933,0.0001326518141644618
-0.4749029994891316,-0.4749029994891316,1.0001484184136997,0.00013491688378968744
-0.47476996885670814,-0.47476996885670814,1.000026064391904,0.00013488380740398013
-0.4746734552856651,-0.4746734552856651,1.0000928342114945,0.00013303624061380729
-0.47458642100755244,-0.47458642100755244,1.0001604307470837,0.0001427600542485497
-0.4744256706799206,-0.4744256706799206,0.9999981368313661,0.0001349291053800312
-0.4743485507904552,-0.4743485507904552,1.0002064271919777,0.00014354302811294916
-0.4742232518074161,-0.4742232518074161,0.999921114965615,0.00013300842267700242
-0.4741360508953221,-0.4741360508953221,0.9999585970169415,0.00013163753335877057
-0.4739884502545465,-0.4739884502545465,1.0000178085645455,0.00013540215477701075
-0.4738021402692539,-0.4738021402692539,1.0000011941544042,0.00013560977958047932
-0.4736302332872583,-0.4736302332872583,0.9999825585029368,0.00014241743778508758
-0.47351873915322357,-0.47351873915322357,1.0000424795187937,0.00013709209110910792
-0.4734213249306777,-0.4734213249306777,0.9998932638036774,0.00013374285181314878
-0.4733458529524796,-0.4733458529524796,0.9999904292710197,0.00013694830730895125
-0.473294026786607,-0.473294026786607,1.0000492364597717,0.00013299835001952812
-0.47320587279391474,-0.47320587279391474,1.0000242729048545,0.0001333546921648072
-0.4730795692456013,-0.4730795692456013,0.9999182803934991,0.0001366595228131009
-0.473002164769423,-0.473002164769423,1.0000910438379227,0.00015175852835306775
-0.4728962773559033,-0.4728962773559033,0.9999238044092562,0.00013166404349309525
-0.47273976395299544,-0.47273976395299544,1.0002372364586294,0.0001355038749410631
-0.4726236922411772,-0.4726236922411772,1.0000295331649638,0.00013495801201594655
-0.47246166514159993,-0.47246166514159993,0.9999905452034309,0.00018278813192144463
-0.47228920655106776,-0.47228920655106776,1.0001023571753478,0.00015206380839969622
-0.4720571809324611,-0.4720571809324611,0.9999053900032845,0.000132640368561533
-0.4719648466598301,-0.4719648466598301,1.0000161949227038,0.00013620835458263593
-0.47184056440237326,-0.47184056440237326,0.9999941438370217,0.00013265986428738166
-0.47173083970774315,-0.47173083970774315,0.9999993150698583,0.00014462028444110403
-0.4716236870728608,-0.4716236870728608,1.0000442006749029,0.0001454208619628666
-0.47157853754106327,-0.47157853754106327,1.000153519442908,0.00013556140926023066
-0.4714362091071962,-0.4714362091071962,1.0002339596190768,0.00013483671394979633
-0.4713237643976754,-0.4713237643976754,0.9999604764967653,0.00013542085886524458
-0.47123394924783496,-0.47123394924783496,0.9999690538074315,0.00013412658647282303
-0.47110504717711593,-0.47110504717711593,1.0002505567735063,0.0001458470359794626
-0.4709811915534374,-0.4709811915534374,1.0000567774161324,0.00014395915674771258
-0.4708439295980497,-0.4708439295980497,0.9999114733500969,0.00013670134469398302
-0.4706426200158603,-0.4706426200158603,1.0002087291304271,0.00013416603464221896
-0.4704066663813137,-0.4704066663813137,1.0002606887495495,0.0001414003092198607
-0.47026442102942384,-0.47026442102942384,1.0001838721742717,0.00013297993370642324
-0.47016295963840093,-0.47016295963840093,0.9998511516142441,0.00013467699307352388
-0.47006607668299694,-0.47006607668299694,1.0000721947030407,0.00013276119443779243
-0.46992795591795583,-0.46992795591795583,0.9999922705622313,0.00013762145681605196
-0.4698231752438005,-0.4698231752438005,0.9998760218481939,0.00013806898619853671
-0.46970323133282366,-0.46970323133282366,1.0000828750288933,0.0001507361142300732
-0.46945906682012717,-0.46945906682012717,1.0002251841650618,0.00013746187801273578
