time,time,flux,flux_err
-0.4998640618190014,-0.4998640618190014,0.9999426601482613,0.00011868957341129188
-0.49952597562757245,-0.49952597562757245,1.0001385339535969,0.00012067237805532585
-0.49927903545540175,-0.49927903545540175,1.0000260541448134,0.00011872101701814058
-0.4990776579390513,-0.4990776579390513,0.9998129872056716,0.00011153267001644954
-0.4988952692991006,-0.4988952692991006,1.000173501129965,0.00011032988215609084
-0.49873937761003617,-0.49873937761003617,1.0000884373655348,0.00010961488191894661
-0.49865435330721086,-0.49865435330721086,0.9999543265592294,0.00010722135050052062
-0.49853527041414053,-0.49853527041414053,0.9998873516302698,0.00010826605912800961
-0.49841986317478587,-0.49841986317478587,0.9999520384235169,0.00010828921929503872
-0.49824272698897404,-0.49824272698897404,1.0001329627537512,0.00010581075318234988
-0.49797857120865957,-0.49797857120865957,1.0000017596037243,0.00011060644970324273
-0.497775534336688,-0.497775534336688,1.0001325630031004,0.000108764906524121
-0.49743184296530674,-0.49743184296530674,1.0001153769834035,0.00011058845698231101
-0.4972867468604818,-0.4972867468604818,0.9999858625149619,0.00011093603509311355
-0.49715101800102274,-0.49715101800102274,1.0000167281496128,0.000108492059624318
-0.49700509484973737,-0.49700509484973737,0.9997940814813688,0.00011012431924254664
-0.49670838710444515,-0.49670838710444515,1.0001448705205975,0.00010728238270327202
-0.4964987492217915,-0.4964987492217915,1.000053897789876,0.00010793788862978905
-0.496361120128131,-0.496361120128131,0.9999656512241171,0.00010977440995011228
-0.4961080647990457,-0.4961080647990457,1.0001182681484755,0.00010799423695953779
-0.4959771392139373,-0.4959771392139373,1.0000868590626788,0.00011404959870043742
-0.49576824207470055,-0.49576824207470055,0.999922178314411,0.00010947614891012857
-0.4954495202633552,-0.4954495202633552,0.9998777902436761,0.00010924648029987983
-0.4953041233267868,-0.4953041233267868,0.999924853099236,0.00011003410825637634
-0.49519902966858353,-0.49519902966858353,0.9999287223731372,0.00010784520945777379
-0.4949741363569046,-0.4949741363569046,0.9999369865514985,0.00010981780100317402
-0.4947113225847716,-0.4947113225847716,0.9998810742121641,0.00010940372880936005
-0.49457136648416056,-0.49457136648416056,1.0001834137751253,0.00011050295560782583
-0.49452689799654764,-0.49452689799654764,1.0000554130783113,0.00010681640094347131
-0.49441504084097687,-0.49441504084097687,0.9998913572127843,0.00010885124418841177
-0.49429852237371963,-0.49429852237371963,0.9999674021476113,0.0001091427545321159
-0.4940630791417789,-0.4940630791417789,1.0000204288377694,0.00010913709347738769
-0.49379860812914556,-0.49379860812914556,0.9999985893466432,0.00010652536784342545
-0.49348093890585004,-0.49348093890585004,1.000102432895806,0.00011018587382614044
-0.4933010479391669,-0.4933010479391669,1.0001101408332704,0.00010898226896488489
-0.4931017344439169,-0.4931017344439169,0.999938706419319,0.00011165454846118349
-0.4929330042272341,-0.4929330042272341,0.999875883116377,0.00011017493901137913
-0.4927731589312316,-0.4927731589312316,1.0000957344957542,0.00010961992928043974
-0.49270961534493835,-0.49270961534493835,0.9997829411028343,0.00010665276731157194
-0.49258574374980524,-0.49258574374980524,0.9998489306910123,0.00010762468352754262
-0.4924824931309558,-0.4924824931309558,0.9999876855965699,0.00010946076132698171
-0.49230447141453626,-0.49230447141453626,0.9998135146816531,0.00010644447314715545
-0.4920786171205691,-0.4920786171205691,0.9998895686545405,0.00010620083284970429
-0.49190073425415903,-0.49190073425415903,0.9999941382272304,0.00011213012367692085
-0.4916950557322707,-0.4916950557322707,1.0000879835131802,0.00011198386028650577
-0.491347510839114,-0.491347510839114,1.0000796740468119,0.00010932093481066116
-0.49124123000365216,-0.49124123000365216,0.9999429566574657,0.00010914879522089111
-0.49113160781562326,-0.49113160781562326,1.0001213271038,0.00011097788859025002
-0.49090163931250574,-0.49090163931250574,1.0000317682960294,0.00010808121889595456
-0.4905997359237517,-0.4905997359237517,1.0002633721764607,0.00010800022263842822
-0.4904422432533465,-0.4904422432533465,1.0000103265696285,0.000110785203566892
-0.4902573432671488,-0.4902573432671488,1.0000435677615693,0.0001074360840777907
-0.4900889577693306,-0.4900889577693306,1.0000435194193233,0.00011035728728261782
-0.489970485350932,-0.489970485350932,1.0000426572349408,0.00011180722383078001
-0.4895904242061079,-0.4895904242061079,1.0000769684062747,0.00010902055475417142
-0.4893732763972366,-0.4893732763972366,0.9998996807442232,0.00011181815708272693
-0.4892299645638559,-0.4892299645638559,1.000130531957359,0.00010776983707545962
-0.48900879307911965,-0.48900879307911965,1.0000231645009392,0.00010981928655268056
-0.48871794271981345,-0.48871794271981345,1.0001822587716638,0.0001107812254173039
-0.48858690341585315,-0.48858690341585315,1.0000617004410306,0.00010920072595276428
-0.48851414187811315,-0.48851414187811315,1.000005279616284,0.00010877594831337452
-0.48836018911679274,-0.48836018911679274,1.0001760831488014,0.00010875026395260623
-0.4882281106809387,-0.4882281106809387,0.9998628723530736,0.0001095448538113688
-0.487998943545972,-0.487998943545972,1.000080165861695,0.00010758347333664638
-0.48766199619567485,-0.48766199619567485,0.9999350638171773,0.00010881891503701716
-0.4874227118998533,-0.4874227118998533,0.9998065325965693,0.00010747916256859378
-0.48721318124444224,-0.48721318124444224,0.9998378044010792,0.00010953327576272286
-0.4870684706096654,-0.4870684706096654,0.999992481904871,0.00011154290859609183
-0.4868727593202493,-0.4868727593202493,0.9998805217476263,0.00010888173106553716
-0.486776665810612,-0.486776665810612,1.0001426899737815,0.00010959417710576229
-0.48667766130820383,-0.48667766130820383,1.0001284406865263,0.00010620008126379594
-0.4865376766247209,-0.4865376766247209,1.000041026053501,0.00011031951840571885
-0.48637441130704245,-0.48637441130704245,1.0000509471881789,0.00010601011031544986
-0.48614916582591833,-0.48614916582591833,0.9998714910398327,0.0001073380631731051
-0.48590436683152805,-0.48590436683152805,1.0000459725021993,0.00011093464760458295
-0.4856295840581879,-0.4856295840581879,0.9999708567413321,0.00011202966916568687
-0.48536436693102586,-0.48536436693102586,0.9999763635491735,0.00010823846205788734
-0.485235921345884,-0.485235921345884,0.9998390687540553,0.00011016044165377796
-0.48512471774884036,-0.48512471774884036,1.0000133050537374,0.00011012034918052481
-0.48478457058372443,-0.48478457058372443,0.999815598485007,0.00010789570547707945
-0.4845651812647702,-0.4845651812647702,1.0000746389891608,0.00010682123708536715
-0.4844468896975741,-0.4844468896975741,1.0000763307396352,0.00011164832685538798
-0.48424511750927196,-0.48424511750927196,0.9999636290618173,0.00010728821417789629
-0.48407731602492277,-0.48407731602492277,1.0003048177323612,0.00011010570840689084
-0.4839720760821365,-0.4839720760821365,1.0001413252826754,0.00011188630369950817
-0.4836987035392667,-0.4836987035392667,1.0001303473719065,0.00010814132395121228
-0.4834335263614776,-0.4834335263614776,0.9998665058445759,0.00011214143226890154
-0.4832924630958587,-0.4832924630958587,1.000128967249104,0.00010690588704231176
-0.48311006872536383,-0.48311006872536383,1.0001106702074047,0.00010914013556894046
-0.4828725675091846,-0.4828725675091846,0.9997187027293576,0.00011006958261058597
-0.4826486637408379,-0.4826486637408379,1.000141405933818,0.00011103858008048289
-0.4825553811271675,-0.4825553811271675,0.9998847928609653,0.0001093390379644382
-0.4823963776070741,-0.4823963776070741,0.9999252012269355,0.00010841050108654669
-0.4822608808579389,-0.4822608808579389,0.9999469120150165,0.0001082189473096173
-0.4820265721093165,-0.4820265721093165,1.0001821015201542,0.00010759032536164015
-0.48173799487849467,-0.48173799487849467,1.0000494290709752,0.00010880623007945953
-0.48130230796232354,-0.48130230796232354,0.9998425983057503,0.00010852523888647204
-0.4811351219759672,-0.4811351219759672,1.0000690477318919,0.00011176827025751013
-0.480942415446043,-0.480942415446043,0.9998293506916364,0.00010863222675970415
-0.48082068073854317,-0.48082068073854317,0.9999267467513919,0.00010949229434914303
-0.48074076865450477,-0.48074076865450477,0.9999212191934642,0.00010654077421307182
-0.480588967926451,-0.480588967926451,1.0001606019593265,0.00011100403211435387
-0.4803987043094821,-0.4803987043094821,0.9998837272592296,0.00010600302741028725
-0.4801978736039018,-0.4801978736039018,0.9999918846808244,0.00010854348226357309
-0.4799625863408437,-0.4799625863408437,1.0000102264286272,0.00011051537811179146
-0.4797398615890415,-0.4797398615890415,1.0002554700743063,0.00011164170658910988
-0.47942615622887386,-0.47942615622887386,0.9999432281386751,0.00010707754201478428
-0.4793153939594049,-0.4793153939594049,0.9999610171586397,0.00010990355886060133
-0.4791736701183254,-0.4791736701183254,1.0000305536341743,0.00011158386000792661
-0.4789541983453091,-0.4789541983453091,1.0000411931031359,0.00010872700505991641
-0.47866982274717884,-0.47866982274717884,1.0001147630286726,0.00010743352894754988
-0.478475339023862,-0.478475339023862,1.00023591495358,0.00011132254769750886
-0.4783526017941767,-0.4783526017941767,1.0000942169789255,0.00010735570732359388
-0.47817516573704777,-0.47817516573704777,1.0000912503873556,0.00010798373414022786
-0.4780472905229544,-0.4780472905229544,1.000139537858427,0.0001122932545662158
-0.477817000298819,-0.477817000298819,1.0000795811148975,0.00011049822060377847
-0.4775025962415384,-0.4775025962415384,0.999896251289074,0.0001098561585948867
-0.4773432621528627,-0.4773432621528627,1.000191499677586,0.00010928444859792993
-0.47721585747931383,-0.47721585747931383,0.9999601430670685,0.00010745182172025411
-0.47701015466445823,-0.47701015466445823,0.9999285268294461,0.00010953367649110773
-0.4767713279376039,-0.4767713279376039,1.0001036613439072,0.0001103175767058835
-0.47664043701079206,-0.47664043701079206,1.000118990303934,0.00010947475644276649
-0.47646999172866344,-0.47646999172866344,1.0000775361268832,0.00010936296392129757
-0.4763785827846732,-0.4763785827846732,1.0001064308586145,0.00010675959487990488
-0.4762424490909325,-0.4762424490909325,1.0001146200606106,0.00010889507638668866
-0.47600299390323925,-0.47600299390323925,1.0000966051587166,0.00010770107280600799
-0.47578586122835986,-0.47578586122835986,0.9998742732918847,0.00010726193716284692
-0.4753968465753132,-0.4753968465753132,1.0001379036568978,0.00011097853317815749
-0.47517308858805335,-0.47517308858805335,0.9999522047887798,0.00011165408576676687
-0.47497458724537867,-0.47497458724537867,0.9999160004356309,0.00010864209167575974
-0.4748568324459484,-0.4748568324459484,0.9999819440920852,0.00010834557091817503
-0.4747462326922687,-0.4747462326922687,0.999807186601454,0.00010838532824015755
-0.4745565543649718,-0.4745565543649718,1.0000170848645895,0.00011079853020868915
-0.4743515000242041,-0.4743515000242041,1.0000903058261952,0.00010625872901358427
-0.47417959050944775,-0.47417959050944775,0.999924029214112,0.00010950859239207238
-0.4740180986962514,-0.4740180986962514,0.9998824887607404,0.00010836783598784166
-0.4738795611890964,-0.4738795611890964,1.000104226358939,0.00011107363259242048
-0.4735327569098445,-0.4735327569098445,1.0001627344767239,0.0001103373023101647
-0.473369391617598,-0.473369391617598,1.0000671610615544,0.00010953854184731838
-0.4732153391232714,-0.4732153391232714,1.0000518634561169,0.00011112839776369332
-0.47307646810950243,-0.47307646810950243,1.0000048322548634,0.00011116242052055744
-0.47278327260719377,-0.47278327260719377,0.999931347706897,0.00010721468207248257
-0.4725198828091379,-0.4725198828091379,0.999988388576843,0.0001099425945651247
-0.4724155281612184,-0.4724155281612184,1.0000934276335258,0.00010865325198627235
-0.4722152417874895,-0.4722152417874895,1.000097443892953,0.000107892389787511
-0.4720667929301271,-0.4720667929301271,0.9999511617909869,0.00011230508556726445
-0.47194714359211504,-0.47194714359211504,0.9999376760850465,0.00010868378060947942
-0.4716997784009436,-0.4716997784009436,0.9999097884289299,0.00010919910895138289
-0.471498681983212,-0.471498681983212,1.0001432572841027,0.00010931084189089665
-0.4713757162273396,-0.4713757162273396,0.9999920079580118,0.0001092834134480323
-0.47127711546781936,-0.47127711546781936,1.000118865929548,0.00010710629828661797
-0.4710644256934756,-0.4710644256934756,1.000107728413638,0.00011115274002938003
-0.47076407792919783,-0.47076407792919783,1.0000373234096434,0.00010966454920025182
-0.47060025556420443,-0.47060025556420443,1.0000949060849589,0.00011084591115247105
-0.4704652525892016,-0.4704652525892016,0.9998405855637378,0.00010836464411825248
-0.47034375905641357,-0.47034375905641357,1.0000274358360548,0.00010829030999750704
-0.470121522055706,-0.470121522055706,0.9997899991632331,0.00010506997787321996
-0.46987275255960415,-0.46987275255960415,1.0000034738772872,0.00010879083292946197
-0.4695016882047639,-0.4695016882047639,0.9999856792573736,0.00011059584857459406
-0.4692443094536429,-0.4692443094536429,0.999941588957984,0.00011071133250490912
-0.4690509473235579,-0.4690509473235579,1.0000588777748003,0.00010976989221595968
-0.46893934089894174,-0.46893934089894174,1.0000716409787025,0.000110405879053918
-0.46883012469188545,-0.46883012469188545,1.0000465769262188,0.0001079495975134787
-0.4686660294071771,-0.4686660294071771,0.9998267553167801,0.00011058454303625606
-0.4684962262690533,-0.4684962262690533,1.0001352633717346,0.00010711062153178079
-0.4683031367516378,-0.4683031367516378,0.9999278780100586,0.00010893610168092983
-0.4680960132420296,-0.4680960132420296,1.0001628755733958,0.00011079748932064745
-0.4678850424650591,-0.4678850424650591,0.9998716345494362,0.00011122873913615159
-0.46761993861582596,-0.46761993861582596,0.9997912675529379,0.00011151054141069489
-0.4674505192087963,-0.4674505192087963,0.9999351116820592,0.00010794345669223391
-0.46735617323429324,-0.46735617323429324,1.0001590020184896,0.00010892834903846096
-0.4672264087217627,-0.4672264087217627,0.9999809885356271,0.00011093183378653488
-0.4670843247586163,-0.4670843247586163,0.9999560832316758,0.00011033733441605543
-0.466773018251115,-0.466773018251115,1.0000896814271492,0.0001074309178906857
-0.4665291651748703,-0.4665291651748703,1.0002679013634346,0.00011081049166741363
-0.46641149757197126,-0.46641149757197126,0.999965972173302,0.00010698454016284284
-0.4661846551840426,-0.4661846551840426,1.000010925569526,0.00011203727659861752
-0.46604328610847007,-0.46604328610847007,0.9998083232643558,0.00011077978818723163
-0.4657728044709074,-0.4657728044709074,0.9999872656105598,0.00010895490016671938
-0.465533020379371,-0.465533020379371,1.000077790095655,0.00010829536595211523
-0.46539800755272154,-0.46539800755272154,1.0000911330562958,0.00010862166465281528
-0.4653032322006766,-0.4653032322006766,1.0000235283567096,0.00010880786947985882
-0.46501544692728203,-0.46501544692728203,1.0001394164971937,0.00011166776751186233
-0.4647626636637142,-0.4647626636637142,1.00000198537595,0.00010941292151480007
-0.4645896407804685,-0.4645896407804685,1.0000738131917184,0.00011079921820686968
-0.4644799350993708,-0.4644799350993708,1.0000719254893102,0.00010685580842232575
-0.46432794764987195,-0.46432794764987195,1.0000098393325343,0.00010831024548595025
-0.464127002042369,-0.464127002042369,0.9999663973191062,0.00010508534396905577
-0.46390578604186883,-0.46390578604186883,1.0000179291761044,0.00010899499849949471
-0.4636539649189217,-0.4636539649189217,0.9999713364695765,0.00011153152491510704
-0.46332209567772226,-0.46332209567772226,1.0000324545799038,0.00011054701101517058
-0.46316146683093395,-0.46316146683093395,1.000071694239358,0.00011059981086997874
-0.4630261213213089,-0.4630261213213089,0.9999935155391757,0.00010826170140351731
-0.4629056910431245,-0.4629056910431245,1.000125002805737,0.00010853769659579813
-0.4627662509228685,-0.4627662509228685,1.000055241430782,0.00010981068620126563
-0.4625979738135356,-0.4625979738135356,1.0000496053902874,0.00011047546986362998
-0.4624068620207254,-0.4624068620207254,0.9998680915838352,0.00010626314635194777
-0.4621881080005551,-0.4621881080005551,1.0001543134308308,0.0001117040600399387
-0.4619252189906547,-0.4619252189906547,0.9999626500619229,0.00011157648164622279
-0.46162432922865265,-0.46162432922865265,0.999790096154866,0.00011216589887918656
-0.4614449382352177,-0.4614449382352177,0.9998697373974272,0.00010753331285669998
-0.46132101058319674,-0.46132101058319674,0.9996916788126977,0.00010748473495949293
-0.46122610236343464,-0.46122610236343464,1.0001259427783615,0.0001125914007510333
-0.4610251029400388,-0.4610251029400388,0.999921219830418,0.00010898990282947547
-0.4608103419697727,-0.4608103419697727,1.0001241639537661,0.00010743384271937639
-0.46058861313940724,-0.46058861313940724,1.0000361222423255,0.00011133175641304613
-0.46045237947255374,-0.46045237947255374,1.0000080150277162,0.00010777533103862391
-0.46021411517867816,-0.46021411517867816,1.00005190716738,0.00011086865295925405
-0.4600739969871938,-0.4600739969871938,0.9999191923130961,0.0001110793664359202
-0.4598567993059987,-0.4598567993059987,1.0001588538100734,0.00010880878106734458
-0.45956616769253744,-0.45956616769253744,1.000060187982036,0.00010944140504077196
-0.45940526757622135,-0.45940526757622135,1.0000469057387125,0.00010952022441385487
-0.45931512300739996,-0.45931512300739996,1.000054008468169,0.0001102133926626378
-0.4589735840389039,-0.4589735840389039,0.9999891020676255,0.0001101065666725879
-0.4587453492044006,-0.4587453492044006,1.0000753524930035,0.00011179711895247546
-0.4585957072908059,-0.4585957072908059,0.9998811691780546,0.00010855899853947288
-0.4584655703161843,-0.4584655703161843,1.0000701450651082,0.00010743952311806822
-0.45828671954805034,-0.45828671954805034,1.0000058068360822,0.00010882211835181652
-0.4580908218718832,-0.4580908218718832,1.0000962709879653,0.0001076922070817034
-0.45786255767743567,-0.45786255767743567,0.9998246582678234,0.00010898381936738646
-0.45749127856688576,-0.45749127856688576,1.0001535896542566,0.00011107054493723979
-0.4573103328802972,-0.4573103328802972,1.000214337646177,0.00011019549005623734
-0.4571104398768512,-0.4571104398768512,0.9999380946408284,0.00010978533587303553
-0.45703760081814837,-0.45703760081814837,1.0000308219794865,0.00010950267484523583
-0.45691536900703794,-0.45691536900703794,1.0000462617721748,0.00010658305748856395
-0.4567638983920915,-0.4567638983920915,1.0001753908588433,0.0001114380251305091
-0.4565897703781957,-0.4565897703781957,1.0000465512143495,0.0001087221573074138
-0.4563980390725192,-0.4563980390725192,1.00011302490798,0.00010820185399982934
-0.4562728088436415,-0.4562728088436415,1.0000643820178914,0.00010928143671537697
-0.45599992351199037,-0.45599992351199037,0.9998197934691545,0.00011223271435874603
-0.45576134381699374,-0.45576134381699374,0.9999939523207215,0.0001107734280169994
-0.4555252244055737,-0.4555252244055737,0.9998221722651344,0.00010880028564206763
-0.45537687636096963,-0.45537687636096963,1.0001344456179628,0.00010912187424609204
-0.45526459982211237,-0.45526459982211237,1.0000224055200508,0.00011102036621013754
-0.4550948730728123,-0.4550948730728123,0.999941976791866,0.00011037313390985458
-0.45484991032572,-0.45484991032572,0.9998868987510974,0.000109667178011831
-0.4545686594719882,-0.4545686594719882,1.0000917106515692,0.00011077723128391956
-0.45442347517382586,-0.45442347517382586,1.0000364793583014,0.00010723503143174993
-0.4541593540285248,-0.4541593540285248,1.0000032714501388,0.00011451533400062841
-0.45403224943293025,-0.45403224943293025,1.0001456881521644,0.0001084253534744844
-0.45379402244871014,-0.45379402244871014,0.9999892583203908,0.00010804901415255945
-0.4535256363800727,-0.4535256363800727,1.0000480848914681,0.00011018226310576364
