time,time,flux,flux_err
-0.49991754294569546,-0.49991754294569546,0.9991084782478277,0.0006994261138944324
-0.499795462244947,-0.499795462244947,1.000082924713454,0.0007160257259629379
-0.49966284448237275,-0.49966284448237275,1.000032011414907,0.0007585255195240844
-0.49951929769231357,-0.49951929769231357,0.99965517164977,0.0007508614620934159
-0.49935473612058556,-0.49935473612058556,1.0001007709829526,0.0006951651378700155
-0.4991733365175605,-0.4991733365175605,1.0000079746893777,0.000699348650686132
-0.49900321513559903,-0.49900321513559903,1.000095648601852,0.0007050167532030415
-0.49886610665125775,-0.49886610665125775,0.999859558589122,0.0006469188458131739
-0.4986930971790571,-0.4986930971790571,1.0002107874864314,0.0007712133551691948
-0.49852506169845584,-0.49852506169845584,1.0001487886140719,0.0006193464370389114
-0.49830805473102374,-0.49830805473102374,1.0008732686333195,0.0007825138304664204
-0.4981196831438865,-0.4981196831438865,1.0003123894500625,0.0006819334432863029
-0.4980024316930212,-0.4980024316930212,0.999359729200837,0.0006697368522977001
-0.49790717009527724,-0.49790717009527724,1.0001607351528314,0.0007448907621560054
-0.497737614835205,-0.497737614835205,0.9996701043183917,0.0007737046394427701
-0.4976122978827334,-0.4976122978827334,0.9999965995223772,0.0008029065134965525
-0.49755043532859416,-0.49755043532859416,0.9998707238005256,0.0007069555737474403
-0.49741950888128483,-0.49741950888128483,1.0003535119820073,0.0007322410362216704
-0.4973200707361684,-0.4973200707361684,1.0007072936191785,0.000679271788436479
-0.49713014408916933,-0.49713014408916933,0.9992641969192132,0.0007978181121367235
-0.4968975264644541,-0.4968975264644541,0.9999143176367591,0.000797491318304661
-0.49678974741109416,-0.49678974741109416,1.0003695101177248,0.0007404971833823587
-0.49672888419372613,-0.49672888419372613,1.0008348846526112,0.0006555588624902427
-0.4965046733224881,-0.4965046733224881,1.0003657363072593,0.0007653059654767339
-0.4962428528990131,-0.4962428528990131,1.0001156345738782,0.0006712180486357218
-0.496051522102789,-0.496051522102789,1.0000260467528663,0.0007657978792859695
-0.495923841966578,-0.495923841966578,0.9997859956017366,0.0007389390236337048
-0.4958213565587357,-0.4958213565587357,0.9992904860143504,0.0006530917326544289
-0.49569317178902567,-0.49569317178902567,1.0000627963200583,0.0007289508804963895
-0.49557021627988435,-0.49557021627988435,1.000440991210877,0.0007518934638094312
-0.49543906257094933,-0.49543906257094933,0.9997434812197449,0.0007305411268224273
-0.49529941864238936,-0.49529941864238936,0.9999747179094373,0.0005937342599833419
-0.4951625196263194,-0.4951625196263194,1.000323123054782,0.0007388023367428302
-0.49500123853649713,-0.49500123853649713,1.0009996697402057,0.0007647114499875065
-0.49485670893409406,-0.49485670893409406,1.0003017123640157,0.0006969433910995663
-0.4946207422231964,-0.4946207422231964,0.9997345262125356,0.0008045093330632431
-0.4944602825911716,-0.4944602825911716,0.9994587400314969,0.0006739855488663753
-0.49437015925941524,-0.49437015925941524,1.0006733247447248,0.0006999042216742914
-0.49427084781418673,-0.49427084781418673,0.9994113577675761,0.0007200049628934568
-0.4941290182498051,-0.4941290182498051,0.9995620755715986,0.0007267775134894592
-0.49395759431063196,-0.49395759431063196,0.9993204437212752,0.000620987872329669
-0.4938700390623126,-0.4938700390623126,0.9993531101285311,0.0006444777046568156
-0.49377199521914006,-0.49377199521914006,0.9990150382466781,0.0006898304648129095
-0.49365429390309146,-0.49365429390309146,1.001021432240756,0.0007520668190931623
-0.49353430662376924,-0.49353430662376924,1.0000744422637364,0.000765127020576246
-0.4934040337517217,-0.4934040337517217,1.0003849365613415,0.0006679223799521221
-0.4932447844010312,-0.4932447844010312,1.0000029059172315,0.0006549131060422623
-0.493165170706925,-0.493165170706925,1.0001489041135734,0.0007465937203264159
-0.4930850797863968,-0.4930850797863968,0.9997363700716448,0.0007256093450474669
-0.4930199828289915,-0.4930199828289915,0.9999198475554569,0.000681873503585076
-0.49296335764665855,-0.49296335764665855,0.9995452172935317,0.0007490338727631591
-0.4928919578444038,-0.4928919578444038,1.000730653955601,0.0007227151330336808
-0.49282021525505115,-0.49282021525505115,0.9993660535368296,0.0007744818384051587
-0.4927690604054078,-0.4927690604054078,0.9997048847275275,0.0007460113721504759
-0.4927033285086509,-0.4927033285086509,1.0007215528881959,0.000805725353689647
-0.4925487891989178,-0.4925487891989178,0.9994688719348217,0.0007353750999069661
-0.49244912907815885,-0.49244912907815885,1.0004506567963054,0.0006985026725639904
-0.4923303910349205,-0.4923303910349205,1.0005530221777819,0.0006547259832865421
-0.49219138270491386,-0.49219138270491386,1.0005290999532637,0.0007447811355223764
-0.4920842858533433,-0.4920842858533433,1.0015419577808278,0.0006930071452022266
-0.4919185677666974,-0.4919185677666974,1.0003160726795755,0.0006402034654651984
-0.4918005825791624,-0.4918005825791624,1.0004679632422266,0.0006792897495347457
-0.4917512575193541,-0.4917512575193541,1.0010097000839466,0.0007291370717405876
-0.4914970363446628,-0.4914970363446628,0.9998897303661678,0.0006707285539144105
-0.4912710244418122,-0.4912710244418122,0.9998669473337802,0.0006663728714678246
-0.49114142838370756,-0.49114142838370756,0.9994299552930512,0.0007104433795887095
-0.4909521329369454,-0.4909521329369454,1.000027632088904,0.0006753380159150382
-0.49079122766997896,-0.49079122766997896,1.0001406010462002,0.0008306039185219261
-0.4905045961466385,-0.4905045961466385,0.9995535272089926,0.0006451742665009316
-0.4903836496254371,-0.4903836496254371,0.9998205964574225,0.0006914110914424402
-0.49025405436113945,-0.49025405436113945,0.9990531238443852,0.0006998106009499312
-0.4900441853038501,-0.4900441853038501,0.9996642254197121,0.0006604695319634939
-0.48989167479012397,-0.48989167479012397,1.0012208703877516,0.000623375697014372
-0.489638356748037,-0.489638356748037,1.000196863286215,0.0007582096010040457
-0.4894695677634445,-0.4894695677634445,0.9999141596816754,0.0007761303626303414
-0.48936119885038354,-0.48936119885038354,1.0000055473938931,0.0007341290152971141
-0.48924885877713675,-0.48924885877713675,1.000489189299408,0.0007364868292293429
-0.4890828897623578,-0.4890828897623578,0.9999717625587176,0.0007509092233450441
-0.48898119919758753,-0.48898119919758753,1.0002278200262142,0.0008434621988688074
-0.4888484722127032,-0.4888484722127032,1.000298395088971,0.0007620585210953258
-0.4887624960618268,-0.4887624960618268,1.0006747308177508,0.0007198539611324559
-0.4886221616667171,-0.4886221616667171,1.0000176082572456,0.000656656176036817
-0.48842083143536,-0.48842083143536,1.0001359519080726,0.0007600198957738309
-0.4882804375854903,-0.4882804375854903,1.0004539292202412,0.0007695902501395808
-0.488218220492854,-0.488218220492854,0.9993698835563002,0.0006790305500273157
-0.4880370461512939,-0.4880370461512939,0.9995876640115503,0.0008042018725122892
-0.4876755758734362,-0.4876755758734362,1.0003831401157086,0.0007228662748769217
-0.4874439474479004,-0.4874439474479004,1.0002709980748936,0.0007051033071363271
-0.4873719542927574,-0.4873719542927574,0.9991906490068176,0.0007403338597987239
-0.4872795126095298,-0.4872795126095298,0.9993235350616668,0.0006816932606683338
-0.48709127693800836,-0.48709127693800836,1.0009742497890477,0.0008014560694539553
-0.4869213323414442,-0.4869213323414442,0.9994942901490486,0.0007327326922880481
-0.4868031976009661,-0.4868031976009661,1.000537091455304,0.0007631098034659863
-0.4866506111669878,-0.4866506111669878,0.9998343826670488,0.0006163907886788132
-0.48647977465661824,-0.48647977465661824,1.0010475457958052,0.0007615854209084481
-0.4863655910747184,-0.4863655910747184,1.0013160420070948,0.0007604950499985021
-0.48612398980840227,-0.48612398980840227,1.0006444685958713,0.0006873169283785097
-0.4859383874310879,-0.4859383874310879,1.0009904615745862,0.000796806871247146
-0.4858037984107796,-0.4858037984107796,1.0003998582292202,0.0006999407742563514
-0.4857289879619202,-0.4857289879619202,1.001001848562542,0.0007089219119606466
-0.48556106835239915,-0.48556106835239915,0.9991805633596652,0.0007161177544500331
-0.4853439695907582,-0.4853439695907582,1.0001338169835319,0.0006485515196749394
-0.48528267471701836,-0.48528267471701836,0.9995904644568935,0.000703513571546092
-0.48514785937732086,-0.48514785937732086,0.999368168276814,0.0007053487140985896
-0.4850300337158842,-0.4850300337158842,1.0009694842295203,0.0007141230902655481
-0.4849204125632241,-0.4849204125632241,1.0005369237137125,0.0007808053906501095
-0.484778368876141,-0.484778368876141,1.000241878439979,0.0007579419506584752
-0.48467315662055627,-0.48467315662055627,1.0003763299889554,0.0006638914979330337
-0.484595931754302,-0.484595931754302,0.9996280787253102,0.0007293833711427796
-0.4845013684607693,-0.4845013684607693,0.9999918353053445,0.0007930462862636601
-0.48444707128801384,-0.48444707128801384,1.000362937986233,0.0006258993710084574
-0.4843822669616202,-0.4843822669616202,1.000841583884539,0.0007126999235506643
-0.4843141252218629,-0.4843141252218629,1.0001565446772842,0.00061392805575533
-0.4842523232466192,-0.4842523232466192,1.0017204751293929,0.000769571627862574
-0.48417823995114306,-0.48417823995114306,1.0007883127136221,0.0008153047759156344
-0.48405331714748173,-0.48405331714748173,0.9994623409102079,0.0008330145639330584
-0.48394237675965995,-0.48394237675965995,1.0003054118054713,0.000781722041690505
-0.48385982044419507,-0.48385982044419507,0.9998979212216991,0.0006465786495453003
-0.4837490795194753,-0.4837490795194753,1.000456763928686,0.0007336535738979946
-0.48362657159232186,-0.48362657159232186,0.999113328064143,0.0007154259224720096
-0.48349995360476894,-0.48349995360476894,0.9991133678950316,0.0007242413375029646
-0.4833344337057497,-0.4833344337057497,1.0002877695240389,0.0006882504802515283
-0.4832205286307726,-0.4832205286307726,0.9996300771855701,0.0006933333702133232
-0.48313770634413233,-0.48313770634413233,0.9990572785247966,0.0007289297271574303
-0.4827921380638145,-0.4827921380638145,0.999661594263863,0.0006974314960063098
-0.4826376252814953,-0.4826376252814953,1.000534958657711,0.0007116955328234086
-0.4825284374426701,-0.4825284374426701,1.0000390169439954,0.0006989301664788393
-0.4823375793726882,-0.4823375793726882,0.999938547256065,0.0007400341598153185
-0.48221294161485273,-0.48221294161485273,1.0002538372292231,0.0010342081435816756
-0.4820192755774769,-0.4820192755774769,1.0002840218923568,0.0006638096480889763
-0.4818465699441731,-0.4818465699441731,1.0003907087633643,0.0006635257516057083
-0.4817360163135163,-0.4817360163135163,0.9990907306222958,0.0007172090890954871
-0.48157086950450323,-0.48157086950450323,0.9994592821855512,0.0007561896521883942
-0.48127715804075705,-0.48127715804075705,1.0003981702452074,0.0006323174557008621
-0.4810824754094938,-0.4810824754094938,1.0001523490049873,0.0007125212002537532
-0.4809239044378046,-0.4809239044378046,1.0008241686305186,0.0006704500906489076
-0.48080039110573125,-0.48080039110573125,0.998855529335643,0.0008034107178024483
-0.4806762334323139,-0.4806762334323139,0.9995246225592702,0.0006814876268826755
-0.4805429797452234,-0.4805429797452234,0.9994062313239145,0.0007208437869150527
-0.48043878491880604,-0.48043878491880604,1.0000448097157453,0.000776599223872355
-0.4802633686791523,-0.4802633686791523,1.000656291239388,0.0006996058526143841
-0.48014977539132814,-0.48014977539132814,1.000319373661816,0.0007653232485506293
-0.47996442343865053,-0.47996442343865053,0.9996429317352928,0.0006549505523724316
-0.4798239806201309,-0.4798239806201309,0.9999824826372714,0.0007383868981950995
-0.4797136419139861,-0.4797136419139861,0.9998099359128748,0.0007646193430324725
-0.47966852777390157,-0.47966852777390157,1.0001255862827656,0.0006893585612811756
-0.47949819527275395,-0.47949819527275395,0.9997391670399663,0.0008048339874221989
-0.4791511381721648,-0.4791511381721648,0.9997311402856905,0.0007486503277990046
-0.4788719689669961,-0.4788719689669961,0.9997298416881464,0.0006890910507847603
-0.47879898820829114,-0.47879898820829114,1.0007692572782017,0.0007582302894450766
-0.4787251052301144,-0.4787251052301144,1.0007962957248489,0.000637206160599971
-0.47861619371324193,-0.47861619371324193,0.9998920376204692,0.0007006431968258934
-0.47838037855399307,-0.47838037855399307,0.9985935704542716,0.0008234597090434725
-0.47823584468351327,-0.47823584468351327,1.0002281048645536,0.0006830148989293916
-0.4781274001201382,-0.4781274001201382,0.9985122475530221,0.000694345160266912
-0.47796388051647226,-0.47796388051647226,0.9988453273263798,0.0006417566292592579
-0.4778379563045746,-0.4778379563045746,0.9998698252340782,0.0007743927137961782
-0.47767688571766487,-0.47767688571766487,0.9996398106046429,0.0007038629666212204
-0.47748740555616676,-0.47748740555616676,1.0001467403633835,0.0006557432120645265
-0.47738468466559425,-0.47738468466559425,1.0001228779030213,0.0007488893449622287
-0.4772936611501791,-0.4772936611501791,1.000658053584756,0.0007624821564365748
-0.4772028358267562,-0.4772028358267562,1.0007741151691716,0.0007222697594007045
-0.47711424543522296,-0.47711424543522296,0.9994049128430216,0.0006741395038485088
-0.476912354605156,-0.476912354605156,1.0011299877746276,0.0006620751297632529
-0.47677017861497006,-0.47677017861497006,1.000698224973149,0.0007236385836500798
-0.47668201443739233,-0.47668201443739233,1.0008593720003338,0.0007135041570296324
-0.4765209261888231,-0.4765209261888231,1.0001223010148503,0.0007103227432579006
-0.47640439192255146,-0.47640439192255146,0.9992755246566647,0.0006267790549128628
-0.4762627308147785,-0.4762627308147785,0.9998532995725476,0.0008187132413274267
-0.4761283887688478,-0.4761283887688478,1.0001042009129713,0.0006774021392455165
-0.47599705935426756,-0.47599705935426756,0.9994066294726267,0.0007233442749389803
-0.4759125479584327,-0.4759125479584327,0.9990992551745869,0.0007978077404032525
-0.4758485083875712,-0.4758485083875712,1.00016507737092,0.0007572084140255291
-0.4757503690489102,-0.4757503690489102,0.9997975115537766,0.0006916056393278825
-0.4756969889640459,-0.4756969889640459,0.9999066612675328,0.0007362408904387863
-0.4756530778118758,-0.4756530778118758,0.9990191233401822,0.0007374673652816503
-0.47549106340738945,-0.47549106340738945,0.9995526695446666,0.0008352110096775896
-0.4753837065320113,-0.4753837065320113,1.000681524011606,0.0007672997886297974
-0.475242720789538,-0.475242720789538,1.0002904569217208,0.0006851214456114671
-0.47512319277375353,-0.47512319277375353,1.0003462030259078,0.0007018249323790727
-0.47501448164111937,-0.47501448164111937,1.0001348396911838,0.0007162695966378246
-0.4748702102544485,-0.4748702102544485,0.9985428286918834,0.0007434414690340129
-0.4747513565358531,-0.4747513565358531,1.0002595015519484,0.0007334740800908408
-0.47467332655141947,-0.47467332655141947,1.000496509158512,0.0006234677517582613
-0.47456800260188176,-0.47456800260188176,1.0001519949188586,0.0006228654346070417
-0.47442497424344765,-0.47442497424344765,1.000500656784766,0.0006085000968641343
-0.4741966745168611,-0.4741966745168611,1.0002989876376194,0.0007211417061995605
-0.47410045362412345,-0.47410045362412345,1.0004523314543732,0.0007815175071258825
-0.4740275054711674,-0.4740275054711674,0.9993224848827917,0.0007270339383537475
-0.473868195166142,-0.473868195166142,1.0006269315197707,0.0006692818433800425
-0.4736996340674523,-0.4736996340674523,0.9998142239508067,0.0007841796320007014
-0.47355604847616634,-0.47355604847616634,1.0009271299075173,0.0008626868158173826
-0.47336929637094727,-0.47336929637094727,1.0000033523515028,0.0005790101315771416
-0.4732570782900439,-0.4732570782900439,1.0007792973147005,0.000664059828132379
-0.47316532874610856,-0.47316532874610856,0.9992463564849585,0.0007404467969934316
-0.4729406173908501,-0.4729406173908501,0.9997802785722945,0.0007894554205313102
-0.4727158356079599,-0.4727158356079599,1.0001796020303335,0.0007097799899302887
-0.47253674441599286,-0.47253674441599286,1.0003573050614893,0.0006764328550139037
-0.4723897578565811,-0.4723897578565811,0.999010167860621,0.0007548220006877034
-0.4722502874894417,-0.4722502874894417,1.0006383810770123,0.0007556582061188442
-0.4721049888896232,-0.4721049888896232,0.9992248771217616,0.0007548496582679709
-0.47194841576347246,-0.47194841576347246,1.0002389343403086,0.0007764421860436935
-0.471851721744315,-0.471851721744315,1.0006315573127513,0.0007875325192537987
-0.4716823377391847,-0.4716823377391847,0.9995548341685676,0.0006773998136160289
-0.4714314834229299,-0.4714314834229299,0.9999081898921153,0.0008246897185731226
-0.4712592338444665,-0.4712592338444665,0.9999902082646347,0.0007346221930795587
-0.4711812920642842,-0.4711812920642842,1.000247033392397,0.0006461054585335881
-0.47111790053968433,-0.47111790053968433,1.0006627832552355,0.0006569702391476652
-0.47103113859848234,-0.47103113859848234,0.999704581970709,0.0007844253059208977
-0.4707819269715401,-0.4707819269715401,0.9992254921350868,0.0007698927051699192
-0.4705213751898555,-0.4705213751898555,0.9999419824248437,0.0007035474362700424
-0.4703107074536092,-0.4703107074536092,0.9998587748071804,0.0006270191055406107
-0.47024684669013367,-0.47024684669013367,0.9991384434006514,0.0007369028281586966
-0.47014575096036426,-0.47014575096036426,0.9996108844303777,0.0007141427294995088
-0.47000537260682906,-0.47000537260682906,1.0004230268035976,0.0007210314981275538
-0.46980870479164877,-0.46980870479164877,1.000407042021993,0.0007080169479265879
-0.4696481654631498,-0.4696481654631498,0.9993655108843813,0.00067363714793941
-0.46953427783009827,-0.46953427783009827,1.0001277713023498,0.0007448732601501415
-0.4694052144201123,-0.4694052144201123,1.0002331295167406,0.0006710898622895943
-0.46928094731483727,-0.46928094731483727,0.9997819225955953,0.0007155956190651262
-0.4691172308041132,-0.4691172308041132,1.0001772454869309,0.0007466681441686241
-0.4689299824691261,-0.4689299824691261,1.0000702754024275,0.0006267672220115472
-0.46881076122444937,-0.46881076122444937,0.9996483222075992,0.0007417766925019518
-0.46869848293426913,-0.46869848293426913,1.0009342542211246,0.0007278192315544065
-0.46862584546979635,-0.46862584546979635,0.9998351281892358,0.0007285080891283578
-0.46849796735477867,-0.46849796735477867,0.9996763318348751,0.0006260816446646523
-0.46832525608551806,-0.46832525608551806,0.9996190299175529,0.0007004656699600361
-0.46818943582184147,-0.46818943582184147,1.0001298452612408,0.0007180150869571495
-0.46808593397799997,-0.46808593397799997,1.0003370409125147,0.0007207248944085009
-0.46794135795644254,-0.46794135795644254,0.9994824792657043,0.0006522448257250126
-0.4678185540818959,-0.4678185540818959,1.0006165328074237,0.0007372522977799346
-0.4676921550293628,-0.4676921550293628,0.9995185862990347,0.0007310195097784949
-0.4676098243333399,-0.4676098243333399,0.9991611036140291,0.0006952579709459937
-0.4675335992455075,-0.4675335992455075,0.9999999590253783,0.0006832830575131472
-0.46743792203560586,-0.46743792203560586,1.0001238847399898,0.0007878675896421855
-0.4673313811625121,-0.4673313811625121,0.999426527790105,0.000780154048111632
-0.46724047956595316,-0.46724047956595316,0.9999609839850077,0.000768255796790647
-0.4671431841466983,-0.4671431841466983,0.9998193715941118,0.0007454170024976971
-0.46711036278211393,-0.46711036278211393,1.0005395967978756,0.0007622964596440612
-0.46702120547779485,-0.46702120547779485,1.0004669124846455,0.0006743866742580828
-0.46690705117362086,-0.46690705117362086,1.0004817492656781,0.0006895036318215648
-0.4668141900016053,-0.4668141900016053,0.9990483063929456,0.0008081553595336109
-0.4666799757476838,-0.4666799757476838,0.9998123038999903,0.0007320368040037792
-0.4665534208194003,-0.4665534208194003,0.9998246608752078,0.0006188269717287791
-0.4664336357578577,-0.4664336357578577,0.9996096986056108,0.0006750211855557816
