time,time,flux,flux_err
-0.49902714499257855,-0.49902714499257855,0.9999656207044147,3.3673836359588317e-05
-0.4952142639966041,-0.4952142639966041,1.0000242181392118,3.36591698996872e-05
-0.49367099388764474,-0.49367099388764474,1.0000217194620133,3.3661305764865625e-05
-0.4919800270727137,-0.4919800270727137,1.000048570693987,3.3654988786210014e-05
-0.48869800455722723,-0.48869800455722723,1.000015961099546,3.367587931033438e-05
-0.48611913267304774,-0.48611913267304774,1.000013481091465,3.366083474346498e-05
-0.48469132289246775,-0.48469132289246775,1.0000789805837305,3.3838222735385396e-05
-0.48350586939632195,-0.48350586939632195,0.9999888129733211,3.3681708768343324e-05
-0.481213324458804,-0.481213324458804,1.0000205265137065,3.379958956265328e-05
-0.4788820042122097,-0.4788820042122097,1.0000440494389098,3.365846621666633e-05
-0.4774406571472355,-0.4774406571472355,0.999996418714106,3.382656613914889e-05
-0.47616931011652924,-0.47616931011652924,0.9999857216520489,3.378744493988013e-05
-0.47451868603675396,-0.47451868603675396,1.0000462460808823,3.369102905520836e-05
-0.472410245383071,-0.472410245383071,0.9999680761047054,3.365931200684705e-05
-0.4705311774203437,-0.4705311774203437,0.99993352318603,3.3656583905390745e-05
-0.46858265964183377,-0.46858265964183377,1.0000475506157334,3.3651161976944715e-05
-0.4666948507816414,-0.4666948507816414,0.9999297674317301,3.370330578697241e-05
-0.46496729083082755,-0.46496729083082755,1.0001160041546089,3.3662515781387026e-05
-0.46230104053538523,-0.46230104053538523,0.999971629709653,3.43213077420354e-05
-0.46004711962814326,-0.46004711962814326,1.000013404824559,3.38295452723552e-05
-0.45843344423992677,-0.45843344423992677,0.9999842180197025,3.365944773735438e-05
-0.45636193404207004,-0.45636193404207004,1.0000731426231382,3.366495926298864e-05
-0.4533311053281068,-0.4533311053281068,1.000062693406736,3.3768635794101055e-05
-0.4516130552809045,-0.4516130552809045,1.000046839321352,3.3657718576035324e-05
-0.45035252196685177,-0.45035252196685177,1.0000149453932026,3.3663527772792984e-05
-0.4490011596244585,-0.4490011596244585,1.0000413428990989,3.366157034547717e-05
-0.44789287393869015,-0.44789287393869015,0.9999761056554487,3.381959674960883e-05
-0.44542509152524873,-0.44542509152524873,0.9999925894283622,3.3650915925905885e-05
-0.44396565959614237,-0.44396565959614237,1.0000432456181647,3.365223537910173e-05
-0.4425747857465467,-0.4425747857465467,0.9999759323067078,3.3661448960934044e-05
-0.4411423747456865,-0.4411423747456865,1.0000478573676979,3.3657142886247064e-05
-0.4394034858123632,-0.4394034858123632,1.0000331418611028,3.36535725682318e-05
-0.43737487320249785,-0.43737487320249785,1.0000415333385086,3.365206556421418e-05
-0.4360886133501481,-0.4360886133501481,1.0000578607634236,3.365414604933929e-05
-0.4348934865454794,-0.4348934865454794,0.9999968765494547,3.365915430964156e-05
-0.43352227893556117,-0.43352227893556117,0.99998763486953,3.3658997264902814e-05
-0.4320252026329399,-0.4320252026329399,1.0000283029139303,3.384076805998478e-05
-0.43004303181005527,-0.43004303181005527,0.9999782528702358,3.365165316659731e-05
-0.42813290165941,-0.42813290165941,0.999992882414557,3.366378400176567e-05
-0.4264638325723354,-0.4264638325723354,1.0000039895017685,3.3741518849448067e-05
-0.42505909586252527,-0.42505909586252527,1.000002212644294,3.365875695947966e-05
-0.42344316198068555,-0.42344316198068555,1.0000285506737803,3.376758937712815e-05
-0.42101139453370706,-0.42101139453370706,1.000009615814494,3.366061373452388e-05
-0.41896283795576894,-0.41896283795576894,1.0000802987507298,3.372403456777295e-05
-0.41707149985450087,-0.41707149985450087,0.9999255591309748,3.365778552973236e-05
-0.4154744187020697,-0.4154744187020697,1.0000235534328337,3.365941023692641e-05
-0.41395551193272695,-0.41395551193272695,0.999985080325739,3.366320113234361e-05
-0.4111576246221375,-0.4111576246221375,1.0000048666213595,3.3653520787493e-05
-0.4092299379131873,-0.4092299379131873,0.9999881421965263,3.366034960442588e-05
-0.40759566764172633,-0.40759566764172633,1.0000059593572987,3.3658291908382464e-05
-0.40599846471304774,-0.40599846471304774,1.0000308464051422,3.367001019311309e-05
-0.4026388544261863,-0.4026388544261863,1.0000468690910165,3.365339090599767e-05
-0.4012177047494333,-0.4012177047494333,0.9999852975648474,3.366240910642909e-05
-0.39985132882356994,-0.39985132882356994,0.9999950974813089,3.365665233493127e-05
-0.39869808485091196,-0.39869808485091196,0.9999957786130235,3.365721182797762e-05
-0.39491337412473515,-0.39491337412473515,0.9999954409740968,3.367578908068459e-05
-0.39311369601564367,-0.39311369601564367,1.0000390819954412,3.366271637442147e-05
-0.3916164226408,-0.3916164226408,1.0000429062179257,3.3657636989872754e-05
-0.3893111657765985,-0.3893111657765985,1.0000087114274663,3.383346642159788e-05
-0.385857003043202,-0.385857003043202,1.0000680267865896,3.365705235315063e-05
-0.38446294448513074,-0.38446294448513074,1.0000037251268963,3.383335012436303e-05
-0.3832987236812187,-0.3832987236812187,0.999971100452845,3.366154692421485e-05
-0.3813205439408193,-0.3813205439408193,1.000045804665223,3.36831464630086e-05
-0.3787000150994572,-0.3787000150994572,1.000049797207915,3.365825321730037e-05
-0.3769119965400023,-0.3769119965400023,1.000054729901862,3.382538996248749e-05
-0.37561878194464954,-0.37561878194464954,0.9999960134387372,3.379451314505367e-05
-0.3743173684779322,-0.3743173684779322,1.0000354467071302,3.368696842251036e-05
-0.3725537744183384,-0.3725537744183384,1.000027777977054,3.365818792739552e-05
-0.3702060353047273,-0.3702060353047273,1.0000813707975607,3.37965912417905e-05
-0.36862681460552266,-0.36862681460552266,1.0000059767295268,3.365660486045806e-05
-0.36602026531400045,-0.36602026531400045,0.9999998647092619,3.365584867005697e-05
-0.363914546831802,-0.363914546831802,1.000020957413208,3.3661771510956014e-05
-0.3605684089117858,-0.3605684089117858,0.9999840342440283,3.3656232832129354e-05
-0.3580378697311971,-0.3580378697311971,0.9999339149075197,3.36555254942345e-05
-0.35616841496375856,-0.35616841496375856,0.9999610827488364,3.36622918859826e-05
-0.3546045979928749,-0.3546045979928749,1.000090501720862,3.3711739127723926e-05
-0.3529307880329725,-0.3529307880329725,0.9999772323052424,3.3761587969494806e-05
-0.3513442533279886,-0.3513442533279886,1.0000472591828629,3.3653615727923384e-05
-0.3495747439665138,-0.3495747439665138,1.0000556822763609,3.3663223255500735e-05
-0.3480837459450413,-0.3480837459450413,0.9999890740103222,3.366051800418609e-05
-0.3464643823412189,-0.3464643823412189,1.0000814083004634,3.3817707207888013e-05
-0.3441542896114697,-0.3441542896114697,1.0000247710580645,3.365223359451613e-05
-0.3425561896343424,-0.3425561896343424,1.0000128441578904,3.3651145178480186e-05
-0.34151414903681143,-0.34151414903681143,0.999991911983338,3.3660547292407736e-05
-0.34010299607398337,-0.34010299607398337,1.0000242701173208,3.3833750112250776e-05
-0.3386259640676144,-0.3386259640676144,0.9999318140605841,3.365343684785061e-05
-0.3365970160026336,-0.3365970160026336,1.0000484289823877,3.365193559463697e-05
-0.33494712912943214,-0.33494712912943214,0.9999800652718415,3.365610656095326e-05
-0.3335670898180979,-0.3335670898180979,0.9999851581929816,3.3659183856794566e-05
-0.3321128713527287,-0.3321128713527287,0.9999578117597357,3.3839773929997304e-05
-0.33035639581212306,-0.33035639581212306,1.0000097810358277,3.366023258728297e-05
-0.32801499926135874,-0.32801499926135874,0.999962933112411,3.365764303204582e-05
-0.3266642016700644,-0.3266642016700644,0.9999958436521519,3.3656648717089064e-05
-0.3250482343035401,-0.3250482343035401,0.9999883935792713,3.3657987553615015e-05
-0.32307727987790713,-0.32307727987790713,1.0000085209851526,3.377043073414973e-05
-0.32067459636673445,-0.32067459636673445,0.9999960568212579,3.366061619589131e-05
-0.31830446597668927,-0.31830446597668927,1.0000314039629856,3.372352368214853e-05
-0.316366600953188,-0.316366600953188,0.9999742693638798,3.365624296258792e-05
-0.3150571656362445,-0.3150571656362445,1.000065269387548,3.36613762543866e-05
-0.3139410145136935,-0.3139410145136935,0.9999815620406622,3.3658337603742e-05
-0.31249988832787495,-0.31249988832787495,1.000049702812347,3.366478680087679e-05
-0.30979325412045,-0.30979325412045,0.999988291137756,3.3739694876724103e-05
-0.30830967792644515,-0.30830967792644515,1.0000931252113618,3.3661791177152305e-05
-0.306650719789468,-0.306650719789468,1.0000106685543972,3.3657494292976334e-05
-0.30509812623713517,-0.30509812623713517,0.9999564427905863,3.367078741995784e-05
-0.3018612796993693,-0.3018612796993693,1.0000094352347835,3.3652888765823716e-05
-0.3004400737983815,-0.3004400737983815,0.9999568971227871,3.366220352840928e-05
-0.2990021841978887,-0.2990021841978887,1.00002010592153,3.365543201275318e-05
-0.2977824548390345,-0.2977824548390345,1.0000032219606811,3.36572282839058e-05
-0.29450462868699107,-0.29450462868699107,1.000000302034301,3.367815749943741e-05
-0.2923365178328822,-0.2923365178328822,0.9999829401315938,3.366184751868845e-05
-0.2907146177436516,-0.2907146177436516,0.9999858978649299,3.365713091213568e-05
-0.288693502231763,-0.288693502231763,0.99991406460896,3.3829555645862516e-05
-0.2858896538957197,-0.2858896538957197,0.9999715114148477,3.365595519045962e-05
-0.2843079269856389,-0.2843079269856389,0.9999720201919994,3.383405667118295e-05
-0.2829346700520546,-0.2829346700520546,0.9999494908207721,3.365952605348394e-05
-0.2811944547043822,-0.2811944547043822,0.9999952192157167,3.368691556785176e-05
-0.2780936059818487,-0.2780936059818487,0.9999967344404282,3.3656562621456454e-05
-0.2762471736394218,-0.2762471736394218,0.9999307296241794,3.382330634810584e-05
-0.2747863132113707,-0.2747863132113707,1.0000070031181398,3.3653893318620334e-05
-0.2734347676137986,-0.2734347676137986,0.9999661516365308,3.3686430243601734e-05
-0.271943356112024,-0.271943356112024,0.9999929149738843,3.3660052633239306e-05
-0.2694232512410963,-0.2694232512410963,1.0000125933714208,3.365721239708025e-05
-0.2668296566342178,-0.2668296566342178,0.9999314948563882,3.365175207590473e-05
-0.2643983152171131,-0.2643983152171131,1.0000654590735896,3.3662087887137865e-05
-0.26229539974956423,-0.26229539974956423,1.0000337279509472,3.366047498821157e-05
-0.2597356289232266,-0.2597356289232266,1.0000172442876014,3.3791379502449033e-05
-0.2575895622758253,-0.2575895622758253,1.0000552541654089,3.379801512063244e-05
-0.25624552472654616,-0.25624552472654616,0.9999908795613928,3.365687332532103e-05
-0.25471850911708316,-0.25471850911708316,0.9999873684773677,3.366203126017715e-05
-0.2522891617903952,-0.2522891617903952,0.9999649651837477,3.375833414467646e-05
-0.2505932848893281,-0.2505932848893281,0.9999911737735175,3.3652173469274165e-05
-0.24908753506169887,-0.24908753506169887,0.9999262535590987,3.366334935029452e-05
-0.2474651096461457,-0.2474651096461457,0.9999532780878017,3.3659056258487124e-05
-0.2454095873297774,-0.2454095873297774,0.9999497060385923,3.3706345119354094e-05
-0.24337692842600517,-0.24337692842600517,1.0000248029692937,3.3652536632742375e-05
-0.24198829423112328,-0.24198829423112328,0.9999907278301434,3.381558992700255e-05
-0.24101638284992077,-0.24101638284992077,0.9999722923608854,3.3660409153440735e-05
-0.23933111912192545,-0.23933111912192545,0.9999613400700703,3.3657906178016386e-05
-0.23789549323773826,-0.23789549323773826,0.9999790432542227,3.383508341048422e-05
-0.2360563231370179,-0.2360563231370179,1.0000281067738919,3.365153216064121e-05
-0.2345101896346023,-0.2345101896346023,0.9999820135688205,3.36567270758014e-05
-0.23278917313946296,-0.23278917313946296,0.9999622963247239,3.365836047805667e-05
-0.23106136007336317,-0.23106136007336317,0.9999873677978766,3.384063836201475e-05
-0.2295095695684722,-0.2295095695684722,1.0000343269067462,3.366003843914445e-05
-0.22723681606148602,-0.22723681606148602,0.9999838110300873,3.3658595913382965e-05
-0.2257327445637202,-0.2257327445637202,1.0000690005749104,3.3658320681701566e-05
-0.22408176132812513,-0.22408176132812513,0.9999639503720867,3.3656217572285984e-05
-0.22271962175727822,-0.22271962175727822,1.0000408675871069,3.3653932625864724e-05
-0.22100442824958008,-0.22100442824958008,0.9999851713646274,3.376834144931399e-05
-0.21809580214467134,-0.21809580214467134,1.0000092697704772,3.373365812993049e-05
-0.21632637872680788,-0.21632637872680788,1.0000422058141973,3.365713263317827e-05
-0.2145027546939673,-0.2145027546939673,1.0000133152276371,3.366013724961159e-05
-0.21298362596498918,-0.21298362596498918,0.9999889020530363,3.365324353150002e-05
-0.21019718973984708,-0.21019718973984708,1.0000174107153708,3.375564527555669e-05
-0.20831563512256251,-0.20831563512256251,0.9999589409935498,3.3653261294975373e-05
-0.20717282241021168,-0.20717282241021168,0.99996449424614,3.365986604983861e-05
-0.2058724071153847,-0.2058724071153847,0.9999822902487505,3.365689680243009e-05
-0.20414334634770057,-0.20414334634770057,1.0000397072365041,3.367366327009353e-05
-0.20160716271348064,-0.20160716271348064,0.9999773497267033,3.36513221566996e-05
-0.19990213402197696,-0.19990213402197696,0.9999588626547757,3.365907722954692e-05
-0.19838499246325228,-0.19838499246325228,0.9999573968343818,3.3658064302961456e-05
-0.19699196306319208,-0.19699196306319208,1.0000684392590204,3.365913554046076e-05
-0.193726260321273,-0.193726260321273,0.9999723237170383,3.367682735953519e-05
-0.19155934127484214,-0.19155934127484214,1.0000683091572347,3.3662497544748264e-05
-0.18972826093086043,-0.18972826093086043,1.0000594802274334,3.3658135047296766e-05
-0.1878193423144694,-0.1878193423144694,0.999982621695924,3.38290666924492e-05
-0.18511107468875707,-0.18511107468875707,0.9999727669497416,3.365583892492244e-05
-0.1832666657639493,-0.1832666657639493,0.9999971890765613,3.383243003168493e-05
-0.18193078860349488,-0.18193078860349488,0.9998898758370954,3.366004259237815e-05
-0.18009992454753956,-0.18009992454753956,0.9999796861574575,3.368750180083939e-05
-0.17771920779850917,-0.17771920779850917,0.9999985224014193,3.3660608936556553e-05
-0.17560010633824277,-0.17560010633824277,1.000072781875454,3.365575761063336e-05
-0.17357048709745868,-0.17357048709745868,0.9999623133232364,3.3649974915840666e-05
-0.17141983051405987,-0.17141983051405987,1.0000205602243473,3.3698985178744765e-05
-0.16915283364724018,-0.16915283364724018,1.0000021936636103,3.365826895333076e-05
-0.16663590427924646,-0.16663590427924646,0.9999962738036844,3.365593515665134e-05
-0.16392817598898546,-0.16392817598898546,1.0000154194327795,3.382398358519454e-05
-0.16180766312681955,-0.16180766312681955,0.999961454157936,3.365479656392906e-05
-0.15942223039965028,-0.15942223039965028,0.9999863334464807,3.378945320410212e-05
-0.15739423992054072,-0.15739423992054072,0.9999796862150305,3.3653397890048855e-05
-0.155654503533151,-0.155654503533151,0.999970653818125,3.365994423964321e-05
-0.15408835393027404,-0.15408835393027404,0.9999503807585276,3.3806002566451305e-05
-0.15252562424357166,-0.15252562424357166,1.0000124781435804,3.3762135540530324e-05
-0.1505889048152312,-0.1505889048152312,0.999980468942627,3.365010375264175e-05
-0.1491814779190463,-0.1491814779190463,0.9999893165303508,3.36566969437396e-05
-0.14768645827643923,-0.14768645827643923,0.9999371486417044,3.366034895021301e-05
-0.14584022556300624,-0.14584022556300624,1.0000867533876867,3.3663328414862294e-05
-0.14340680035529657,-0.14340680035529657,0.9999422429978703,3.370433523122947e-05
-0.1419679953403829,-0.1419679953403829,0.999976299579124,3.365304637587545e-05
-0.14058649373910156,-0.14058649373910156,1.000032201726158,3.3657888083611146e-05
-0.13924757028507884,-0.13924757028507884,0.9999912030240903,3.3659893873196975e-05
-0.13771809892059536,-0.13771809892059536,0.9999917088284678,3.3831942625510466e-05
-0.13611305742088006,-0.13611305742088006,0.9999460647331688,3.3655234900854074e-05
-0.1345183746801922,-0.1345183746801922,1.000006682599583,3.365318814737315e-05
-0.13260164266102947,-0.13260164266102947,0.9999803409067459,3.36569657188393e-05
-0.1310163768932398,-0.1310163768932398,1.000011542939888,3.383841509087222e-05
-0.12951928046386457,-0.12951928046386457,1.0000127088571247,3.366226706513104e-05
-0.12726343389731481,-0.12726343389731481,1.000031691258945,3.365997293617299e-05
-0.12558061443196494,-0.12558061443196494,0.999919778774726,3.365581533535629e-05
-0.12423494166650925,-0.12423494166650925,1.0000319541106626,3.3656627846494044e-05
-0.1227604876512487,-0.1227604876512487,1.000017747347668,3.365934214150503e-05
-0.1212354397670424,-0.1212354397670424,1.0000091640359017,3.377540809507187e-05
-0.11935124845476822,-0.11935124845476822,1.0000614445672347,3.3652633781007157e-05
-0.11703213667206,-0.11703213667206,0.9999820221663178,3.3657432288823546e-05
-0.11504202506039292,-0.11504202506039292,1.0001088688597748,3.3658600180617636e-05
-0.11377192792351706,-0.11377192792351706,0.9999358357491479,3.3658291516071775e-05
-0.11273720132085145,-0.11273720132085145,0.9999385481623234,3.365754071393906e-05
-0.11073563151221606,-0.11073563151221606,0.9999743221561748,3.383055860447829e-05
-0.10839619042526465,-0.10839619042526465,1.0000066944506272,3.3724300920138414e-05
-0.10692856156456401,-0.10692856156456401,1.0000419826247948,3.3662199507723775e-05
-0.10569400527019752,-0.10569400527019752,0.9999871965603347,3.365976992512527e-05
-0.1043641739161103,-0.1043641739161103,1.0000816844249234,3.3749959289226754e-05
-0.10160966639450635,-0.10160966639450635,0.9999516187684886,3.3666677091436113e-05
-0.09931860721262638,-0.09931860721262638,1.0000225456338228,3.365994937518446e-05
-0.09802332878825837,-0.09802332878825837,1.000015673734759,3.365967018932094e-05
-0.09665738158873864,-0.09665738158873864,0.9999969862823143,3.365828640482357e-05
-0.09375616520628682,-0.09375616520628682,1.000038326669638,3.36735807541657e-05
-0.09110859590000472,-0.09110859590000472,1.000014386191692,3.366491497635855e-05
-0.08928745708471979,-0.08928745708471979,0.999962441056292,3.3657037172496065e-05
-0.08762139780083089,-0.08762139780083089,1.0000085199815352,3.36758774518578e-05
-0.085123047142406,-0.085123047142406,0.9999514144808493,3.3809617779189154e-05
-0.08286788527984754,-0.08286788527984754,0.9999911791331261,3.3830565032252086e-05
-0.0813774900198041,-0.0813774900198041,1.0000216241524487,3.3661063864188306e-05
-0.07985910465722554,-0.07985910465722554,0.9999393767689291,3.3686675240306305e-05
-0.07771734555717558,-0.07771734555717558,1.0000058808762116,3.3659864043026395e-05
-0.07626516627569799,-0.07626516627569799,1.0000202619733796,3.365804023176011e-05
-0.07388258659339045,-0.07388258659339045,0.9999801124895693,3.365694449198307e-05
-0.07198394311126322,-0.07198394311126322,0.9999625081647082,3.3690242621725707e-05
-0.0697078654586221,-0.0697078654586221,0.9999751923484428,3.365974936086167e-05
-0.06741754476242931,-0.06741754476242931,1.0000420276489073,3.365872703832676e-05
-0.0647307174062007,-0.0647307174062007,1.0000775767115226,3.3653923592099526e-05
-0.06283469291811343,-0.06283469291811343,0.99995827814619,3.365861567985037e-05
-0.06008445363622741,-0.06008445363622741,0.9999526687078071,3.378974380184467e-05
-0.05710618445882574,-0.05710618445882574,0.9999623031333217,3.365317406887479e-05
-0.055019213492050766,-0.055019213492050766,1.0000263060540624,3.36618480963531e-05
-0.053718289786047535,-0.053718289786047535,0.9999978031362685,3.382652845276433e-05
-0.052593011016142555,-0.052593011016142555,1.000022605518123,3.3801421960050746e-05
-0.05077442323672585,-0.05077442323672585,0.9999970598089171,3.3758094857131276e-05
-0.04932300752043375,-0.04932300752043375,0.99994635083061,3.36487714017204e-05
-0.047773155059985584,-0.047773155059985584,0.9999799289157891,3.365813613733546e-05
-0.04625592113588937,-0.04625592113588937,0.99993211016362,3.3659553470443065e-05
-0.043980504296632715,-0.043980504296632715,0.9999622964360306,3.3714847956891074e-05
