time,time,flux,flux_err
-0.4999103538953932,-0.4999103538953932,1.000038064491657,8.229778637513076e-05
-0.49977641303121345,-0.49977641303121345,1.0000261852113153,8.413893508202932e-05
-0.4996672431749175,-0.4996672431749175,1.000024101597839,8.565323712632926e-05
-0.49952937079506227,-0.49952937079506227,1.0000004038343804,8.408988737193072e-05
-0.49940148493187736,-0.49940148493187736,1.0001055396013991,8.749627946994293e-05
-0.4992623751211795,-0.4992623751211795,0.999998133311266,8.339977481649404e-05
-0.4991398023237707,-0.4991398023237707,1.000074395667679,8.406086070162513e-05
-0.4990133955681813,-0.4990133955681813,0.9999987762732868,8.305156793170582e-05
-0.4989246996847214,-0.4989246996847214,1.0000304831126219,8.532388032431717e-05
-0.498812150163576,-0.498812150163576,0.9999579700195514,8.262032031515185e-05
-0.4986951017228421,-0.4986951017228421,0.9999816423022615,8.474374401013159e-05
-0.4986083513707854,-0.4986083513707854,1.0000633957585097,8.290584959963956e-05
-0.49852778813656184,-0.49852778813656184,0.999924312539903,8.411729052151674e-05
-0.4983763103868114,-0.4983763103868114,0.9998939256615138,8.198668968407158e-05
-0.49823156187921996,-0.49823156187921996,1.0001212019947459,8.479170214314142e-05
-0.49813421979197303,-0.49813421979197303,1.0000289864444194,8.402983631645426e-05
-0.4980115443788236,-0.4980115443788236,0.9999580609393937,8.354808220636274e-05
-0.4979414783520042,-0.4979414783520042,1.0000039403481267,8.32610025006231e-05
-0.4978417695805547,-0.4978417695805547,1.000099783551422,8.448475771367239e-05
-0.4977188648757874,-0.4977188648757874,0.9999603909028455,8.434089069280305e-05
-0.49754257434397003,-0.49754257434397003,0.9999285196680721,8.344457273854082e-05
-0.4974187918327516,-0.4974187918327516,0.9999150208424652,8.398704940546577e-05
-0.49729895786149425,-0.49729895786149425,0.9999395966851754,8.284702159973588e-05
-0.497216047917027,-0.497216047917027,1.0001016786255814,8.544790166312076e-05
-0.49706582986254944,-0.49706582986254944,0.9999107160363234,8.422038892768424e-05
-0.49694433719996595,-0.49694433719996595,0.9998728541200643,8.31925858082145e-05
-0.496742961036216,-0.496742961036216,0.9998966938537756,8.361968074892525e-05
-0.49661915229517034,-0.49661915229517034,1.000118841012743,8.418434767421367e-05
-0.49656249299150657,-0.49656249299150657,1.0000589276607013,8.21189211530725e-05
-0.4964725249315961,-0.4964725249315961,1.0000929433139392,8.216578071475562e-05
-0.49634504580608335,-0.49634504580608335,0.9999019942662816,8.298827861645118e-05
-0.4962379664153559,-0.4962379664153559,0.999937918825559,8.343925870428639e-05
-0.4961287874219124,-0.4961287874219124,1.000095561599841,8.266333816073064e-05
-0.49603564857534366,-0.49603564857534366,1.000033976699651,8.411427580710513e-05
-0.4958968593098689,-0.4958968593098689,0.9999829301304398,8.395390544118857e-05
-0.4957733233255567,-0.4957733233255567,1.000058099660245,8.401868990172957e-05
-0.49566859679907793,-0.49566859679907793,0.9998690380197696,8.387332666292242e-05
-0.49558031518827195,-0.49558031518827195,1.0000447673332462,8.452202895525601e-05
-0.4953831295686541,-0.4953831295686541,0.9999533937775382,8.407219254999684e-05
-0.4952387812300003,-0.4952387812300003,1.0000214106672798,8.262149435290885e-05
-0.49513972421118524,-0.49513972421118524,0.999993010456125,8.325677315398771e-05
-0.4950795784534421,-0.4950795784534421,1.0000975523756426,8.34862851377934e-05
-0.4949706753381179,-0.4949706753381179,1.0000834486032284,8.393627184411913e-05
-0.4948726610702579,-0.4948726610702579,0.9999912008768244,8.410272601071134e-05
-0.4947416891503963,-0.4947416891503963,1.0000133458608973,8.423608330415222e-05
-0.4946433310644352,-0.4946433310644352,1.000094217871495,8.487563895050575e-05
-0.4944459787016967,-0.4944459787016967,0.9999070358898736,8.378002544719822e-05
-0.49434779240109494,-0.49434779240109494,1.0000249163300172,8.381697040518523e-05
-0.49425698522973105,-0.49425698522973105,1.0000132701650712,8.364655879267778e-05
-0.4941486338240793,-0.4941486338240793,1.000241149723315,8.333149636161866e-05
-0.4940168023967999,-0.4940168023967999,0.9999402900213299,8.641846549885466e-05
-0.4939019494006061,-0.4939019494006061,1.0000507481581442,8.380014841178872e-05
-0.493794021505164,-0.493794021505164,1.000021338822918,8.448555372025522e-05
-0.49363363532029325,-0.49363363532029325,1.0001352929377367,8.377608022615686e-05
-0.49346951777115466,-0.49346951777115466,0.9999567035273383,8.497774481763947e-05
-0.4933492159310845,-0.4933492159310845,0.9999889859074036,8.434711469161777e-05
-0.4932148195191985,-0.4932148195191985,0.9999942134545696,8.452576102914573e-05
-0.49306464921683074,-0.49306464921683074,1.000013748695399,8.37413558596434e-05
-0.4928756409732159,-0.4928756409732159,0.9999298136480682,8.468474686678899e-05
-0.4927442455300479,-0.4927442455300479,1.0001521539371467,8.367312601524165e-05
-0.4926450852872222,-0.4926450852872222,1.0000337670732238,8.219871492602553e-05
-0.4925659438944422,-0.4925659438944422,1.000131606078514,8.47894050668328e-05
-0.49247304023738253,-0.49247304023738253,1.0000545861373944,8.39326451339167e-05
-0.49235095456970157,-0.49235095456970157,1.0000420100650147,8.432403038073413e-05
-0.49222964743094055,-0.49222964743094055,1.0001286993556413,8.343035548400006e-05
-0.4921031777674216,-0.4921031777674216,0.9999885727472135,8.30955799044978e-05
-0.49195455032750035,-0.49195455032750035,1.0001455059970525,8.256739928906231e-05
-0.49185348667379003,-0.49185348667379003,0.9999514649222887,8.368776624571297e-05
-0.49172263855143683,-0.49172263855143683,0.9998364497658978,8.427852998511831e-05
-0.49159922317921884,-0.49159922317921884,1.0000585633936823,8.42699592754623e-05
-0.4914796167373424,-0.4914796167373424,1.000005598099705,8.621870042139548e-05
-0.49136121138290034,-0.49136121138290034,1.0000342291451934,8.360190883174962e-05
-0.4912629970742273,-0.4912629970742273,0.9999397146515692,8.37388587471631e-05
-0.49116462157981006,-0.49116462157981006,0.9999527336096214,8.410776070095318e-05
-0.49104934429342395,-0.49104934429342395,0.999962941974997,8.37943039105885e-05
-0.49092353274754713,-0.49092353274754713,1.0001136037321958,8.259042830120118e-05
-0.49078256432694617,-0.49078256432694617,1.0000142443660027,8.359728975864363e-05
-0.49064153065555727,-0.49064153065555727,0.9999734433371023,8.22406115269856e-05
-0.490520985420153,-0.490520985420153,0.9998745373388849,8.401406236239693e-05
-0.49037478657846806,-0.49037478657846806,1.0000022829812663,8.266373756414434e-05
-0.4902423095452832,-0.4902423095452832,1.000000410079368,8.491143699651283e-05
-0.4901049454580061,-0.4901049454580061,1.0000624450297906,8.242192075831987e-05
-0.4900413441515411,-0.4900413441515411,1.0000624581294695,8.286895876058433e-05
-0.48990768898220266,-0.48990768898220266,1.000126946395178,8.45064640596963e-05
-0.48976862134441035,-0.48976862134441035,0.999941302480849,8.299306520570356e-05
-0.4896916957863141,-0.4896916957863141,0.9999338004692786,8.343004201694416e-05
-0.4895276376075344,-0.4895276376075344,0.9999838696458522,8.349565228499568e-05
-0.4893811492671375,-0.4893811492671375,1.0000429270842643,8.460627830443815e-05
-0.48932843596703607,-0.48932843596703607,1.000177316162679,8.346456472702133e-05
-0.48917694326664785,-0.48917694326664785,0.9999123961645869,8.476124139710442e-05
-0.4890995990281226,-0.4890995990281226,1.000039465515424,8.476004951752476e-05
-0.48894612329168013,-0.48894612329168013,1.0000558813797635,8.405084215537385e-05
-0.4887630232638912,-0.4887630232638912,1.0000832871338337,8.434299300057832e-05
-0.48861936303728726,-0.48861936303728726,0.9999252383504189,8.388817684157215e-05
-0.4884892975387629,-0.4884892975387629,1.0001712540712089,8.343654192984997e-05
-0.4883646317932289,-0.4883646317932289,1.000007636447609,8.60152159677655e-05
-0.4882375653323834,-0.4882375653323834,0.9999996320359946,8.368777392887665e-05
-0.4881186079073814,-0.4881186079073814,0.999921716064766,8.344206938040013e-05
-0.48797961437667253,-0.48797961437667253,1.0001088332326595,8.5070006040409e-05
-0.48790469776431566,-0.48790469776431566,1.0000235930119041,8.403466585783397e-05
-0.4877856707375031,-0.4877856707375031,0.9999446959918963,8.375009214458287e-05
-0.48770630299113693,-0.48770630299113693,1.000075248566243,8.526158944716197e-05
-0.4875923463885556,-0.4875923463885556,1.0000768627883452,8.384885479940292e-05
-0.4874482745610294,-0.4874482745610294,1.000218415655922,8.29480601047332e-05
-0.48732538299809675,-0.48732538299809675,1.0000856989596052,8.271613036422922e-05
-0.4872101079876302,-0.4872101079876302,0.9999979639510952,8.476524260692151e-05
-0.48702734752732796,-0.48702734752732796,0.9999807985521574,8.332979734381534e-05
-0.48693704715406055,-0.48693704715406055,0.9999596724857547,8.352464832834727e-05
-0.4868583038303768,-0.4868583038303768,0.9999734910464889,8.269394296651122e-05
-0.4867781632812694,-0.4867781632812694,1.0000523265568986,8.257243758889365e-05
-0.48666180805012116,-0.48666180805012116,0.999928836462535,8.263818179982597e-05
-0.48649670922604854,-0.48649670922604854,1.0001633167487598,8.313485967907343e-05
-0.4864390848670155,-0.4864390848670155,0.9999254926681731,8.227755691122484e-05
-0.4863904420810286,-0.4863904420810286,1.000124154988276,8.366372655094982e-05
-0.4862827758202911,-0.4862827758202911,0.9998410406398552,8.442481472988785e-05
-0.48610196788358734,-0.48610196788358734,1.0000151478639663,8.351162272776063e-05
-0.4858989780055708,-0.4858989780055708,1.0001467510741213,8.408959419078192e-05
-0.4857946815987816,-0.4857946815987816,1.0001351421199187,8.376348091926431e-05
-0.4856940146768466,-0.4856940146768466,1.00006190407488,8.438066365040837e-05
-0.48554570344567766,-0.48554570344567766,0.9999533999882987,8.403140045308899e-05
-0.4853749975038227,-0.4853749975038227,1.000116227644233,8.419442570302489e-05
-0.4852557627062197,-0.4852557627062197,0.9998805039363035,8.350501666922574e-05
-0.4851140763508738,-0.4851140763508738,1.0000681201660115,8.310380843700326e-05
-0.4849435037423973,-0.4849435037423973,0.9999998211148025,8.35297884786441e-05
-0.48485155756643505,-0.48485155756643505,0.9999202940319512,8.618951302717249e-05
-0.4847355565027101,-0.4847355565027101,0.9999727997325809,8.393944532520184e-05
-0.4846187657982227,-0.4846187657982227,1.0000558747785455,8.565454240893586e-05
-0.48455041835550217,-0.48455041835550217,0.9999376904850965,8.251105675089233e-05
-0.4844521779232309,-0.4844521779232309,0.999966249231249,8.466437594152832e-05
-0.484303418728814,-0.484303418728814,0.9999125861103442,8.426193503031934e-05
-0.4842175167897949,-0.4842175167897949,0.9999114204382128,8.27175419478885e-05
-0.48412776615150505,-0.48412776615150505,1.0000656824187495,8.282454115755123e-05
-0.4839957918607979,-0.4839957918607979,0.9999481792400695,8.483884372691207e-05
-0.48388505627808626,-0.48388505627808626,1.0000592429486543,8.410135194345921e-05
-0.48377456557936965,-0.48377456557936965,1.0000472509926301,8.297535303306739e-05
-0.4836641249188688,-0.4836641249188688,1.000097973952346,8.40524026712239e-05
-0.4835099770265515,-0.4835099770265515,1.0001348279107378,8.491915458028624e-05
-0.48338204730389406,-0.48338204730389406,1.000215033577378,8.257404355038522e-05
-0.483284086745698,-0.483284086745698,1.0000856949010664,8.421256063256354e-05
-0.48321138553728815,-0.48321138553728815,1.0000490794595236,8.373989313376374e-05
-0.48305005859583616,-0.48305005859583616,1.0001266728336062,8.41556091047636e-05
-0.4829220629559131,-0.4829220629559131,1.0000336391323352,8.487081196744577e-05
-0.482755200509564,-0.482755200509564,1.000151258070718,8.176131811147722e-05
-0.4825820699916221,-0.4825820699916221,0.9999582982007473,8.302328621204898e-05
-0.4824534094237606,-0.4824534094237606,1.0000546720473038,8.38937326551405e-05
-0.4823176084872102,-0.4823176084872102,1.000015837472928,8.32916155759459e-05
-0.48220641109510326,-0.48220641109510326,0.9999095452652395,8.449390816775448e-05
-0.482092433332582,-0.482092433332582,1.0000605722692384,8.378267903541572e-05
-0.4820027577428846,-0.4820027577428846,0.9999693238789578,8.799771507767583e-05
-0.48188344326044896,-0.48188344326044896,0.9999786862573277,8.382436828055434e-05
-0.48169250111823203,-0.48169250111823203,1.0001131722481869,8.344855524629654e-05
-0.4815057704487117,-0.4815057704487117,0.9999498342494062,8.490337182165004e-05
-0.4814130096958252,-0.4814130096958252,1.000233450893901,8.500254260278755e-05
-0.48119996543537125,-0.48119996543537125,1.0001534352924994,8.381609985689684e-05
-0.4810053642722778,-0.4810053642722778,1.000069972566716,8.343133865049549e-05
-0.4809432850277517,-0.4809432850277517,0.9999725310895136,8.372555223370824e-05
-0.4808461023596465,-0.4808461023596465,0.9999364650614069,8.294720859804478e-05
-0.4807042333399295,-0.4807042333399295,1.0000489034650937,8.270817580095548e-05
-0.4806042118594632,-0.4806042118594632,0.9999702556400416,8.388665585147101e-05
-0.48046714449301364,-0.48046714449301364,0.9998968994930106,8.309876298163575e-05
-0.48036271642631617,-0.48036271642631617,0.999913809848074,8.362412295844814e-05
-0.4802245828876039,-0.4802245828876039,0.9998459280641825,8.345228317395745e-05
-0.4800991046358831,-0.4800991046358831,1.000231399501247,8.489933543963076e-05
-0.4799729246951756,-0.4799729246951756,1.0002088370006135,8.382984938408676e-05
-0.4799032341703423,-0.4799032341703423,0.9999433584216607,8.519815792662697e-05
-0.4797267239409848,-0.4797267239409848,0.9999848432599755,8.450332806187533e-05
-0.47958396146132143,-0.47958396146132143,0.99989713963792,8.245642017817232e-05
-0.4794130582027719,-0.4794130582027719,1.0000648563646244,8.457711128143306e-05
-0.4793348752631573,-0.4793348752631573,1.0000309269011338,8.365365752211582e-05
-0.4792237168789143,-0.4792237168789143,0.9998982770975285,8.428380188742887e-05
-0.4791560158890206,-0.4791560158890206,0.9999837758894519,8.479422134263608e-05
-0.47905337139964105,-0.47905337139964105,0.999919319019201,8.384901319459776e-05
-0.47893375520361586,-0.47893375520361586,0.999981885817547,8.382275071197874e-05
-0.4787605227989843,-0.4787605227989843,0.9999920981631754,8.242331024857766e-05
-0.47862796966219323,-0.47862796966219323,1.0001314506824355,8.434595123625346e-05
-0.4785022682190174,-0.4785022682190174,0.9999574187369044,8.498048573082346e-05
-0.47843378673424014,-0.47843378673424014,1.0000353883579272,8.322779561084828e-05
-0.4783577706475626,-0.4783577706475626,0.9999677621314694,8.265409613917309e-05
-0.4782273392236675,-0.4782273392236675,1.0001594287396804,8.46067887104741e-05
-0.47804624510899885,-0.47804624510899885,1.0000272762458542,8.393074084561929e-05
-0.47791174101730577,-0.47791174101730577,0.9997537485131005,8.390271498677048e-05
-0.4777992069168249,-0.4777992069168249,0.9999931969805254,8.38397552304892e-05
-0.47765600673446895,-0.47765600673446895,0.999920610527874,8.433533656619008e-05
-0.4775447146836086,-0.4775447146836086,1.0000092085152037,8.430613897215245e-05
-0.4774282241254696,-0.4774282241254696,1.000159461840139,8.412102570366572e-05
-0.4772156584091135,-0.4772156584091135,0.9998829363004365,8.418595872710712e-05
-0.47714872249780454,-0.47714872249780454,1.000106361705512,8.387533041623266e-05
-0.47706459192268086,-0.47706459192268086,1.000046597010052,8.33426923105194e-05
-0.47692071426281474,-0.47692071426281474,1.0000678212299199,8.403844570552851e-05
-0.47682932199095374,-0.47682932199095374,0.999910366054762,8.21850548286674e-05
-0.4767286111178691,-0.4767286111178691,0.9999188321403363,8.367744170761224e-05
-0.47660761186125455,-0.47660761186125455,1.0000114060408263,8.422835445023375e-05
-0.4764107645081822,-0.4764107645081822,1.0001158159330303,8.25765466589939e-05
-0.4762837766727898,-0.4762837766727898,1.0001750642960012,8.38300791938216e-05
-0.47620307278994006,-0.47620307278994006,1.000089918924656,8.331903029941537e-05
-0.47611484206427124,-0.47611484206427124,1.0000084389473145,8.265209279144682e-05
-0.47599919177009725,-0.47599919177009725,1.0001006915321793,8.436656277332273e-05
-0.475820433429908,-0.475820433429908,1.0000406519137583,8.507211520919056e-05
-0.4756478643219452,-0.4756478643219452,1.0000738609221025,8.433025828100805e-05
-0.475525701251172,-0.475525701251172,0.9999170339860459,8.450201118961168e-05
-0.47535620871494755,-0.47535620871494755,0.9999097422973277,8.419918624498352e-05
-0.47522537419135913,-0.47522537419135913,1.0001310109463293,8.384880696181317e-05
-0.47513461716589517,-0.47513461716589517,1.0000249232891374,8.356316962430463e-05
-0.4749369516997831,-0.4749369516997831,0.9999987895434128,8.448094686796296e-05
-0.4748081178404391,-0.4748081178404391,0.9999079089622593,8.29608692367022e-05
-0.4746782955160597,-0.4746782955160597,0.9999762610297213,8.407364627640561e-05
-0.47454590150446163,-0.47454590150446163,1.000047198081618,8.328391188681394e-05
-0.4744254903183901,-0.4744254903183901,1.0000393252836361,8.444028828152098e-05
-0.4743757795513375,-0.4743757795513375,1.000055669016757,8.212447210516731e-05
-0.47424553375167305,-0.47424553375167305,0.999967898343361,8.507594394520574e-05
-0.4740459688444389,-0.4740459688444389,1.0000243328073892,8.313535270374933e-05
-0.47390321875427616,-0.47390321875427616,0.9998723465683892,8.326177557565004e-05
-0.4737503283846308,-0.4737503283846308,0.9999605758684746,8.424535646512209e-05
-0.4736527436049073,-0.4736527436049073,1.0001179561003144,8.613444242497713e-05
-0.473588826561172,-0.473588826561172,1.0000546029522166,8.380959102808862e-05
-0.47344068687816615,-0.47344068687816615,1.0000317016676832,8.426565412321751e-05
-0.4732915284039336,-0.4732915284039336,1.0001369287076542,8.296628580097789e-05
-0.4731535067170626,-0.4731535067170626,1.000128119142247,8.483362808747791e-05
-0.4730177303776145,-0.4730177303776145,1.000051938973624,8.369856745593548e-05
-0.47292027091025374,-0.47292027091025374,0.999970129976344,8.390152276708206e-05
-0.4728135322686285,-0.4728135322686285,0.9999170896839477,8.245741463894151e-05
-0.472690831880027,-0.472690831880027,1.0001793643215855,8.306049153512973e-05
-0.4725980797753436,-0.4725980797753436,1.0001025908746048,8.303516436620097e-05
-0.4724102544976631,-0.4724102544976631,0.9998781698064129,8.410828272387971e-05
-0.47226811745786107,-0.47226811745786107,1.0000157648026515,8.488105006736485e-05
-0.47220462224941,-0.47220462224941,0.9999190366513041,8.304758428274867e-05
-0.4721321470278781,-0.4721321470278781,1.0000688446882045,8.380998662029016e-05
-0.4720235994333052,-0.4720235994333052,1.000067652463175,8.363398586358631e-05
-0.47191086104139685,-0.47191086104139685,0.999798939222815,8.511060215096573e-05
-0.471745145926252,-0.471745145926252,0.9999596429510978,8.414744086706931e-05
-0.471666258899495,-0.471666258899495,1.0000319535955187,8.211190010982195e-05
-0.4714939017823781,-0.4714939017823781,0.9999759873131723,8.456005507316462e-05
-0.47138181711925425,-0.47138181711925425,1.0001719350227058,8.41410250074312e-05
-0.4712493147017085,-0.4712493147017085,1.0000662654121801,8.430290090797456e-05
-0.4711077283718623,-0.4711077283718623,1.0000503018251872,8.31651146463511e-05
-0.4709151630071574,-0.4709151630071574,1.0000372584346564,8.365837934918296e-05
-0.47079745180817556,-0.47079745180817556,0.9999263428464069,8.39831144659797e-05
-0.4707538580405526,-0.4707538580405526,0.9998591290173788,8.300245768296213e-05
-0.47067666268121683,-0.47067666268121683,1.0001410895916953,8.127661244095652e-05
-0.47054772331175626,-0.47054772331175626,1.0000780416238293,8.302858161932599e-05
-0.47041373591928276,-0.47041373591928276,1.000048732042894,8.320949677802874e-05
-0.4702845498235547,-0.4702845498235547,1.0001438287471072,8.414918113812845e-05
-0.47011797987797765,-0.47011797987797765,0.9999526139950543,8.50864202507723e-05
-0.46999726353096777,-0.46999726353096777,0.9999784830708316,8.365856411416391e-05
-0.46987527019518893,-0.46987527019518893,1.0000286950039752,8.412581282173621e-05
