time,time,flux,flux_err
-0.49991317273234015,-0.49991317273234015,1.000204672041391,0.000167798269216687
-0.49972751054447145,-0.49972751054447145,0.9999191040104233,0.00016575809656813577
-0.4995284960008576,-0.4995284960008576,0.9997994473814641,0.00015984930082779068
-0.4994229982534307,-0.4994229982534307,0.9998793034110974,0.00016145655292977226
-0.49921359292420675,-0.49921359292420675,0.9999547227628813,0.0001683286315560952
-0.49908842294244093,-0.49908842294244093,0.9999819964825492,0.00016426556849715213
-0.4989179741976841,-0.4989179741976841,1.00007812201031,0.00016923155656043594
-0.4987548775272444,-0.4987548775272444,1.0002447481757275,0.0001757879660948744
-0.49854328311630525,-0.49854328311630525,1.0000208076248183,0.00016217167285629202
-0.498400405846769,-0.498400405846769,1.000225482140392,0.00015800743858171873
-0.4982679990374891,-0.4982679990374891,0.999956638006174,0.00016438119057305653
-0.4981154376764607,-0.4981154376764607,0.9998517823098444,0.00016533856636831648
-0.4978993219257973,-0.4978993219257973,1.0001211510637589,0.00016321799071796202
-0.49771683828294044,-0.49771683828294044,0.9999531301824384,0.00015991682408890862
-0.4974878385750344,-0.4974878385750344,0.9998188016098849,0.0001679347496920497
-0.4973714675878,-0.4973714675878,0.9999153454131025,0.00017028926736794442
-0.49723052430781534,-0.49723052430781534,0.9999210498130366,0.00016510296921130535
-0.49698476068733727,-0.49698476068733727,0.9998970540086303,0.0001594255553470007
-0.4968146049104689,-0.4968146049104689,0.9999087786248662,0.00015661164495235446
-0.49669061039603546,-0.49669061039603546,1.0001980768377443,0.00016402405223642024
-0.4965816192372586,-0.4965816192372586,0.999967101154048,0.00016416423001521923
-0.49643214007810454,-0.49643214007810454,1.0003433308944367,0.00015786591507824905
-0.49630953535815936,-0.49630953535815936,1.0002240529780353,0.00016266860024444487
-0.49620011429433364,-0.49620011429433364,1.00019547260848,0.00015657938733059694
-0.4959467397871776,-0.4959467397871776,1.0000448629070757,0.0001660352231865766
-0.49578707144537476,-0.49578707144537476,1.000019153319815,0.00016421201339321287
-0.49567724254375206,-0.49567724254375206,1.0002474477164687,0.00017303842843866007
-0.4955495692076511,-0.4955495692076511,1.0001189362833487,0.0001532454405852401
-0.4953200005067629,-0.4953200005067629,0.9999778240658103,0.00016269682288695822
-0.4951090009322797,-0.4951090009322797,1.000139718228287,0.00016172509380256894
-0.494998982562538,-0.494998982562538,0.9998740242826211,0.0001666901527916331
-0.49489909442854696,-0.49489909442854696,0.9999962773511258,0.00016286330692512024
-0.4947423953060934,-0.4947423953060934,1.0000735995745678,0.00015764179276523516
-0.4946414363766962,-0.4946414363766962,1.0001519754330939,0.00016130085475618753
-0.49453718318472967,-0.49453718318472967,0.9997536092476226,0.000156569654867065
-0.4944153020427621,-0.4944153020427621,0.9999989632108068,0.0001593807718862366
-0.4942506501422031,-0.4942506501422031,1.0000639461131857,0.00015981422848492947
-0.49412273333218765,-0.49412273333218765,0.9999612916561251,0.00016680290412371732
-0.4939845840395719,-0.4939845840395719,1.0000299975088978,0.0001726902583078713
-0.49377180933734055,-0.49377180933734055,1.0002769464877905,0.00015394642312135595
-0.49351203625265044,-0.49351203625265044,1.0001999154043404,0.00015656584855112645
-0.49339409411404633,-0.49339409411404633,1.000019265904198,0.0001644666611111816
-0.49322932186260005,-0.49322932186260005,1.0001192794732616,0.00016266954320015532
-0.4930468937855039,-0.4930468937855039,0.9999344312105187,0.0001588056234203225
-0.49299524392336025,-0.49299524392336025,1.0001679993334633,0.00015850651850464226
-0.4929173735348741,-0.4929173735348741,0.9998529803751666,0.00015746747847728365
-0.49276335731556176,-0.49276335731556176,0.9998379008510538,0.00015978639135490357
-0.4925904845666082,-0.4925904845666082,0.9999976105356421,0.0001626496937761496
-0.49241394443524766,-0.49241394443524766,1.0002121266256396,0.00017602580710002804
-0.4922984519980673,-0.4922984519980673,0.9998370015502651,0.0001667931913365749
-0.49204810160663326,-0.49204810160663326,0.9998884877958911,0.00015732681362607076
-0.49178411344691997,-0.49178411344691997,0.9999152745843031,0.00015671282079179812
-0.4916604075995565,-0.4916604075995565,1.0003077966800462,0.0001695198162735266
-0.4914557541902468,-0.4914557541902468,1.000085801204086,0.00015731546621637653
-0.49132534382588344,-0.49132534382588344,1.000160717434991,0.00016104298898404296
-0.491261739674519,-0.491261739674519,0.9999575113186194,0.00016083560964916523
-0.4911369798668602,-0.4911369798668602,1.0000766743590912,0.00016208341913534596
-0.4909952123161929,-0.4909952123161929,1.0002329598483395,0.00016277954998107055
-0.49080368670329333,-0.49080368670329333,0.9998416841460006,0.00016361649832981345
-0.49068621772385085,-0.49068621772385085,0.9999155824826648,0.0001660600519255044
-0.49051789295408527,-0.49051789295408527,0.9999912937288038,0.00016333699302577758
-0.4902538027985429,-0.4902538027985429,0.9998496765747233,0.0001558831263526119
-0.4901306363295589,-0.4901306363295589,0.9999090630425996,0.00016584954455115485
-0.4900213750152034,-0.4900213750152034,1.0000742618752145,0.00015407276091159417
-0.4899249834830698,-0.4899249834830698,0.9998726151711737,0.00016849640406024506
-0.48976937040642954,-0.48976937040642954,1.000132680632598,0.00015580097090601622
-0.48963102493362387,-0.48963102493362387,0.9999361831467592,0.00016810630414076873
-0.4895418047621206,-0.4895418047621206,1.000071089731386,0.00016369184445999842
-0.48942677589584493,-0.48942677589584493,0.999917532140915,0.00016159250475937666
-0.48931145687020033,-0.48931145687020033,1.0001820596056707,0.00015513940618600212
-0.4891428186041594,-0.4891428186041594,1.000010236791231,0.00017261349471318178
-0.4889788963759202,-0.4889788963759202,1.0000360619049793,0.00015675973398183486
-0.4888248093033326,-0.4888248093033326,0.9998380737295826,0.00016024036659044905
-0.4885398875252577,-0.4885398875252577,1.0001531057870783,0.00016857625948986786
-0.4884281134858611,-0.4884281134858611,0.9998986163529822,0.0001546748135491513
-0.4882968313722813,-0.4882968313722813,0.9998994701822383,0.00016407821288625296
-0.48816224739857716,-0.48816224739857716,1.0001980248414477,0.00015686228797275707
-0.4879747583589051,-0.4879747583589051,1.0000809090822806,0.00016715282085012973
-0.48791375449145563,-0.48791375449145563,0.9999607595575032,0.00016689402898954997
-0.487791936557187,-0.487791936557187,1.000004488738827,0.00016511481055851137
-0.48767808481061364,-0.48767808481061364,1.000137174182397,0.00015767354295843724
-0.48751588008308316,-0.48751588008308316,1.0001523582909644,0.00017239230172808422
-0.48728330564918,-0.48728330564918,0.9999023516413288,0.00015647124744306578
-0.48701855220788276,-0.48701855220788276,0.9998143254760017,0.00016351113536027987
-0.48684388354449765,-0.48684388354449765,1.0000947590879619,0.00016317838596780103
-0.48674026966982636,-0.48674026966982636,1.0003383934055272,0.00015553772413929304
-0.4866379446088104,-0.4866379446088104,0.9998395106679554,0.00016326441818957185
-0.4864784195269749,-0.4864784195269749,1.000037002171345,0.00016288535265851636
-0.48626856971604865,-0.48626856971604865,0.9999950892824152,0.00016026274079037028
-0.4861973724786367,-0.4861973724786367,1.0003214750896716,0.00015685198307071642
-0.4861215501266997,-0.4861215501266997,0.9999202289874869,0.00016636546981935938
-0.48598115632266853,-0.48598115632266853,0.9999483315510156,0.00015771459832943747
-0.48583073679255906,-0.48583073679255906,0.9997629471969189,0.00017252041637780648
-0.4856968210187915,-0.4856968210187915,1.0001866985859107,0.00016045992383347085
-0.485494890622067,-0.485494890622067,0.9998611512799531,0.00015559378928514604
-0.4852560425366391,-0.4852560425366391,0.9998558990709661,0.00016931609934006355
-0.4851403925298655,-0.4851403925298655,0.999749230136843,0.00016667458396133508
-0.48499650249650583,-0.48499650249650583,1.000289960229456,0.00015663940515808666
-0.48486587737934317,-0.48486587737934317,1.0000409925581668,0.00015594035014814114
-0.4846058101633389,-0.4846058101633389,1.0001730448340809,0.0001643241267281242
-0.48450945670483636,-0.48450945670483636,1.0001092490717367,0.0001599764620152009
-0.48444613021274563,-0.48444613021274563,1.0002539066750458,0.00016599159399796872
-0.4843346012785332,-0.4843346012785332,0.9999419695980267,0.00016134161205139254
-0.4841748532271595,-0.4841748532271595,1.000057291694004,0.0001724407761012627
-0.48393525823557865,-0.48393525823557865,0.999991894098979,0.00015681782468188042
-0.48365010618799714,-0.48365010618799714,0.9999038730705323,0.00015692251138717662
-0.48348258227997576,-0.48348258227997576,1.0000260154807281,0.00016732489152952338
-0.48332506743463455,-0.48332506743463455,1.000166268069729,0.00015776124231308246
-0.48316111746826207,-0.48316111746826207,0.9997366697546175,0.00015680153811495877
-0.4829234604869271,-0.4829234604869271,1.0002150716553497,0.0001643412332375459
-0.48282742292576586,-0.48282742292576586,0.9998689658020095,0.0001640760946848842
-0.4827653017768171,-0.4827653017768171,0.9999935523522911,0.00015986503395991108
-0.48263920325625803,-0.48263920325625803,1.0001120604696419,0.00016137551372443832
-0.4825065686498419,-0.4825065686498419,1.0000382859552281,0.0001685539182544104
-0.48220475557027387,-0.48220475557027387,1.0001028002754209,0.00016775687157052286
-0.48193437286754487,-0.48193437286754487,1.0001172065208106,0.00015815497945139423
-0.48178271266224326,-0.48178271266224326,1.000055332013996,0.0001665513066766287
-0.48161796896747544,-0.48161796896747544,0.9998633294913818,0.000161132960150092
-0.48145010321386505,-0.48145010321386505,1.0000183658975788,0.00016429080943195014
-0.4812720549896767,-0.4812720549896767,1.0003608269371338,0.00016537764667313025
-0.48115851082402517,-0.48115851082402517,1.000022193148038,0.000159296240102717
-0.48108671674344805,-0.48108671674344805,1.0000865265152132,0.00016310362861920598
-0.48101269762337323,-0.48101269762337323,0.9999323575918352,0.00016509034169062984
-0.4809302210320311,-0.4809302210320311,0.9999457676230662,0.0001629362122635074
-0.4806954382976983,-0.4806954382976983,0.9999712852736078,0.00017108527635944276
-0.48034494481762524,-0.48034494481762524,0.9999015211720252,0.00016122891854375096
-0.48014884269359753,-0.48014884269359753,0.9999416722085008,0.00016521641329689303
-0.4799730273123714,-0.4799730273123714,1.000071127176258,0.00016209601229015867
-0.4797707575431559,-0.4797707575431559,0.9999160183191395,0.0001740376877485846
-0.4795406792094582,-0.4795406792094582,0.9997136873855332,0.00016025360059166417
-0.47943644687475173,-0.47943644687475173,1.0001023822718529,0.00015974371923499275
-0.47933823160346944,-0.47933823160346944,0.9998473919468216,0.00016521534634211533
-0.4792856248146563,-0.4792856248146563,0.9999282119072035,0.00017051645481345703
-0.4791458094172413,-0.4791458094172413,0.999894000582132,0.0001669191844875352
-0.47878905244142517,-0.47878905244142517,0.9998408923167202,0.00016326137781591939
-0.4785496972166584,-0.4785496972166584,0.9997547160654273,0.00016289292207268813
-0.4784220558220113,-0.4784220558220113,1.000146999391595,0.0001618289873606374
-0.4781921724890708,-0.4781921724890708,1.0001107429362328,0.00015911161404466318
-0.47793456866784256,-0.47793456866784256,0.999912428429611,0.00016691107662456672
-0.47776494730860575,-0.47776494730860575,1.0000550045931542,0.00015711452897172038
-0.4776648283441318,-0.4776648283441318,0.9998181327777539,0.00017100244797930555
-0.47757791756957885,-0.47757791756957885,1.0000406451585853,0.00016488569728968615
-0.4773742887962726,-0.4773742887962726,1.0000678752265009,0.00016778595493507345
-0.4770844934413617,-0.4770844934413617,0.9998285280530321,0.00015719880325836796
-0.47688565980570274,-0.47688565980570274,0.9999748335696659,0.00016495162474356142
-0.4767086366380681,-0.4767086366380681,1.0002859923832816,0.00015986105154175998
-0.4764854461507639,-0.4764854461507639,1.0001438545891967,0.00016520366602472877
-0.47627514727646486,-0.47627514727646486,0.9999873315786821,0.0001594896974451005
-0.4760724942832894,-0.4760724942832894,1.000041820828404,0.00016394671176507707
-0.47598914655900443,-0.47598914655900443,1.0000689547897736,0.0001618520756842865
-0.4759039665121236,-0.4759039665121236,1.000181476352496,0.00016814731386048445
-0.4757459112377546,-0.4757459112377546,1.0000801301260627,0.00015507902530705528
-0.47552770347319895,-0.47552770347319895,1.000043150121934,0.00016311124805547313
-0.47538707811108905,-0.47538707811108905,1.0000721022623902,0.00015833880462624584
-0.4752156716203899,-0.4752156716203899,1.0001724403819114,0.00016039950652332486
-0.4751017677990603,-0.4751017677990603,0.9998185186667513,0.00016341662392406166
-0.47487836825166596,-0.47487836825166596,0.9997903516957996,0.00016852095914585176
-0.4747008058431675,-0.4747008058431675,1.0000552939226344,0.00015657843439254645
-0.47455717266348074,-0.47455717266348074,0.9999497246653792,0.00016466582773588486
-0.47439457026266607,-0.47439457026266607,1.0003142516097978,0.00016336429096014697
-0.4743013682164019,-0.4743013682164019,1.0000410666359176,0.00016238023259467282
-0.47417401711791174,-0.47417401711791174,1.000015999900754,0.0001674727613485245
-0.4739178694719158,-0.4739178694719158,1.0002542182058771,0.00016455923506369566
-0.4737517034947814,-0.4737517034947814,0.9997468719418781,0.00015430859840160713
-0.4736020263917453,-0.4736020263917453,0.9998634372858447,0.00017523806712370908
-0.47348204642694325,-0.47348204642694325,1.0001693064976627,0.00016146373628404652
-0.4733308103197487,-0.4733308103197487,1.0001431703797912,0.00016365871548084347
-0.47313004157986144,-0.47313004157986144,0.9999781081947899,0.00016526933795949945
-0.47300470608606704,-0.47300470608606704,1.0002891228337667,0.000162664164271527
-0.47292405091939144,-0.47292405091939144,0.9999329918398207,0.00016194457498785222
-0.47271954912503134,-0.47271954912503134,0.9998840819562552,0.0001664037309380458
-0.4726057081359613,-0.4726057081359613,1.0000160986988547,0.00016637731406460586
-0.472454522071348,-0.472454522071348,0.999876922608841,0.00016473352194837078
-0.4722188619161898,-0.4722188619161898,0.9999443993574741,0.0001618337711604131
-0.4720986963955511,-0.4720986963955511,1.0001233594617664,0.0001658669125550017
-0.47199474596782237,-0.47199474596782237,0.9999096962798184,0.0001602956503389354
-0.471840846973646,-0.471840846973646,1.0001392899255226,0.00016009369423067697
-0.47175663674497625,-0.47175663674497625,0.9998604964604721,0.00015950204627662804
-0.4716361605103884,-0.4716361605103884,0.9999089214541943,0.00015826414941899871
-0.47146539915993346,-0.47146539915993346,0.9999323356326599,0.0001766930295532931
-0.47128512150084134,-0.47128512150084134,1.0000843857977584,0.00015858263319849347
-0.47114613361191005,-0.47114613361191005,0.9999939967402842,0.00016428002967735304
-0.4709472542715957,-0.4709472542715957,0.999887204298106,0.00016886853859761697
-0.47081702520736146,-0.47081702520736146,0.9998830524387928,0.0001588062392602061
-0.47059417031050543,-0.47059417031050543,0.9999299555458174,0.0001585728943352671
-0.47042573447397446,-0.47042573447397446,1.000039870825141,0.00015745657013918921
-0.47029120173465344,-0.47029120173465344,0.9999570843272059,0.00016263201062746024
-0.47011214945669055,-0.47011214945669055,1.000161196503229,0.00015996818373180047
-0.469988635017944,-0.469988635017944,0.9999712477823982,0.00016560675952574476
-0.4698698426269402,-0.4698698426269402,1.000058470373705,0.00017056574338663292
-0.4696882242176798,-0.4696882242176798,0.9996582065435557,0.00016334709019286302
-0.46957061799766964,-0.46957061799766964,1.0002341628855604,0.00016009415200989258
-0.4693651239402243,-0.4693651239402243,0.9998704136658532,0.0001644374269853236
-0.469193319525948,-0.469193319525948,0.9999548310113658,0.00016502341738768443
-0.46899267306289405,-0.46899267306289405,0.9996504542996713,0.0001575178604421991
-0.4688234092434868,-0.4688234092434868,0.9999310421426507,0.00016081888331477196
-0.46864037708437534,-0.46864037708437534,0.9998040279753069,0.00016051331295109463
-0.46852595216114423,-0.46852595216114423,1.0001408230282802,0.00015681904124458722
-0.468386989665305,-0.468386989665305,0.9998727349102425,0.00015759084756536217
-0.4682699631433934,-0.4682699631433934,1.0002835670321635,0.00017266653303997466
-0.4681726021357463,-0.4681726021357463,0.999832047636696,0.00016426355317114138
-0.46802013149281263,-0.46802013149281263,0.9998971077688055,0.00016458825102798376
-0.4678510670040851,-0.4678510670040851,0.9996915019793338,0.00016269664402154946
-0.46760285087075315,-0.46760285087075315,0.9999657427224985,0.00016563382951176865
-0.4674243346700678,-0.4674243346700678,1.0001801827740546,0.00016555455450647984
-0.4672590981608664,-0.4672590981608664,1.0000807866990855,0.00015881187944806837
-0.4671417428595305,-0.4671417428595305,0.9998577239528421,0.00016360395941366772
-0.4669393842043064,-0.4669393842043064,0.9998845333108223,0.00015997794913035613
-0.46676005635381446,-0.46676005635381446,0.9999546946156764,0.00016010414918930235
-0.46660093133541525,-0.46660093133541525,0.9999273629692697,0.00017393171533553974
-0.46653662379831073,-0.46653662379831073,1.0001987339670204,0.0001677080118089565
-0.4664297025898122,-0.4664297025898122,1.0000954665539266,0.0001667196110266299
-0.4662683418035158,-0.4662683418035158,0.9998395585826693,0.00016206406035269237
-0.4661429235042306,-0.4661429235042306,1.0000158016421314,0.00015836605152189356
-0.4659857638340327,-0.4659857638340327,1.00011707670061,0.0001628115401557703
-0.46584102100823654,-0.46584102100823654,0.9998922969746719,0.00015827999957574286
-0.46567323557756024,-0.46567323557756024,0.999995599547861,0.00016647309660998842
-0.46553742865362435,-0.46553742865362435,1.0001933436815214,0.00015750570996178934
-0.46543864599734663,-0.46543864599734663,1.0000407943249534,0.0001640424760004232
-0.4652612831268925,-0.4652612831268925,1.0000185001818633,0.00016229272276918063
-0.4650649209943367,-0.4650649209943367,0.999997741383565,0.00016023099043909391
-0.4649319087402546,-0.4649319087402546,1.0000862483866846,0.0001723552802720435
-0.46478079111839177,-0.46478079111839177,1.0000918617325454,0.00016271044622368937
-0.4646822325354151,-0.4646822325354151,0.9998989963808402,0.0001629612041521447
-0.4645432300065295,-0.4645432300065295,0.9998435925326097,0.0001609592476063641
-0.4643318495225685,-0.4643318495225685,0.9999198736930802,0.00015746282854258028
-0.46416602271056034,-0.46416602271056034,1.0001957206711414,0.00015950533020327472
-0.46403056022609235,-0.46403056022609235,0.9998860774447784,0.00016489002137300357
-0.4638806710259814,-0.4638806710259814,1.0000222639367746,0.00015853025513633671
-0.4637364828697173,-0.4637364828697173,0.999957739354391,0.00016325956389787644
-0.46359457295693574,-0.46359457295693574,1.00010824170552,0.00015863487530208803
-0.4633981151098851,-0.4633981151098851,0.9999444912721207,0.0001605815803196147
-0.46328708087166887,-0.46328708087166887,0.999831988285445,0.00016846404667755107
-0.46313512485212416,-0.46313512485212416,0.9998951729459726,0.00016514707828356969
-0.4630150477307325,-0.4630150477307325,0.9999874827166486,0.00015684125911757642
-0.46288812381972094,-0.46288812381972094,1.0001160690164805,0.00016343271966503284
-0.4626886301288323,-0.4626886301288323,1.000212332688852,0.00015645578857150525
-0.4624844894082344,-0.4624844894082344,0.9996387115806608,0.00016157887947970695
-0.46232575901813106,-0.46232575901813106,0.9999487837105479,0.0001665072957283166
-0.462088347964891,-0.462088347964891,0.999966134948916,0.00015506149246253612
-0.4618747501328471,-0.4618747501328471,0.9998831278086466,0.00015874370040105961
-0.461677644323936,-0.461677644323936,1.0000202739830955,0.00017107156923023585
