time,time,flux,flux_err
-0.4999126596752224,-0.4999126596752224,1.0001996455097544,0.00023279239662586854
-0.49975179041939555,-0.49975179041939555,0.9999025913578764,0.0002408307800790755
-0.49966485022923735,-0.49966485022923735,0.9999081742665457,0.00023807930792277415
-0.49955532673872466,-0.49955532673872466,0.9999771170218225,0.000239467560746511
-0.4994297383083904,-0.4994297383083904,0.999794702120392,0.00021938138554451745
-0.49923424099833935,-0.49923424099833935,0.9998149809265335,0.00021236107405413164
-0.49909390326720315,-0.49909390326720315,0.999774958531002,0.00022791769838473438
-0.49898583868998686,-0.49898583868998686,0.9997671733322274,0.00021724626757168688
-0.49890917997108775,-0.49890917997108775,0.9995474335701301,0.0002031054307581214
-0.4988153678707022,-0.4988153678707022,0.9999534019041796,0.0002134223532184437
-0.49870411975716705,-0.49870411975716705,0.9999966444427676,0.00023255327035949595
-0.4985844783463108,-0.4985844783463108,0.9999605803659998,0.00022693924330062992
-0.49843978861608773,-0.49843978861608773,0.9999856568627612,0.00020537825672510497
-0.4983559713298746,-0.4983559713298746,1.0000484278813349,0.00021650456882985986
-0.49818062918930084,-0.49818062918930084,1.0000655384933164,0.0002249950299096439
-0.49807526846125255,-0.49807526846125255,0.9994373763352715,0.00022733058940594759
-0.49792907725277474,-0.49792907725277474,0.9999629745689734,0.0002224432751279779
-0.4978053523482231,-0.4978053523482231,0.9998096933139047,0.00022473452266627138
-0.49771665405569365,-0.49771665405569365,0.9999868455392382,0.0002125745244131654
-0.49765271075157214,-0.49765271075157214,0.999908325825553,0.00021025734624765055
-0.49752869506555725,-0.49752869506555725,1.000103372201529,0.00020846197676165637
-0.49744314777271936,-0.49744314777271936,0.9999110522307791,0.00021105772228057463
-0.4972814459091751,-0.4972814459091751,0.9999515023955563,0.00021772578807578908
-0.4971668979182141,-0.4971668979182141,0.9999396447632437,0.00022368512502067133
-0.4970573408994824,-0.4970573408994824,1.0000928112785012,0.00023141261547736714
-0.49694744527514556,-0.49694744527514556,0.9998037618868816,0.00023360429664738748
-0.4968370383954607,-0.4968370383954607,1.000103788581019,0.00023163714171970276
-0.4967193426047743,-0.4967193426047743,0.9996858517420664,0.00021245602754414996
-0.4966090056892426,-0.4966090056892426,0.9996134486457956,0.0002130379309268757
-0.49646117190131916,-0.49646117190131916,0.9997952330123132,0.00021123012038402894
-0.49633444668143056,-0.49633444668143056,0.9999910704677806,0.0002323289852240636
-0.49614064171764766,-0.49614064171764766,0.999759681247873,0.0002205587551071696
-0.49596489929026577,-0.49596489929026577,0.9999404379651177,0.00020221076585029215
-0.4958340333228989,-0.4958340333228989,0.9997759410110565,0.0002294036096404112
-0.4957510644657305,-0.4957510644657305,0.9999175830677608,0.000216377478888464
-0.49569900055066685,-0.49569900055066685,1.0000682976157178,0.00021707242161215544
-0.49552520799988997,-0.49552520799988997,1.0002440855588781,0.0002254941476286168
-0.4954206712849555,-0.4954206712849555,0.999908575974864,0.0002073189505191115
-0.49531633380829587,-0.49531633380829587,0.9998148443147967,0.00021301212273939655
-0.49519208935817005,-0.49519208935817005,0.9999931900286351,0.00020896578267274522
-0.49501236603973664,-0.49501236603973664,0.9997805181027207,0.00020940453901136018
-0.494877041476866,-0.494877041476866,1.0000552820321313,0.0002038729910432864
-0.49477864217260503,-0.49477864217260503,0.9999617696956171,0.0002141138175099054
-0.4946484426458483,-0.4946484426458483,1.0002554824559415,0.0002157366920388227
-0.49449027422015207,-0.49449027422015207,0.9999167862232554,0.00020623722849004265
-0.494364066424896,-0.494364066424896,1.0001849192891759,0.00021360379176427126
-0.494282187698991,-0.494282187698991,0.9999130827884374,0.00021797594685145366
-0.49410607155878095,-0.49410607155878095,0.9997043682161018,0.00021313215976695806
-0.49394262433197583,-0.49394262433197583,0.9996285155782838,0.00020835586562994264
-0.49380093440704514,-0.49380093440704514,1.0002097680961053,0.0002128670924457084
-0.4937058518095,-0.4937058518095,1.0001037530821304,0.00023196432009802594
-0.4936007042633719,-0.4936007042633719,1.0003233632072068,0.0002000844205632935
-0.4935215916200832,-0.4935215916200832,0.9997311386673475,0.00021987413949257271
-0.49340355005624587,-0.49340355005624587,0.9999395373748545,0.00020852073873505752
-0.493308367786085,-0.493308367786085,0.9999500046975067,0.00021151319095813435
-0.4931981347872352,-0.4931981347872352,1.0002245861467443,0.00020598356292303032
-0.4930287271803536,-0.4930287271803536,0.9999356864011609,0.0002075102464506815
-0.4929274894813716,-0.4929274894813716,1.000283956767225,0.0002196654113819092
-0.4927915835069143,-0.4927915835069143,0.9998519669117272,0.00020254377349535643
-0.49269741488897123,-0.49269741488897123,0.9997495692639442,0.00022329826564152205
-0.49255765971829535,-0.49255765971829535,1.0002499917956915,0.0002136780946112337
-0.4923674802026653,-0.4923674802026653,0.9998451723802952,0.00020346284844342645
-0.49229744874173775,-0.49229744874173775,1.0000568305623088,0.00021364066477587039
-0.49220732171088455,-0.49220732171088455,0.9999754183963114,0.0002151250943125995
-0.4920948861268698,-0.4920948861268698,0.9999664398485024,0.00023825884196634564
-0.49195740693612605,-0.49195740693612605,1.000162268963225,0.0002281301332936792
-0.4918256740711513,-0.4918256740711513,1.0001875755006777,0.00021231689215202965
-0.4917066471542057,-0.4917066471542057,1.0001257834655175,0.00021225014238542315
-0.49164102252179875,-0.49164102252179875,0.9999285699191456,0.0002120068881450154
-0.49152000153189873,-0.49152000153189873,0.9995976675062547,0.00021508080727412538
-0.49140819902168004,-0.49140819902168004,0.9997147185322313,0.00020782678059714775
-0.4912874332083447,-0.4912874332083447,0.9998716713919009,0.00021641910262899843
-0.491180751020147,-0.491180751020147,0.9997530013665428,0.000247464857785504
-0.4910287282858917,-0.4910287282858917,1.0002554664312535,0.00020883086349134444
-0.490894309032592,-0.490894309032592,0.9999700969570438,0.0002211784085058859
-0.4907957161100057,-0.4907957161100057,1.0000253547502047,0.0002304890865453439
-0.49071582835604205,-0.49071582835604205,1.0001672726733832,0.0002050194779052761
-0.4905469511038973,-0.4905469511038973,0.9999358241344926,0.00021732023796198016
-0.490393716890685,-0.490393716890685,0.9997977022882395,0.00022892552474120816
-0.4903166935619083,-0.4903166935619083,1.0001364859940418,0.0002227138547487005
-0.4902245386925642,-0.4902245386925642,0.999824376119683,0.00020728850688267513
-0.4900754435831914,-0.4900754435831914,1.0001442640442149,0.00021259196998250134
-0.4899939996095782,-0.4899939996095782,1.0002403525599401,0.00020809356049474774
-0.48988730145429144,-0.48988730145429144,0.9998472828248447,0.00021249323052628116
-0.48977211499077383,-0.48977211499077383,0.9999743081038643,0.00022887778625995314
-0.48960474830819295,-0.48960474830819295,0.9999259416969298,0.00021061677918346954
-0.48950719633794504,-0.48950719633794504,0.9997515562888168,0.00021899635036210768
-0.4893654737024917,-0.4893654737024917,0.9999607052529778,0.00023818591000383422
-0.48921619194807137,-0.48921619194807137,0.9999210318350279,0.00020330499328218574
-0.4891160866893188,-0.4891160866893188,1.0000487810447334,0.00021329520681861972
-0.4888793160505884,-0.4888793160505884,1.000036635255686,0.00022017607135158495
-0.48870325118259644,-0.48870325118259644,1.0000626217094069,0.000214278979838165
-0.4885222909557342,-0.4885222909557342,1.0000197119302203,0.0002315285369876066
-0.48834632735306516,-0.48834632735306516,1.000021806420992,0.00022617688232551115
-0.48824678992386905,-0.48824678992386905,0.999783957924743,0.00021876703236802533
-0.48814846570676307,-0.48814846570676307,0.9997376046599487,0.00020852237476757683
-0.4880718483058445,-0.4880718483058445,1.0000580496602376,0.00022153015707378665
-0.48796593628867413,-0.48796593628867413,0.9997758482104848,0.00021545899571506202
-0.487861840511323,-0.487861840511323,0.9997044762913962,0.00023152705461587124
-0.4877095056734106,-0.4877095056734106,0.9997283981064952,0.00022753547650849673
-0.487619979531155,-0.487619979531155,0.9997596666801508,0.0002103864856227533
-0.48748728864302393,-0.48748728864302393,1.0000135533793635,0.00020376647661409414
-0.4873299374950875,-0.4873299374950875,1.0000881363022507,0.00020565142369480404
-0.4871151577652199,-0.4871151577652199,1.0002329149352138,0.0002113938636378005
-0.4869313223658537,-0.4869313223658537,1.000257131847573,0.00021393858984316565
-0.4868424431151652,-0.4868424431151652,1.0002173770569809,0.00021676468696567845
-0.486744718447153,-0.486744718447153,1.000265566041549,0.00020635815396573574
-0.4866202366509242,-0.4866202366509242,0.9998231397982856,0.00021518954062927823
-0.4864354478726455,-0.4864354478726455,0.9999444794675542,0.00020567825145014948
-0.4863335442576499,-0.4863335442576499,0.9999238759408323,0.00021338575425010727
-0.48627432881476124,-0.48627432881476124,0.9999833772610524,0.00021860106188900354
-0.48619666346276064,-0.48619666346276064,0.9997475550251025,0.0002297854983064623
-0.48607837170347923,-0.48607837170347923,1.0000992048512338,0.00021036265745274764
-0.48590438907340283,-0.48590438907340283,1.000056316397527,0.00021879817990096972
-0.48575240560458044,-0.48575240560458044,1.000069140146536,0.00020645838477310243
-0.4856646443156933,-0.4856646443156933,1.0002610547045718,0.00021205958336492533
-0.48554275935166513,-0.48554275935166513,0.9997782277551757,0.0002333409981957862
-0.4854448328514991,-0.4854448328514991,0.9998740769351171,0.00022864470388564767
-0.485365022921178,-0.485365022921178,1.000133918017845,0.00021461740744580185
-0.4852169680008956,-0.4852169680008956,0.9999451766854228,0.00021957351359169004
-0.48508869438737745,-0.48508869438737745,0.9999141070827784,0.00022913486199487037
-0.4849418455502018,-0.4849418455502018,0.9998001439546675,0.00022281937359999582
-0.4848199251347978,-0.4848199251347978,1.0000495282807251,0.00019968570278146376
-0.4846739173961396,-0.4846739173961396,1.0001702254953693,0.00022335672857414827
-0.48459667100469234,-0.48459667100469234,1.0001997675313987,0.00023739024244252962
-0.484504606853443,-0.484504606853443,0.9997873299913204,0.00024076502130697462
-0.48434867190590014,-0.48434867190590014,1.0000498937405957,0.00021529422691596848
-0.48426117087728926,-0.48426117087728926,0.9998384549101285,0.00021991184833230055
-0.484163031791104,-0.484163031791104,1.000057175265837,0.00021266109883946003
-0.4840375092397153,-0.4840375092397153,0.9998270123464694,0.00021021092304599406
-0.4839101045843563,-0.4839101045843563,1.0002148865442866,0.0002251835219844093
-0.4837528516851307,-0.4837528516851307,0.9997907407518982,0.00022969612327748443
-0.4836152343799768,-0.4836152343799768,0.9998945497543078,0.00021518508282632287
-0.48345384899221244,-0.48345384899221244,1.0000313109860985,0.00021874063832179794
-0.4833264646200405,-0.4833264646200405,1.000287681025031,0.00022136799488641697
-0.4832678543854854,-0.4832678543854854,0.9998545734512835,0.00021455963601701191
-0.48312874248003934,-0.48312874248003934,0.9999537326244112,0.0002194032567103789
-0.482948470152769,-0.482948470152769,0.9999651794001047,0.0002126439679717153
-0.4828860367073503,-0.4828860367073503,1.0001153878874258,0.0002144551405548393
-0.48278095248751923,-0.48278095248751923,0.9998180660685554,0.0002211839789855014
-0.4826240095309913,-0.4826240095309913,1.0000482090231497,0.00020454014917490343
-0.48249536848888963,-0.48249536848888963,0.9998559516693559,0.00022090649644043112
-0.4823810476002109,-0.4823810476002109,1.0000921757061327,0.00022825173748718133
-0.482274721423164,-0.482274721423164,1.0001391203309729,0.00022365559184049627
-0.48219624108969583,-0.48219624108969583,1.000014672613586,0.00022250464493927608
-0.4820581738371402,-0.4820581738371402,0.9998817138952181,0.000220866380282731
-0.48195713712993893,-0.48195713712993893,0.9999737441874954,0.00022835956783465622
-0.4818155751498125,-0.4818155751498125,0.999831938047849,0.00021353231337661692
-0.48165774078079265,-0.48165774078079265,1.0001033239918151,0.00021628422716584296
-0.4814499396714382,-0.4814499396714382,0.9999605631051235,0.00020622489524261463
-0.48128427842311794,-0.48128427842311794,0.9998801019789758,0.0002375883346760189
-0.4811770619809977,-0.4811770619809977,0.9998837428786629,0.00021729958586780832
-0.48100074066314846,-0.48100074066314846,1.0000515144157656,0.0002297312873132833
-0.48094293414615097,-0.48094293414615097,1.0000392988081754,0.0002065320033784678
-0.48081783322195404,-0.48081783322195404,0.9998066481639348,0.00022035708799420585
-0.4807375312688237,-0.4807375312688237,0.9999831483059655,0.00022004828260254258
-0.4805538339642226,-0.4805538339642226,0.9999236255471686,0.0002135231022019186
-0.4803926138381939,-0.4803926138381939,1.0002251837336353,0.00020764299398689793
-0.48022829361289043,-0.48022829361289043,0.9997995321647709,0.00021861210326986862
-0.48011325599363774,-0.48011325599363774,1.0002448668560917,0.00022902820619913434
-0.4800225954328198,-0.4800225954328198,0.9998569613132435,0.0002101648228963737
-0.47987402575090526,-0.47987402575090526,0.9997591184286007,0.00021858489943491215
-0.4797474121129198,-0.4797474121129198,0.9998126960837131,0.00020366336477732876
-0.47946288407983956,-0.47946288407983956,1.0002230782272954,0.00023116273130396612
-0.4793455478553369,-0.4793455478553369,1.0000473123254783,0.00021938612879948477
-0.479184598413849,-0.479184598413849,0.9999257170674918,0.00022075002771690267
-0.4790170689688239,-0.4790170689688239,0.9999154435897519,0.0002110595987829359
-0.4788390275578422,-0.4788390275578422,1.0001248563148486,0.00020891450761822522
-0.4787420687549456,-0.4787420687549456,1.0002853920919281,0.00022359278349494532
-0.47867809762174146,-0.47867809762174146,0.9999071827782636,0.00022825582679595577
-0.47859671260666803,-0.47859671260666803,1.00007009175208,0.0002063324666660528
-0.4784779958325089,-0.4784779958325089,0.9997049199368465,0.00021545663518705355
-0.478269340312545,-0.478269340312545,0.9999729393407459,0.00022016036594959052
-0.4781396381004015,-0.4781396381004015,1.0000148564829718,0.00020742867244317214
-0.4780119595241558,-0.4780119595241558,1.0000446541411114,0.000238817873005062
-0.47793976746543193,-0.47793976746543193,0.9999059137545958,0.00021607953321441117
-0.4778241515807167,-0.4778241515807167,1.0000285119409085,0.00021329210556516164
-0.4777285105861665,-0.4777285105861665,1.000005296246944,0.00023009019968344641
-0.4776264534906659,-0.4776264534906659,0.9997279670300564,0.00021596601694026722
-0.47751400663401,-0.47751400663401,0.9999564046000489,0.0002107523055364364
-0.47740805864523284,-0.47740805864523284,1.0000025943323412,0.0002126043605884933
-0.47730398076746494,-0.47730398076746494,0.9998387183335253,0.00021016407812167806
-0.47716428638086655,-0.47716428638086655,0.9998963994403638,0.00020414835392524935
-0.47704866662461426,-0.47704866662461426,1.0004158580211044,0.00023046968306406334
-0.4768856198679714,-0.4768856198679714,1.0001625761692794,0.0002328859267072451
-0.4767866079731903,-0.4767866079731903,1.0001718036229,0.00021474805692484373
-0.4766885210206965,-0.4766885210206965,0.9998719622119806,0.00020826756353232979
-0.4765997576818336,-0.4765997576818336,1.000286293347541,0.00022278402022161492
-0.47649600180375273,-0.47649600180375273,1.0001269501462384,0.0002101444959274813
-0.47640750438076795,-0.47640750438076795,1.0002859593440145,0.00021183661674879106
-0.4762985322748136,-0.4762985322748136,0.9997731262871588,0.0002173900842749277
-0.4760970219394949,-0.4760970219394949,1.0001611314019547,0.00022732248727234293
-0.4759556935219734,-0.4759556935219734,0.9999252752058968,0.00024000493241535173
-0.4758045265560213,-0.4758045265560213,1.0001651087831582,0.00023625096379198694
-0.4756895389087731,-0.4756895389087731,1.0001796190313197,0.00020306268493978244
-0.475598408337828,-0.475598408337828,0.9997891094580338,0.00021521695215336473
-0.4754295227088733,-0.4754295227088733,1.000566517890587,0.0002131674524652771
-0.4752566919596575,-0.4752566919596575,1.0001870870547918,0.00021893132201739702
-0.4750494842257467,-0.4750494842257467,1.0001320874266821,0.00021619567700428146
-0.4749284074867319,-0.4749284074867319,1.0001538240004215,0.00022537644261249253
-0.47479492757702246,-0.47479492757702246,0.9998450249407067,0.00022031997773016855
-0.4747140339350153,-0.4747140339350153,1.000041493171397,0.00022448511023496644
-0.4745748038127203,-0.4745748038127203,1.0002359366985407,0.00022055943939732714
-0.4743957710263203,-0.4743957710263203,0.9999645159632831,0.0002118568299345426
-0.4742560796359612,-0.4742560796359612,0.999857128016011,0.00021258125772447093
-0.474112942024658,-0.474112942024658,0.9997630010679883,0.00023440731972947698
-0.4739816281311505,-0.4739816281311505,1.0000800534582743,0.0002039736451609484
-0.47380955144108156,-0.47380955144108156,1.0000169837838566,0.00022087078215627743
-0.4736034632420342,-0.4736034632420342,1.0001228241904576,0.0002103663113015564
-0.47344233646217615,-0.47344233646217615,1.0002362104934164,0.00021576963498321668
-0.47334760140583965,-0.47334760140583965,1.0001889557422108,0.00021282455350240124
-0.4732317409536336,-0.4732317409536336,1.0003432650726143,0.00021496503928105114
-0.47304038193033193,-0.47304038193033193,0.999991633669611,0.00020110877937981912
-0.47288821428010125,-0.47288821428010125,1.000034008349231,0.00021505780082886915
-0.47276163796850595,-0.47276163796850595,1.0002101283545681,0.00021980741892407347
-0.4727015074720839,-0.4727015074720839,0.999991633946163,0.00022846982675399133
-0.47260667679729523,-0.47260667679729523,0.9997256681492745,0.00020506805484754985
-0.4725191325189371,-0.4725191325189371,0.9999426299990123,0.00021956328059945376
-0.4723893403352122,-0.4723893403352122,0.9999789568140706,0.00020649245239552904
-0.4723015665702405,-0.4723015665702405,0.9998007342277008,0.00021019542835437117
-0.47217953177096206,-0.47217953177096206,1.0000295809312671,0.00022504380090843817
-0.4720189454026695,-0.4720189454026695,0.9999232060924912,0.0002082283654591222
-0.47189279799349604,-0.47189279799349604,1.000082464785322,0.0002131621953678298
-0.47173874613145017,-0.47173874613145017,1.000123480361175,0.00022201685147041724
-0.4716474396365811,-0.4716474396365811,0.9998171242989613,0.0002174340998375812
-0.4715109423857939,-0.4715109423857939,1.0000999527158037,0.00022488148041541173
-0.4713786120417353,-0.4713786120417353,0.9999700560311562,0.000203468336710262
-0.47133868816672475,-0.47133868816672475,0.9999400469369654,0.0002139711956307795
-0.47123836355604,-0.47123836355604,0.9997254306560848,0.000224236248118931
-0.4711169874142797,-0.4711169874142797,1.0002240803336324,0.00023918197641533442
-0.4710432363812288,-0.4710432363812288,0.9996823127784225,0.00022604983782240347
-0.47099616730192795,-0.47099616730192795,0.9999430277923261,0.00022688609441907985
-0.47087001387335475,-0.47087001387335475,1.000033492422474,0.00022281564795681273
-0.47083346281360716,-0.47083346281360716,1.0001566737603995,0.0002089801479780361
-0.4707183141625137,-0.4707183141625137,1.0000537163932084,0.00021009805416375075
-0.47064114400491236,-0.47064114400491236,1.0001131782420183,0.00020792584531126087
-0.4705372233329399,-0.4705372233329399,0.9998955645830108,0.00019703928839313298
-0.4704313499438285,-0.4704313499438285,0.9997187649392416,0.00021382799834813388
-0.4703189862608269,-0.4703189862608269,1.0000511866928723,0.00022014933808396937
-0.4702096654837078,-0.4702096654837078,0.9999915675754675,0.00023439611003721285
-0.4701185926118342,-0.4701185926118342,1.000016092083928,0.00021858499018936
-0.4699835633728071,-0.4699835633728071,0.9999884642841106,0.00020473356920392522
-0.46986455374790237,-0.46986455374790237,0.9999903177845667,0.00022201955714766657
