time,time,flux,flux_err
-0.4999102109351952,-0.4999102109351952,1.0001569953566973,8.847212280000621e-05
-0.4998015301775013,-0.4998015301775013,1.0001471010545058,8.899577415331145e-05
-0.499694183212705,-0.499694183212705,0.9999060149470111,8.758896600935381e-05
-0.49961287819751304,-0.49961287819751304,1.0001084593783085,8.719431949969344e-05
-0.49950192983378655,-0.49950192983378655,1.0000632573448158,8.81685997457674e-05
-0.4992944669960707,-0.4992944669960707,1.0001366002466308,8.795441226924066e-05
-0.49917867535332333,-0.49917867535332333,1.000249761034485,9.060318648549001e-05
-0.49895955782048984,-0.49895955782048984,1.000032881253372,8.640956238803728e-05
-0.49882221184234365,-0.49882221184234365,1.0001281400001982,8.657388880078865e-05
-0.4986894302259316,-0.4986894302259316,0.9999643859240148,8.685877939582323e-05
-0.4985663135943469,-0.4985663135943469,1.000165764129399,9.34167436189847e-05
-0.4984689994955261,-0.4984689994955261,1.000011762403846,8.964289651874785e-05
-0.49843106158368755,-0.49843106158368755,0.9998325773302522,8.7849103064718e-05
-0.4983423377016152,-0.4983423377016152,1.0000990964035958,8.6797699213918e-05
-0.49817553959874206,-0.49817553959874206,1.0000079279267857,8.69337759548296e-05
-0.49792162498706605,-0.49792162498706605,0.9999192545708346,8.903337398533505e-05
-0.49778012507085806,-0.49778012507085806,0.9999838414805472,8.646688483561085e-05
-0.49765210958721584,-0.49765210958721584,0.9998896386668756,8.872565372613831e-05
-0.49744832381475135,-0.49744832381475135,0.9999453553865832,8.74286471767719e-05
-0.4973688009304169,-0.4973688009304169,1.0000324063774424,8.978147133063881e-05
-0.49723683465417706,-0.49723683465417706,1.0001672558881467,8.742187409681032e-05
-0.49712818283442173,-0.49712818283442173,0.9999395615479694,8.716918622234591e-05
-0.49700653681429685,-0.49700653681429685,0.9999559899459131,8.492535150327419e-05
-0.4968985280327615,-0.4968985280327615,0.9999722520226146,9.108636688634857e-05
-0.4968136743140349,-0.4968136743140349,1.000050855892923,8.739426676877955e-05
-0.4965685000352096,-0.4965685000352096,1.0000490338427248,8.623645338181478e-05
-0.49648977042452314,-0.49648977042452314,1.0001982938241871,8.978677416646199e-05
-0.4964264141417516,-0.4964264141417516,1.000121965731214,8.666537594986782e-05
-0.49633555919426725,-0.49633555919426725,0.9998405213203687,8.866148505751802e-05
-0.4962314998243528,-0.4962314998243528,0.999908443111184,8.802245915381496e-05
-0.49601966589834773,-0.49601966589834773,1.0000796232324407,9.037418450334552e-05
-0.49589935997355494,-0.49589935997355494,0.9999031573005956,8.98804641730878e-05
-0.4958110001018213,-0.4958110001018213,1.0001420777438164,8.899855551458572e-05
-0.4957541216594109,-0.4957541216594109,0.9999540619829809,8.906985604217001e-05
-0.4956203082801949,-0.4956203082801949,1.0000074184390941,8.735287298442059e-05
-0.4955107472313102,-0.4955107472313102,0.9999631683278716,8.795886699720196e-05
-0.4954065062884183,-0.4954065062884183,0.9999797448075644,8.617151891000096e-05
-0.4952832431801653,-0.4952832431801653,1.0000321108232173,8.994496922622318e-05
-0.49508690391812704,-0.49508690391812704,1.0000231368362662,8.808567587651393e-05
-0.494979366951884,-0.494979366951884,1.0000707581740986,8.840416336111908e-05
-0.49485150951804824,-0.49485150951804824,1.0000538838084858,8.970587898646721e-05
-0.4947799971421773,-0.4947799971421773,1.0000060423097523,8.823870059224976e-05
-0.49463099924323617,-0.49463099924323617,1.0000245937696512,8.69713928799019e-05
-0.4944101283530472,-0.4944101283530472,0.9998756795100237,8.90089752949708e-05
-0.4942350698474911,-0.4942350698474911,1.0000603142223108,8.763530998153099e-05
-0.49410676307888934,-0.49410676307888934,1.000055849857037,8.832213888523445e-05
-0.4939583143830532,-0.4939583143830532,0.9999335119067728,8.496139874398678e-05
-0.4938295152867795,-0.4938295152867795,1.0000473379878358,9.38098978578181e-05
-0.49369682266842574,-0.49369682266842574,1.0002097395580178,8.812898430157314e-05
-0.4936425581887306,-0.4936425581887306,1.0001363449382805,8.809651481215015e-05
-0.4935632119239017,-0.4935632119239017,0.9998827453689811,8.731280085595632e-05
-0.49338454932149034,-0.49338454932149034,0.9999890663934006,9.021227766810399e-05
-0.4931935537024401,-0.4931935537024401,0.9998857487834771,8.722189222601266e-05
-0.4930368726476445,-0.4930368726476445,0.9999300760834146,8.715915363094947e-05
-0.4929158237457159,-0.4929158237457159,1.0001725103362273,8.828802431045077e-05
-0.4927189714893757,-0.4927189714893757,0.9999735764879132,8.736715510542173e-05
-0.49258522494637874,-0.49258522494637874,1.0000269185901078,8.74043069468855e-05
-0.49243897017368,-0.49243897017368,0.9998941360296453,8.740656658508839e-05
-0.4923014800224337,-0.4923014800224337,0.9999816286541989,8.817513905324203e-05
-0.49221480287451413,-0.49221480287451413,1.0001551275591711,8.502885551735975e-05
-0.4921054590304266,-0.4921054590304266,0.9999614166650279,8.994846037183472e-05
-0.49206431414786495,-0.49206431414786495,0.9999333865973454,8.57951252807969e-05
-0.4918715888816223,-0.4918715888816223,1.0000183983620634,9.17960527831224e-05
-0.49173478927696124,-0.49173478927696124,1.0000878550291927,8.679286591190649e-05
-0.4916419037377636,-0.4916419037377636,0.9999825326740591,8.828093873234712e-05
-0.4915667465669685,-0.4915667465669685,0.9999310868129093,8.813732149507881e-05
-0.49145861291108306,-0.49145861291108306,1.0001321243924897,8.767088611127811e-05
-0.491309658796672,-0.491309658796672,1.0000061174724952,8.853815374408239e-05
-0.49112769392304473,-0.49112769392304473,1.0000065407770162,9.033296247357121e-05
-0.49104862864114696,-0.49104862864114696,0.9998427142695352,8.916319666552271e-05
-0.49099822684220273,-0.49099822684220273,1.0002519445961804,8.924764086439489e-05
-0.49089740705967416,-0.49089740705967416,1.000051670506234,8.633141000419533e-05
-0.4907596699304122,-0.4907596699304122,0.9999560564365201,8.952228698637241e-05
-0.4906778975855559,-0.4906778975855559,0.9998673686517288,8.64053858801368e-05
-0.49055916981815245,-0.49055916981815245,1.000011345080578,8.924030865016515e-05
-0.49035228360371547,-0.49035228360371547,1.0001415013684933,8.686637526167509e-05
-0.4902586779127887,-0.4902586779127887,0.9999186200332051,8.68846574799919e-05
-0.4901548192858172,-0.4901548192858172,0.9999358431388232,8.813829772018506e-05
-0.4900435849231144,-0.4900435849231144,1.000023730624969,8.807704897936041e-05
-0.4899709748686291,-0.4899709748686291,0.9999491133941737,9.036225034982687e-05
-0.4898352674601483,-0.4898352674601483,0.9999437988332682,8.954341272784582e-05
-0.48966535151339485,-0.48966535151339485,0.9999603492614361,8.716459422047485e-05
-0.48955544849959554,-0.48955544849959554,1.0001049725826079,8.828416854746342e-05
-0.4894309284813062,-0.4894309284813062,1.0000222218799577,8.638061204919442e-05
-0.489298428085749,-0.489298428085749,1.0001051962622818,8.826970412217177e-05
-0.48916436073268416,-0.48916436073268416,1.0000788657481388,8.784750308763676e-05
-0.4890616560485796,-0.4890616560485796,0.9999043829513639,8.797540873219488e-05
-0.48894734573186727,-0.48894734573186727,1.0002827516388528,9.250125563852044e-05
-0.4888579731807113,-0.4888579731807113,0.999952772454195,8.697596711842865e-05
-0.48881936963589395,-0.48881936963589395,0.9998867412971816,8.759707948029872e-05
-0.4886863140513015,-0.4886863140513015,1.000095842724446,8.897454165939157e-05
-0.4884567622182658,-0.4884567622182658,1.0000264290516045,8.719394860577504e-05
-0.48826961227605353,-0.48826961227605353,1.0000121979864665,9.058853044235219e-05
-0.48818340860525494,-0.48818340860525494,0.9999190702597807,8.695892486537014e-05
-0.4879908657152555,-0.4879908657152555,0.9999007757065129,8.782720229809494e-05
-0.48785330264654475,-0.48785330264654475,1.0001241580604723,8.639314663008741e-05
-0.4876774718417437,-0.4876774718417437,1.0000503038687838,8.822028093809671e-05
-0.4875808195800346,-0.4875808195800346,0.9999358969183616,8.712400866194519e-05
-0.48744741860355134,-0.48744741860355134,1.0000432054190007,8.688453889570667e-05
-0.4873477655077295,-0.4873477655077295,0.9999871327474752,8.574573474176586e-05
-0.48728843175267683,-0.48728843175267683,0.9999505927200485,9.107079919506006e-05
-0.48712140150601047,-0.48712140150601047,0.9999781095732526,9.015568020721622e-05
-0.4869734168445575,-0.4869734168445575,0.9999417185425636,8.583612353842786e-05
-0.48689875766649493,-0.48689875766649493,1.0000852024970484,8.819102990338639e-05
-0.48682147126310155,-0.48682147126310155,0.9999638147835036,8.65743691707552e-05
-0.4867404327713302,-0.4867404327713302,1.0002170218411792,8.902629029633856e-05
-0.4866053237528831,-0.4866053237528831,0.9999873436551064,9.116949292155715e-05
-0.48640542171051493,-0.48640542171051493,1.0000062290102583,8.539443717417368e-05
-0.4862563134833181,-0.4862563134833181,0.99993848477345,8.828525692337881e-05
-0.4862134926042927,-0.4862134926042927,1.0000862793138576,8.911697142410815e-05
-0.486127315385238,-0.486127315385238,0.9999044775838257,8.624244402554328e-05
-0.48597017434294687,-0.48597017434294687,0.999943180890153,8.7459570195129e-05
-0.48587804961207437,-0.48587804961207437,0.9998699241650136,8.822412626155396e-05
-0.4857361120688438,-0.4857361120688438,1.0000585455231794,8.831326424214102e-05
-0.4855819513933966,-0.4855819513933966,0.9998554277423397,8.649648566178781e-05
-0.4854837520280853,-0.4854837520280853,0.9998155139641349,8.699966277648185e-05
-0.4853931237041252,-0.4853931237041252,0.9998638114315582,8.769043336935781e-05
-0.485295390234387,-0.485295390234387,0.9999746798558901,8.951226930415575e-05
-0.48519132157307465,-0.48519132157307465,0.9999665863883322,8.680616131427785e-05
-0.4850561741513957,-0.4850561741513957,0.9999639375529895,8.953102001298105e-05
-0.4849056119586749,-0.4849056119586749,0.9999657930858273,8.787671097886875e-05
-0.4848238467282499,-0.4848238467282499,1.0000399745961077,8.758952547010016e-05
-0.48471688794961665,-0.48471688794961665,0.9999430459320651,8.624067956352003e-05
-0.48459161466889783,-0.48459161466889783,1.0000315426151813,8.861425212464988e-05
-0.48446373124024833,-0.48446373124024833,0.9999241942466408,8.8436040577064e-05
-0.4843099008256104,-0.4843099008256104,1.000194270389812,8.613469992922303e-05
-0.48420315814655623,-0.48420315814655623,0.9998909360487236,9.382319586141002e-05
-0.4841052544019476,-0.4841052544019476,0.9999891965819071,8.808754186739205e-05
-0.4840419548250793,-0.4840419548250793,0.9999777566713159,8.757260247510315e-05
-0.48390342178900025,-0.48390342178900025,1.0000419204856201,9.042443128364844e-05
-0.4837069097957283,-0.4837069097957283,1.0000114299559757,8.951510132399634e-05
-0.48351399135717654,-0.48351399135717654,1.0000000130322921,8.948619073264247e-05
-0.4834607744989626,-0.4834607744989626,0.9998356684854622,8.686032677916311e-05
-0.4833169619196269,-0.4833169619196269,1.0001367083395962,8.796407564581593e-05
-0.4831679846283805,-0.4831679846283805,1.0000277873689414,8.709601978599478e-05
-0.48306204753680504,-0.48306204753680504,1.0001192229732105,8.637988716209636e-05
-0.4828771445980237,-0.4828771445980237,1.0001043003903667,8.738734772109078e-05
-0.4828051679287455,-0.4828051679287455,0.999984075051729,9.008769072750753e-05
-0.48266691851531507,-0.48266691851531507,0.9999494458164904,8.492092111568281e-05
-0.4825628252729075,-0.4825628252729075,1.000071583779053,8.624437357648219e-05
-0.48249500824967984,-0.48249500824967984,1.0000291719904348,9.122115267808776e-05
-0.48226875186519463,-0.48226875186519463,1.0001105141947364,8.737790668826017e-05
-0.48213867233425844,-0.48213867233425844,1.0001512244817747,8.899802847062385e-05
-0.4820502571565157,-0.4820502571565157,0.9999796953625756,8.560060438411062e-05
-0.48197851922523116,-0.48197851922523116,1.0000970475567759,8.898821928022646e-05
-0.48185116649328846,-0.48185116649328846,0.9999849003792093,8.979171833693262e-05
-0.4816906971456774,-0.4816906971456774,1.0000542013547455,8.794305016638405e-05
-0.48149228465917987,-0.48149228465917987,1.0000104304296518,8.832806641032094e-05
-0.4814335351882619,-0.4814335351882619,1.0001628903949293,8.753799641081345e-05
-0.4813468081265455,-0.4813468081265455,0.9999422785940839,8.787391666779961e-05
-0.48117964181728895,-0.48117964181728895,1.000118595296144,8.750890352322477e-05
-0.4810603405647271,-0.4810603405647271,0.9999719244766687,9.062367227387218e-05
-0.4808976775952033,-0.4808976775952033,0.9999342303981689,8.606805121606523e-05
-0.4807386191547266,-0.4807386191547266,1.000068262609858,8.685549751456443e-05
-0.4806006171696936,-0.4806006171696936,0.9998410326618759,8.696136475254355e-05
-0.4804816710013256,-0.4804816710013256,1.000011484528081,8.986851119029959e-05
-0.48039937465073307,-0.48039937465073307,0.9998236987731808,8.903004280734246e-05
-0.48028348372317853,-0.48028348372317853,1.0000398080445758,9.052406154533471e-05
-0.48013340432371476,-0.48013340432371476,1.0000883626798198,8.752874720654464e-05
-0.4800626562886464,-0.4800626562886464,1.0001360320568595,8.931481176555856e-05
-0.4799518880616233,-0.4799518880616233,0.9998909754057795,8.787420678476918e-05
-0.4798192037931585,-0.4798192037931585,1.0000997009467407,8.705541287827818e-05
-0.4796739378769416,-0.4796739378769416,1.000048077243134,8.793219435958948e-05
-0.47953302301757506,-0.47953302301757506,1.0000049909362723,8.56994988352058e-05
-0.4794376895559253,-0.4794376895559253,1.0001498625656662,9.337275524500224e-05
-0.4793406072712969,-0.4793406072712969,0.9999536177970961,8.715119851997679e-05
-0.4792585320414219,-0.4792585320414219,1.0000732927456268,8.699792111876635e-05
-0.47916905380479874,-0.47916905380479874,0.9999461304648494,9.047523572834292e-05
-0.47902258474205156,-0.47902258474205156,0.9999451098368697,8.983291801888732e-05
-0.4788731160319003,-0.4788731160319003,1.0000330104276012,8.887009129751781e-05
-0.47867717543631444,-0.47867717543631444,0.999861270262766,8.712315270489963e-05
-0.4786013813863974,-0.4786013813863974,0.9999751454850303,8.915524421617351e-05
-0.47845364700842763,-0.47845364700842763,1.000034914645354,8.8296799401459e-05
-0.4783410982512578,-0.4783410982512578,1.0000953333058242,8.548140240060623e-05
-0.47817051480378725,-0.47817051480378725,0.9999456702192454,8.694455875463842e-05
-0.4780456729400612,-0.4780456729400612,1.0001627357912801,8.658180024664638e-05
-0.4779791941138683,-0.4779791941138683,1.0000654273599001,9.05057368992694e-05
-0.4778628354950342,-0.4778628354950342,0.9999894416718675,8.482191460856501e-05
-0.4777677913167281,-0.4777677913167281,0.9998865096355246,8.465948471778779e-05
-0.4776587502587063,-0.4776587502587063,1.0000152358334948,9.307510112218219e-05
-0.4773995944568014,-0.4773995944568014,1.000126196480565,8.627681587324207e-05
-0.4772991190657194,-0.4772991190657194,0.9998643694570226,8.765308012060465e-05
-0.47721319936827056,-0.47721319936827056,0.9999868565421123,8.658601307060618e-05
-0.47710722513656945,-0.47710722513656945,1.000103208941198,8.929004714018713e-05
-0.4769528165452357,-0.4769528165452357,0.9999510630793175,8.8339841421225e-05
-0.47680950016729184,-0.47680950016729184,1.0002087482053283,8.723813191697992e-05
-0.4766735470417188,-0.4766735470417188,1.00009168370938,8.954108048916286e-05
-0.4765902795144939,-0.4765902795144939,0.9999107373431221,8.82646340426316e-05
-0.47647957771769145,-0.47647957771769145,1.0000526146681685,8.740884861356e-05
-0.476347619642911,-0.476347619642911,1.000082854180818,8.717634397776997e-05
-0.4762134215088736,-0.4762134215088736,0.9998261736575051,9.205320823176113e-05
-0.4760042500682175,-0.4760042500682175,0.9999592561473649,8.69320851693588e-05
-0.4758248510515841,-0.4758248510515841,0.9998692631399969,8.734314264931156e-05
-0.47574411860405236,-0.47574411860405236,1.000024129925675,8.982727056712202e-05
-0.4756450720320572,-0.4756450720320572,0.9999342340972672,8.889855599722328e-05
-0.4755341500298528,-0.4755341500298528,1.0000691860465525,8.86322349702273e-05
-0.47533354591068927,-0.47533354591068927,1.0000260742382583,8.760359221964712e-05
-0.4751985057373531,-0.4751985057373531,1.0000994570885606,8.896498836766234e-05
-0.47502528431868996,-0.47502528431868996,0.9998153782413306,8.733856477379562e-05
-0.4749303411605069,-0.4749303411605069,1.0000035792169804,8.954270775071187e-05
-0.47477852020019784,-0.47477852020019784,0.9998971618483845,8.567723684264219e-05
-0.47466096499993,-0.47466096499993,0.999988600785548,8.874610157127883e-05
-0.47458265981695147,-0.47458265981695147,0.999899179510024,9.275612086770008e-05
-0.4745033697312465,-0.4745033697312465,1.0000903450736356,8.539481884955857e-05
-0.47442809444037265,-0.47442809444037265,1.0000537103352394,8.815913374767202e-05
-0.474288384510146,-0.474288384510146,0.9999493395243952,8.882442563073e-05
-0.4741943677501695,-0.4741943677501695,1.0001077318874971,8.875339483062339e-05
-0.47410370255602174,-0.47410370255602174,1.0001958968427331,8.885884339424088e-05
-0.4738944880235067,-0.4738944880235067,0.9998579731534603,8.609833776183172e-05
-0.4738217830286885,-0.4738217830286885,1.0000121844029835,9.059531385418375e-05
-0.47362783327916985,-0.47362783327916985,1.0000609724816911,8.710181906435426e-05
-0.4735471975436667,-0.4735471975436667,1.0000079141498714,8.652046449467835e-05
-0.47341298458777603,-0.47341298458777603,1.0000997221718304,8.846974042418358e-05
-0.4732671165678767,-0.4732671165678767,1.0000166495239513,8.736728512158587e-05
-0.4731963455349614,-0.4731963455349614,0.999943235571984,9.049842882512328e-05
-0.47306590503940243,-0.47306590503940243,0.9999887686639743,8.54865068002658e-05
-0.472966332105716,-0.472966332105716,0.9999696591584426,8.424719850508545e-05
-0.4728882809045899,-0.4728882809045899,0.9999307683695984,9.080287258644436e-05
-0.4727098883493454,-0.4727098883493454,0.9998622922341687,8.880103349968366e-05
-0.4725566148757935,-0.4725566148757935,1.0000169279948126,8.938929499780062e-05
-0.4724664704997849,-0.4724664704997849,0.9999627651879056,8.573605280732932e-05
-0.4723926176397072,-0.4723926176397072,0.9999735845650075,8.776127743451056e-05
-0.47232687905125204,-0.47232687905125204,0.9999087054673863,8.715332725870624e-05
-0.4721722088906972,-0.4721722088906972,1.000001146226883,8.644737276232317e-05
-0.4720767527731368,-0.4720767527731368,0.9999933552072082,8.816533666096435e-05
-0.4719146422314225,-0.4719146422314225,0.9999259576024702,8.933667129003345e-05
-0.47183545567677354,-0.47183545567677354,0.9999435346190257,9.018608417118857e-05
-0.47174733215942977,-0.47174733215942977,1.000027941005505,8.626414577772874e-05
-0.4715985097558587,-0.4715985097558587,0.999990987515248,8.754772215324577e-05
-0.47147468277835286,-0.47147468277835286,1.0000629330325093,8.910737522698997e-05
-0.47135806353398946,-0.47135806353398946,0.9999976365567941,9.234559835714088e-05
-0.47122363520829824,-0.47122363520829824,1.0001183327914087,8.76047502804459e-05
-0.4710277504986152,-0.4710277504986152,1.0000613578253246,8.706270742289224e-05
-0.47093470173203966,-0.47093470173203966,1.0000688953454209,9.061267831103026e-05
-0.47083826868838513,-0.47083826868838513,1.000021929576383,8.858229315808628e-05
-0.47074912858151946,-0.47074912858151946,0.9998453364488427,9.012391276957491e-05
-0.47058494673765383,-0.47058494673765383,1.0001713217025747,8.889845866831028e-05
-0.4704389737220481,-0.4704389737220481,1.0000405704311732,8.852563711929588e-05
-0.4702741359273205,-0.4702741359273205,0.999974569301548,8.995144811457425e-05
-0.47016534791036974,-0.47016534791036974,0.9999124039287792,8.767971865790249e-05
-0.47002742386175667,-0.47002742386175667,1.0001390823938467,8.652208202071991e-05
-0.46990594333183255,-0.46990594333183255,1.0000217400795903,8.800666588997093e-05
-0.4697915737204312,-0.4697915737204312,1.0002626622967725,8.822639437345694e-05
-0.4696831526045571,-0.4696831526045571,1.0000295130562797,8.677168656499003e-05
-0.4695821735418576,-0.4695821735418576,0.9999105660406737,8.809850438055626e-05
