time,time,flux,flux_err
-0.4998574271612597,-0.4998574271612597,0.9999986431527388,0.00016188679453244887
-0.49954565258106715,-0.49954565258106715,0.9998908234318481,0.0001527433683600873
-0.4993730836235045,-0.4993730836235045,1.0000842193730137,0.00014087699057032651
-0.49924046915712095,-0.49924046915712095,0.9999854147463662,0.00013526162780826403
-0.4989919325555093,-0.4989919325555093,0.9999089054141255,0.0001380663475984607
-0.49871527177037933,-0.49871527177037933,1.0000328299356003,0.00013104033369086467
-0.49824749435993,-0.49824749435993,0.999984609539806,0.00013566585379157505
-0.4971195420015647,-0.4971195420015647,0.9999559201183746,0.00013549785347183996
-0.49633982282957734,-0.49633982282957734,1.0000740037319453,0.00014221267981185537
-0.4956847367779119,-0.4956847367779119,1.0000025753760884,0.00013505003376778339
-0.49543539560891076,-0.49543539560891076,0.9998570917037515,0.00014614427089957682
-0.495291108830861,-0.495291108830861,0.999903484067244,0.00013161613801653674
-0.4951701393471012,-0.4951701393471012,1.0000368609118193,0.0001399164494124242
-0.4949998569485615,-0.4949998569485615,0.9998308664572271,0.00014170080926803158
-0.49470446568066107,-0.49470446568066107,1.000006875984875,0.00014351133485975657
-0.4945162109062949,-0.4945162109062949,1.0000067734033407,0.0001422935455738445
-0.49433381599174026,-0.49433381599174026,0.9999319497048539,0.0001407613876341987
-0.49410050161313845,-0.49410050161313845,1.0010554832422316,0.00018157580359132663
-0.49380498131158673,-0.49380498131158673,0.9999594203983857,0.00013531562855525182
-0.4936728702423352,-0.4936728702423352,1.0000019087457859,0.00013071419591247023
-0.49338083600596294,-0.49338083600596294,1.0000831481062071,0.0001333526358759434
-0.493004876849227,-0.493004876849227,1.0001099238082067,0.00013562037823041732
-0.49204865530264214,-0.49204865530264214,1.0000767305708425,0.00013464344712874532
-0.4912911116582109,-0.4912911116582109,0.9998711978332839,0.00014048339531794532
-0.4905545175421139,-0.4905545175421139,0.9999920535560891,0.0001396626477033561
-0.4901808596510818,-0.4901808596510818,1.0000663827783807,0.00014860518981072403
-0.49000121077806397,-0.49000121077806397,1.000081603958716,0.00014151300667461508
-0.4898619832651093,-0.4898619832651093,1.0000427954662572,0.00013550377908081343
-0.4897148519530674,-0.4897148519530674,1.000054785662233,0.00014183477588846995
-0.4895593625415131,-0.4895593625415131,1.0003492214750596,0.00014006369720480623
-0.4894024295756026,-0.4894024295756026,1.0001397208922795,0.00014042497180264286
-0.48921084545036136,-0.48921084545036136,0.9998756761684635,0.00014224990283641807
-0.48901610104421706,-0.48901610104421706,0.9997767179213166,0.00014125835351803682
-0.48883096975278023,-0.48883096975278023,1.000034508448099,0.00014892243150891961
-0.4887123107639127,-0.4887123107639127,1.000166386729584,0.00013508448204970516
-0.48835844071090834,-0.48835844071090834,0.9998086317545665,0.00013409624746398883
-0.4880977396915114,-0.4880977396915114,1.000221318713105,0.00013441446338595167
-0.4872435806086287,-0.4872435806086287,1.0002111745853945,0.0001338468837143368
-0.4859150815458634,-0.4859150815458634,0.9999218843392231,0.0001420222514770028
-0.4855789365439705,-0.4855789365439705,1.0000440339947323,0.00014041747776675793
-0.48508131464914184,-0.48508131464914184,1.0000573217917945,0.00013460988850050288
-0.484915985047337,-0.484915985047337,1.0000667311659375,0.00014353671126483882
-0.48473186960891324,-0.48473186960891324,1.0001957762586013,0.00014488971133447558
-0.4845497326945406,-0.4845497326945406,0.9998920782259365,0.00014033376997538803
-0.4843774939959985,-0.4843774939959985,0.9998517955932407,0.00013914229191438698
-0.4841596508367729,-0.4841596508367729,0.9999810972696228,0.00013895334567323435
-0.484002620400679,-0.484002620400679,0.9999796825268958,0.00013276658114361948
-0.48383517589463737,-0.48383517589463737,1.000031866116845,0.0001409020386937197
-0.4835769344646906,-0.4835769344646906,0.9997672931676643,0.00013135711795559898
-0.48327582414749487,-0.48327582414749487,1.0001420479913787,0.00013705026273449247
-0.4829493194478346,-0.4829493194478346,0.999925841062824,0.00013182346907499124
-0.4824988231832322,-0.4824988231832322,0.9999654096331574,0.0001354070882814106
-0.48165739703690635,-0.48165739703690635,1.0000975981982632,0.00013196624802365255
-0.4809228044867268,-0.4809228044867268,0.9999035046974016,0.00014268861806550364
-0.48043676964225596,-0.48043676964225596,0.9999941670973932,0.000138311968409459
-0.4799008308742486,-0.4799008308742486,0.9998641083182871,0.00013945639131697542
-0.47973377436192094,-0.47973377436192094,0.9998867872251788,0.00014744387927529497
-0.47951878696021594,-0.47951878696021594,0.9998568078592909,0.00014483665156972503
-0.4793199519161135,-0.4793199519161135,0.9998448606897549,0.00014402435106180598
-0.4791440100689215,-0.4791440100689215,1.0000855534836275,0.0001406943871251121
-0.479031534443493,-0.479031534443493,1.0001792768675979,0.0001376507217961347
-0.4789068970385415,-0.4789068970385415,0.9999889302245155,0.00013998515538578093
-0.47882047547409456,-0.47882047547409456,0.9997110139974055,0.0001390320609849033
-0.4786800613872401,-0.4786800613872401,0.9999359290071264,0.00014645031936216015
-0.478449740704491,-0.478449740704491,0.9998117336579424,0.00014050761647312502
-0.4782451972403578,-0.4782451972403578,0.999934453021664,0.0001319458569745881
-0.47793469657353854,-0.47793469657353854,1.000124095706932,0.0001363889216539549
-0.4777586918180532,-0.4777586918180532,0.999875808423389,0.00012684171059110515
-0.47747537432424,-0.47747537432424,0.9998632316714542,0.00013711226918144176
-0.4770029755651194,-0.4770029755651194,1.0000384045454145,0.00013369705468823566
-0.47619590451777183,-0.47619590451777183,1.000158438058282,0.00013364074804627393
-0.47558836257067016,-0.47558836257067016,1.0000787654197345,0.00014097887317609262
-0.4750798700397354,-0.4750798700397354,1.0000803606160429,0.00013578813458599593
-0.4746807972411261,-0.4746807972411261,1.0000238093606786,0.00014543693653254795
-0.4744801627866764,-0.4744801627866764,0.9999552246446382,0.00014725974954611344
-0.4743269012997189,-0.4743269012997189,1.0000991814021416,0.00014706161160518567
-0.4741360539403104,-0.4741360539403104,1.0001308914456817,0.0001426331933821056
-0.4738421559673952,-0.4738421559673952,1.0000345930741603,0.00014644558322057707
-0.47356430379732045,-0.47356430379732045,1.000035366802722,0.0001464580850467817
-0.4733632859735735,-0.4733632859735735,1.0000147948512317,0.00014076912846670814
-0.4731809646453257,-0.4731809646453257,1.0000178630072054,0.00013895745956779345
-0.4728923209777349,-0.4728923209777349,0.9998564735706967,0.0001373183190163122
-0.4726066959285163,-0.4726066959285163,0.9999585229760676,0.00012983997547978487
-0.4720309143847771,-0.4720309143847771,1.0000352703170874,0.00013538196634623243
-0.47108936945969615,-0.47108936945969615,0.9998198276974776,0.0001338192264230122
-0.4704612723653554,-0.4704612723653554,0.999757617085464,0.0001412773218390634
-0.4697294941681321,-0.4697294941681321,1.0000860138073278,0.0001382328098562771
-0.46942204643146396,-0.46942204643146396,1.0002227396361734,0.0001404685430275309
-0.46929398544525613,-0.46929398544525613,0.9999765325878162,0.00013915132012839987
-0.46916493760254524,-0.46916493760254524,1.0000281159813895,0.00013155520101539698
-0.46904352782657954,-0.46904352782657954,1.0000593977176488,0.00014370889548356565
-0.4688225734720618,-0.4688225734720618,0.999924097595264,0.00014582579690905435
-0.46857271885291996,-0.46857271885291996,0.9999402881691472,0.0001419986101117632
-0.4684543016895987,-0.4684543016895987,0.9999470978875102,0.00013625291755410145
-0.46823022034695894,-0.46823022034695894,0.9999239939199015,0.00014394809237952406
-0.4680320428249615,-0.4680320428249615,1.0011459993040743,0.00018126110657059978
-0.4677448087641096,-0.4677448087641096,1.000090310159367,0.00013159876540558637
-0.4675875592414741,-0.4675875592414741,1.000088037582773,0.00013362936400309754
-0.4672744518637046,-0.4672744518637046,0.9999190634445123,0.0001330509723226992
-0.4669621787234064,-0.4669621787234064,1.00002642747689,0.00013562462106859658
-0.46606885459896147,-0.46606885459896147,0.9999787135048754,0.00013196508786235452
-0.46534451004881705,-0.46534451004881705,0.9999284788730678,0.0001429413939249108
-0.4644534965576895,-0.4644534965576895,0.9998634952974796,0.0001424516206136177
-0.4641008087697628,-0.4641008087697628,0.9998343216039242,0.00014443351913305086
-0.46391765139705965,-0.46391765139705965,1.0000394020373158,0.00014569435136443392
-0.46376681852798357,-0.46376681852798357,1.0001342007342746,0.0001418074132951788
-0.46360556995387014,-0.46360556995387014,0.9998936833868429,0.00013794156634336783
-0.463456490191129,-0.463456490191129,0.9998348538696433,0.00013454001592186742
-0.4632941894895339,-0.4632941894895339,0.999965461302574,0.00014229570966369813
-0.4630700558271201,-0.4630700558271201,1.0001633100534106,0.00014646830839641273
-0.4628827108128462,-0.4628827108128462,0.9999674624786516,0.0001363734393470608
-0.4627568669176981,-0.4627568669176981,1.0000492789458322,0.00015265138438389872
-0.46263621613270517,-0.46263621613270517,1.0001209947940668,0.00013554153997393062
-0.4623017670117406,-0.4623017670117406,1.0000324953015665,0.00013407568973829945
-0.4620551811363839,-0.4620551811363839,1.0000900151236691,0.00013440487491519349
-0.46120075394701415,-0.46120075394701415,0.9998895753778404,0.00013381392483987348
-0.45999098471838806,-0.45999098471838806,0.9999179085544935,0.00014169800112179338
-0.4595444140990367,-0.4595444140990367,0.9999865732310631,0.0001404684693261808
-0.4590389807492102,-0.4590389807492102,0.9996250920167835,0.0001346130605002278
-0.45887383308854623,-0.45887383308854623,1.0001874842552205,0.00014351557171245804
-0.45865765345097315,-0.45865765345097315,0.9999189668840511,0.00014708284345143086
-0.45846781445616214,-0.45846781445616214,1.000031531377305,0.00013952271750255417
-0.4582490806622445,-0.4582490806622445,1.0001851556167956,0.00014499942423042085
-0.45804971851684967,-0.45804971851684967,0.9998954456216513,0.00013106064466505076
-0.45790962797018436,-0.45790962797018436,0.9998748407098198,0.00014234737256046284
-0.4577349856266665,-0.4577349856266665,1.000145826426659,0.0001330406547403133
-0.45753474496868873,-0.45753474496868873,1.0000747043528446,0.00013136395592876506
-0.45728841419986566,-0.45728841419986566,1.0001290300442158,0.00013411222369389612
-0.45697598373790244,-0.45697598373790244,1.0000173809431447,0.00013295640442938727
-0.4565848025573359,-0.4565848025573359,0.9998485679623637,0.00013562516835266073
-0.45579350940079166,-0.45579350940079166,0.9999495941109713,0.00013553736126930644
-0.4549908146851521,-0.4549908146851521,0.9999524380390372,0.00014273031856643423
-0.4541698696333697,-0.4541698696333697,1.0001318233268683,0.0001362357233537806
-0.45378372032937475,-0.45378372032937475,1.0001224398181066,0.00014358807050816828
-0.45366475872233425,-0.45366475872233425,1.0002476912471134,0.00014742406106322815
-0.45342534522296774,-0.45342534522296774,0.9997884405799426,0.00014486671604025682
-0.453237393652671,-0.453237393652671,1.000037794051464,0.0001441158737366136
-0.45307689996134287,-0.45307689996134287,0.9999449221676766,0.00013479068945952748
-0.4529648078867467,-0.4529648078867467,1.0001308225359982,0.0001391561128148078
-0.4528242247819435,-0.4528242247819435,1.000227900934319,0.0001406346814370021
-0.4527149328525411,-0.4527149328525411,0.9999977583953846,0.00014229642989240654
-0.4524971741491754,-0.4524971741491754,0.9999075964073075,0.00014885684934540984
-0.4523096067581719,-0.4523096067581719,0.9999926626236508,0.00013719999957975307
-0.4521106343738211,-0.4521106343738211,0.9998279843674316,0.00013109713202174808
-0.45178317189165684,-0.45178317189165684,1.0000384314409343,0.00013033838401285374
-0.45163696658146363,-0.45163696658146363,1.0001196774910415,0.00013220056863982228
-0.4512892351121991,-0.4512892351121991,1.000028035255736,0.00013558306335123132
-0.4505128877444804,-0.4505128877444804,0.9998897741552403,0.00013531480296985205
-0.4496604956013471,-0.4496604956013471,1.0000838733152517,0.00014257088961103345
-0.4490973689189559,-0.4490973689189559,0.999930287068476,0.00013777735635933156
-0.4486569062095441,-0.4486569062095441,0.9999412173509228,0.00014281299433794765
-0.4484794116578996,-0.4484794116578996,0.999922227998572,0.000141919037058743
-0.4483592078699076,-0.4483592078699076,0.9999929168561232,0.0001448429019238921
-0.4482079126586541,-0.4482079126586541,0.9999044211666538,0.00014217061703031302
-0.4479838542616562,-0.4479838542616562,1.0000235460301923,0.00014611964817428166
-0.44768349401929297,-0.44768349401929297,0.9998283590415447,0.00014946701037832035
-0.4474350541786407,-0.4474350541786407,0.999853555070754,0.00014072814961992855
-0.44726038812059415,-0.44726038812059415,1.0000391804167137,0.00014076597810300768
-0.44703323232406544,-0.44703323232406544,0.9999849283169086,0.00013876976518083377
-0.44675858189439166,-0.44675858189439166,1.0001830803766363,0.00013420510050160948
-0.4465008517248862,-0.4465008517248862,0.9999049291901235,0.00013237512649854634
-0.44576564766721277,-0.44576564766721277,0.9999038524156983,0.00013455591520519227
-0.4446679712287732,-0.4446679712287732,1.0000705281712592,0.0001380566021279215
-0.44412486254768735,-0.44412486254768735,1.0000287487784028,0.00014017770580497898
-0.44353566663539823,-0.44353566663539823,0.9999203153546488,0.00013484499759390474
-0.44331970850780633,-0.44331970850780633,0.9999499617423859,0.00014343757995784385
-0.4431470532525054,-0.4431470532525054,0.999899440367692,0.0001376131221444163
-0.4430010626243529,-0.4430010626243529,1.0000352535569406,0.0001437070974853804
-0.4427856386630083,-0.4427856386630083,0.9998648225929527,0.00014577828038375568
-0.4425303203335716,-0.4425303203335716,1.000017852408951,0.00014199470366844325
-0.44241188616033467,-0.44241188616033467,1.0001445539100622,0.00013626767921425824
-0.44221264162515583,-0.44221264162515583,0.9999040180075747,0.00014237004917681129
-0.44204320664794067,-0.44204320664794067,1.000061040822035,0.00014378005004072345
-0.44182532512404576,-0.44182532512404576,1.0018521777377203,0.00017669966084375553
-0.44165343099612075,-0.44165343099612075,0.9999360447886584,0.0001284458095435609
-0.441408749427319,-0.441408749427319,0.999970841097678,0.00013616034785879995
-0.4411620451681301,-0.4411620451681301,1.0000412743024032,0.00013226268661948584
-0.440607162914057,-0.440607162914057,0.9997311713953364,0.00013456645762444265
-0.43958412517076795,-0.43958412517076795,1.0000878095983725,0.00013881646602326769
-0.43881692566574204,-0.43881692566574204,1.000061972474906,0.0001381509605484018
-0.43822663082009966,-0.43822663082009966,0.9999578272783008,0.00014601394902300212
-0.4379774126882694,-0.4379774126882694,1.0001880923359998,0.00014737963256970457
-0.4377770164777758,-0.4377770164777758,1.0000635368013653,0.00013549216392728597
-0.43762282768639127,-0.43762282768639127,0.9999039400477482,0.0001474947408034017
-0.4374489605841518,-0.4374489605841518,0.999970400056512,0.00013403897574316566
-0.43728782153393697,-0.43728782153393697,0.9998229213878858,0.00014188653891754923
-0.4370747974908227,-0.4370747974908227,0.9998003785426886,0.00014398609024927916
-0.4368284080053854,-0.4368284080053854,0.9999529599130556,0.00014483258681217162
-0.43668390655439,-0.43668390655439,0.9999476500986795,0.00014579773298773805
-0.4364856617041369,-0.4364856617041369,1.0000159572101128,0.00013496123593364966
-0.43621185421379777,-0.43621185421379777,1.0000880512929826,0.0001333806288827645
-0.43593762339205566,-0.43593762339205566,1.000024823034294,0.00013406382962375798
-0.43513979332055897,-0.43513979332055897,1.0001852839076348,0.0001320164586701179
-0.433974685316025,-0.433974685316025,1.0001618807964348,0.0001386572545889557
-0.43350162484348403,-0.43350162484348403,0.9999233603754755,0.00014042091460760115
-0.43305944136081964,-0.43305944136081964,1.0000504201664366,0.0001376671603137173
-0.43287192431926086,-0.43287192431926086,0.9999233065155266,0.00013778252381510368
-0.4326906108206458,-0.4326906108206458,0.9998917564692424,0.000141458636853561
-0.4325308306364605,-0.4325308306364605,0.9999261600474287,0.0001458039603124431
-0.43235255209565365,-0.43235255209565365,1.0000713277384947,0.00013937229171970446
-0.4321140529131299,-0.4321140529131299,0.9998827177544218,0.00013895440379268394
-0.43194077906082384,-0.43194077906082384,1.0001170837634512,0.00013726287526294228
-0.4318044401554289,-0.4318044401554289,0.9998488761664129,0.0001380453951977604
-0.43162786354678245,-0.43162786354678245,0.9999365658640673,0.00013751269599281867
-0.43133244773634943,-0.43133244773634943,1.0001169885429357,0.00013159398906320942
-0.43097146660929864,-0.43097146660929864,0.9998826275730298,0.00013331259796599008
-0.43057037590569963,-0.43057037590569963,0.9999906497438152,0.0001338975031127375
-0.4299103150871815,-0.4299103150871815,0.9999146742251757,0.00013370769838885044
-0.4289480001396441,-0.4289480001396441,1.0001347771778468,0.0001426985025948776
-0.4282533987898205,-0.4282533987898205,0.9998787463543521,0.00013799689285671536
-0.42777471120152766,-0.42777471120152766,0.9999950008881221,0.0001397673288299644
-0.4276490998989175,-0.4276490998989175,0.9999048876962601,0.0001474136146920357
-0.4274214282697358,-0.4274214282697358,1.0000785885256633,0.00015040835539264404
-0.4272044427689252,-0.4272044427689252,1.0000539079085673,0.00013824825099433696
-0.4270590519514371,-0.4270590519514371,1.0000999135682445,0.00014073902721958175
-0.426947182074764,-0.426947182074764,0.9999639339957866,0.00013763807562093506
-0.4268069314990498,-0.4268069314990498,0.9997615896263243,0.00014225517268091336
-0.4267013650687659,-0.4267013650687659,1.0000642246174687,0.00013892392202382312
-0.4265197437583993,-0.4265197437583993,1.0002733327427866,0.00014398886264491557
-0.42631778083523386,-0.42631778083523386,0.999876172329387,0.0001433977667082117
-0.42606823733458443,-0.42606823733458443,0.999889458558352,0.00013111054844746424
-0.42573161307918783,-0.42573161307918783,1.0000469348635843,0.0001303480440191835
-0.42553983776979293,-0.42553983776979293,0.9999556833313392,0.0001341547716608382
-0.42523912039832795,-0.42523912039832795,0.9999722692633437,0.00013378034775984976
-0.42447008205872405,-0.42447008205872405,1.0000748854933448,0.00013533709067704104
-0.4236577792784374,-0.4236577792784374,1.000093151545205,0.0001397534450218997
-0.42315891952439416,-0.42315891952439416,0.9999397883960933,0.00013873873507287013
-0.42270193594140437,-0.42270193594140437,0.9999206019566478,0.00013867889275143115
-0.4224867731194536,-0.4224867731194536,1.0001362066756565,0.0001433911268718836
-0.422332429621747,-0.422332429621747,0.9998767679057619,0.0001472201901949466
-0.4221840025655183,-0.4221840025655183,1.0002008610263622,0.00014554830412345966
-0.4220682557006512,-0.4220682557006512,0.9998221011479457,0.00014365194987742898
-0.4218209181166458,-0.4218209181166458,1.000056552874355,0.00014575603293688508
-0.42152930852553255,-0.42152930852553255,1.0000385092683695,0.00014380012307284835
-0.42132082141524735,-0.42132082141524735,0.9998762566919572,0.00014082325176749492
-0.42110399622888506,-0.42110399622888506,1.0000344244705908,0.0001416564610101908
-0.4208220846401673,-0.4208220846401673,0.9999675934493139,0.00013433176256891322
-0.4205884529339528,-0.4205884529339528,0.9998365241427971,0.00013103657805216084
-0.4201193806147785,-0.4201193806147785,0.9999479702755039,0.0001356553472815682
-0.41919392770869307,-0.41919392770869307,1.0000156329082623,0.00013330118548756962
-0.4184636254451107,-0.4184636254451107,1.0001635815499852,0.00013893622841692615
-0.4178175082206508,-0.4178175082206508,0.9998727381055323,0.00013800636368384772
