time,time,flux,flux_err
-0.1441040109648535,-0.1441040109648535,0.9999799151785282,0.00017670241933601135
-0.14405052681239358,-0.14405052681239358,0.9999475433047763,0.00016150135171629176
-0.14400190484783498,-0.14400190484783498,0.9999388153834406,0.0001617612154399686
-0.1439532828762662,-0.1439532828762662,1.0000056432609123,0.00016202671547381023
-0.14390466089795248,-0.14390466089795248,0.9999648892164524,0.0001622715991057597
-0.14385603891316348,-0.14385603891316348,1.0001029682052582,0.0001625532085700911
-0.14380741692216667,-0.14380741692216667,0.9998762392194049,0.00016284824343976986
-0.14375879492522245,-0.14375879492522245,1.0001831466189313,0.0001631638319778987
-0.14371017292258617,-0.14371017292258617,0.9998873103416761,0.00016339487006036805
-0.1436615509145091,-0.1436615509145091,0.9999509695903924,0.00016354220038157654
-0.14361292890122868,-0.14361292890122868,1.000129607937637,0.00016359374484704113
-0.14356430688298225,-0.14356430688298225,1.000019337864749,0.00016365418716394287
-0.14351568485999405,-0.14351568485999405,1.0000011543124505,0.00016378347252634653
-0.14346706283247795,-0.14346706283247795,1.0000109414080571,0.0001639671750281638
-0.1434184408006423,-0.1434184408006423,1.0000026175753702,0.0001641299616473429
-0.14336981876468408,-0.14336981876468408,1.0000302902566074,0.0001642069551139221
-0.14332119672479196,-0.14332119672479196,0.9999547625107912,0.0001641283313143839
-0.14327257468114613,-0.14327257468114613,1.0000857975925537,0.00016399644186978183
-0.1432239526339206,-0.1432239526339206,0.9999254354588384,0.00016390979123886317
-0.14317338570118182,-0.14317338570118182,1.0000663377303187,0.00016390989297450815
-0.1431247636471477,-0.1431247636471477,0.9998883620062715,0.00016402388226741197
-0.14307614159001103,-0.14307614159001103,1.000019220896977,0.00016408509079317396
-0.14302751952990458,-0.14302751952990458,1.0000491916842438,0.00016411044126522436
-0.14297889746696973,-0.14297889746696973,0.999886276666355,0.00016412157198663165
-0.1429302754013312,-0.1429302754013312,1.0001167199120922,0.0001641407863414394
-0.14288165333311115,-0.14288165333311115,0.9999199321956244,0.00016410582669292722
-0.1428330312624264,-0.1428330312624264,1.0000673369737396,0.0001640803162603781
-0.14278440918938345,-0.14278440918938345,1.0000375295173474,0.00016406661018233257
-0.14273578711409152,-0.14273578711409152,0.9999203837533083,0.0001640427836229018
-0.14268716503664738,-0.14268716503664738,0.9999507826488199,0.00016407797491858452
-0.1426349643720101,-0.1426349643720101,1.0000884529271479,0.00016417612424906615
-0.14258603110908022,-0.14258603110908022,0.9998560773294214,0.00016421425306482234
-0.14253740902558745,-0.14253740902558745,1.0001101496783462,0.00016426928847106898
-0.14248878694030226,-0.14248878694030226,1.0001625778026515,0.0001643374668515209
-0.14244016485330255,-0.14244016485330255,0.9998389165278514,0.0001644081706336036
-0.14239154276466523,-0.14239154276466523,1.0000647358772057,0.00016452415758367613
-0.14234292067445767,-0.14234292067445767,0.9999797816120617,0.00016457461502616976
-0.14229429858274933,-0.14229429858274933,0.9999666070312643,0.0001645959689117694
-0.1422456764896042,-0.1422456764896042,1.0000805944839475,0.0001646114463811655
-0.14219658762296622,-0.14219658762296622,1.000043934483602,0.0001645308760952101
-0.14214539828042097,-0.14214539828042097,0.9999783883709512,0.00016440438603345932
-0.14209592043433314,-0.14209592043433314,0.999994394511932,0.00016431190038474576
-0.14204729833593716,-0.14204729833593716,0.9999279089963359,0.0001642568117575312
-0.1419986762363908,-0.1419986762363908,1.0000760391737422,0.00016425437488770371
-0.14195005413574294,-0.14195005413574294,0.9999958821174426,0.0001642068827167955
-0.14190143203403785,-0.14190143203403785,1.000081965019282,0.00016405412252454141
-0.14185280993132574,-0.14185280993132574,0.9999580681564728,0.0001637924222828285
-0.14180418782764553,-0.14180418782764553,1.0000632378117693,0.00016356629734926348
-0.1417555657230408,-0.1417555657230408,1.0000054257264197,0.00016338668529566804
-0.14170694361755118,-0.14170694361755118,1.0001570036208647,0.0001633236893311552
-0.1416571545806457,-0.1416571545806457,0.9999707054650638,0.00016332138217786606
-0.1416065875891704,-0.1416065875891704,0.9998670257860676,0.00016333260766620251
-0.14155065271608094,-0.14155065271608094,1.000199093034785,0.00016333832555611423
-0.14148483782942484,-0.14148483782942484,1.0002761787587375,0.00016325385325170202
-0.14143442642600448,-0.14143442642600448,1.0001010837716344,0.00016315062533425325
-0.1413834704542313,-0.1413834704542313,1.00050977616756,0.00016307400708694703
-0.14133352582168862,-0.14133352582168862,1.0005520245042674,0.00016295240939451905
-0.1412808583502195,-0.1412808583502195,1.000284481571827,0.00016283923757570216
-0.14122686835663756,-0.14122686835663756,1.0008200132699443,0.00016281575086716642
-0.14117793506215381,-0.14117793506215381,1.0005403517027456,0.00016279224831534646
-0.14112588995186096,-0.14112588995186096,1.0006970374672355,0.0001628150633085522
-0.1410768010655557,-0.1410768010655557,1.0006065699909867,0.0001628485279050418
-0.1410281789510702,-0.1410281789510702,1.0010359764024686,0.00016292861329540031
-0.14097955683613658,-0.14097955683613658,1.001452785512492,0.00016313246794098348
-0.14092930101769313,-0.14092930101769313,1.0007594912913622,0.00016309955878747163
-0.14088036772037554,-0.14088036772037554,1.0011213682232347,0.00016314022335488956
-0.14083127883189112,-0.14083127883189112,1.0006367605202553,0.00016305310951601035
-0.14077970049066074,-0.14077970049066074,1.0008780355162996,0.0001630157264869618
-0.14073030041988685,-0.14073030041988685,1.0011987122681685,0.00016303631349366864
-0.14067957782718077,-0.14067957782718077,1.0011902117015585,0.0001629816079042852
-0.1406255878278308,-0.1406255878278308,1.0015684043733715,0.00016300576797617414
-0.14055985072436497,-0.14055985072436497,1.0018705071765184,0.0001629161695717311
-0.14050111520551667,-0.14050111520551667,1.0013236356289255,0.00016275664869360766
-0.14045249308696675,-0.14045249308696675,1.0014924813860433,0.00016264927086530776
-0.14040387096818058,-0.14040387096818058,1.0015492837094293,0.00016253179226410913
-0.14035524884917522,-0.14035524884917522,1.0015709780471371,0.00016242638178000306
-0.14030662672996294,-0.14030662672996294,1.0017134452398955,0.0001623716031090503
-0.14025800461055754,-0.14025800461055754,1.0014922944849236,0.00016236746004746254
-0.1402093824909733,-0.1402093824909733,1.0014537261837935,0.00016237179272515198
-0.1401607603712221,-0.1401607603712221,1.0014513514021157,0.00016238234583726378
-0.14011213825131583,-0.14011213825131583,1.0018582511660419,0.0001623863096635203
-0.14006351613126808,-0.14006351613126808,1.0019594118887145,0.00016235656102421374
-0.14001489401109043,-0.14001489401109043,1.0022473066343518,0.0001623160688053875
-0.13996627189079244,-0.13996627189079244,1.0020144829489117,0.00016224594045661592
-0.1399176497703872,-0.1399176497703872,1.0015349112030065,0.00016215223588063814
-0.13986902764988454,-0.13986902764988454,1.0019643598550831,0.00016213774050045677
-0.13982040552929537,-0.13982040552929537,1.0018920179217434,0.0001621154051679499
-0.13977178340862917,-0.13977178340862917,1.0020691767896195,0.00016211610220759687
-0.13972316128789694,-0.13972316128789694,1.0020059426928274,0.000162124464293357
-0.1396732944408139,-0.1396732944408139,1.0020847748338433,0.00016216727479488252
-0.1396220272766028,-0.1396220272766028,1.002086720137728,0.00016223520825593636
-0.13957340515572492,-0.13957340515572492,1.0016110389456023,0.0001622698496832354
-0.13952478303481888,-0.13952478303481888,1.0020354339292314,0.00016234919476939273
-0.13947616091389273,-0.13947616091389273,1.001778544325653,0.00016235923682229183
-0.13942753879295638,-0.13942753879295638,1.0019188633916682,0.00016235643220584392
-0.13937891667201466,-0.13937891667201466,1.0016641286509638,0.0001623263760834387
-0.13933029451709186,-0.13933029451709186,1.0018065063119406,0.0001623171355624996
-0.1392816723140196,-0.1392816723140196,1.0019856863939158,0.00016233683793218177
-0.13923172758666796,-0.13923172758666796,1.0016260362743445,0.00016233163473312952
-0.13918248301907524,-0.13918248301907524,1.0020425607631258,0.00016232018209907608
-0.13913354963362048,-0.13913354963362048,1.0019621243750119,0.00016227230182316136
-0.13908329372427947,-0.13908329372427947,1.001705592709782,0.000162199073578005
-0.13903467152102075,-0.13903467152102075,1.0019510842504336,0.0001621306572373483
-0.13898604931782016,-0.13898604931782016,1.0019437540430067,0.0001620635012761531
-0.13893742711468282,-0.13893742711468282,1.0016585690527684,0.00016198818142166438
-0.1388888049116161,-0.1388888049116161,1.00165522495861,0.00016195907778366497
-0.13884018270862647,-0.13884018270862647,1.0020494224094962,0.00016202266300466793
-0.1387896934131308,-0.1387896934131308,1.0019032018048526,0.000162048970599067
-0.13874005986849988,-0.13874005986849988,1.0019719304580887,0.0001620713048895335
-0.13868373590888755,-0.13868373590888755,1.0021568208269591,0.0001620909339472451
-0.13862414453739796,-0.13862414453739796,1.0022489825145986,0.00016209075823134798
-0.13857178814978957,-0.13857178814978957,1.002160738864239,0.00016204889859761448
-0.1385226213787866,-0.1385226213787866,1.001954834445471,0.00016199194297554474
-0.1384725988571483,-0.1384725988571483,1.001807238914893,0.0001619145905914916
-0.1384238210640186,-0.1384238210640186,1.0020728838002289,0.00016188799776484215
-0.1383734095650379,-0.1383734095650379,1.0016287517287688,0.00016184918020709977
-0.13832323145277456,-0.13832323145277456,1.0012637624469796,0.00016181791547313125
-0.13826348449139667,-0.13826348449139667,1.001604827655863,0.00016189861260383553
-0.13821260621977474,-0.13821260621977474,1.0022072025253344,0.00016201918177795037
-0.13816141676623261,-0.13816141676623261,1.0018596035974807,0.00016203498062725168
-0.13811279456508596,-0.13811279456508596,1.0010028504887576,0.00016198103741182224
-0.1380641723641039,-0.1380641723641039,1.0010731018362022,0.00016200885271977744
-0.13801212716036254,-0.13801212716036254,1.001032124302331,0.00016202775957415376
-0.13796101550306736,-0.13796101550306736,1.0008904376029772,0.0001619910068752473
-0.13791052621013664,-0.13791052621013664,1.0011115131377515,0.00016201522626921758
-0.1378619040098897,-0.1378619040098897,1.0009839438215054,0.00016199528150245845
-0.1378132818098315,-0.1378132818098315,1.0006004208698749,0.00016196157492133983
-0.1377646596099662,-0.1377646596099662,1.0005935771884844,0.0001619319839034418
-0.137716037410298,-0.137716037410298,1.0005410443053286,0.00016190978998086513
-0.13766648166460443,-0.13766648166460443,1.0004862581532896,0.00016186237081902374
-0.13761295834767306,-0.13761295834767306,1.0005411634603416,0.00016179163605708257
-0.13755048854642732,-0.13755048854642732,1.0001596249594635,0.0001617065921962341
-0.1374831954233938,-0.1374831954233938,1.0002509339219858,0.00016167478608043945
-0.13742469319425635,-0.13742469319425635,1.0003998037152173,0.00016173679311579697
-0.13737218122023537,-0.13737218122023537,1.0001567617272682,0.00016176161414558336
-0.13732231429404734,-0.13732231429404734,1.0002348309324864,0.00016179720493405034
-0.13726855759230255,-0.13726855759230255,1.0000725297042101,0.0001618087893404436
-0.13721371175363126,-0.13721371175363126,1.000024000471818,0.00016176482575046836
-0.13716057741659768,-0.13716057741659768,1.0001197983974859,0.00016172621047294967
-0.1371082210350211,-0.1371082210350211,1.0000635665300028,0.00016171392830566586
-0.13702560219868345,-0.13702560219868345,0.9998580177040821,0.00016169833737303304
-0.13697698000251038,-0.13697698000251038,0.9999507368674653,0.0001617077211038158
-0.1369283578065977,-0.1369283578065977,1.0001026626783898,0.00016173288044494326
-0.13687973561094974,-0.13687973561094974,0.9999795991251977,0.00016174795946128972
-0.13683111341556967,-0.13683111341556967,1.0000111099306277,0.00016179033727054047
-0.13678249122046093,-0.13678249122046093,1.000056242493571,0.0001618437246305603
-0.13673386902562706,-0.13673386902562706,1.000009960419279,0.00016191310540640704
-0.13668524683107247,-0.13668524683107247,0.999974447036811,0.00016199381171522765
-0.13663662463679924,-0.13663662463679924,0.999926726408867,0.000162037879561362
-0.13658800244281172,-0.13658800244281172,1.0001167571461724,0.00016204503416878598
-0.13653938024911358,-0.13653938024911358,0.99985886656315,0.0001620393796341368
-0.136490758055707,-0.136490758055707,1.0000207041248836,0.0001620596453993492
-0.1364421358625969,-0.1364421358625969,1.0001163696284787,0.000162077720877472
-0.13639351366978564,-0.13639351366978564,0.9996671489325468,0.00016203819759177103
-0.13634489147727763,-0.13634489147727763,1.0001656993069,0.00016206064454871402
-0.1362962692850751,-0.1362962692850751,0.9999858247002745,0.00016202403391425406
-0.13624764709318177,-0.13624764709318177,0.9999822875940657,0.00016201387629675597
-0.13619902490160096,-0.13619902490160096,0.9999680987804173,0.00016199365511969653
-0.1361504027103364,-0.1361504027103364,1.0000792724754435,0.0001619769235103108
-0.13610178051939084,-0.13610178051939084,0.9999998211180763,0.00016196817726946044
-0.13605315832877082,-0.13605315832877082,0.9999091619436857,0.00016196842727010324
-0.13600453613847496,-0.13600453613847496,1.000066074130506,0.00016198692037629734
-0.13595591394850742,-0.13595591394850742,1.0000411788583232,0.00016202093724916388
-0.13590729175887248,-0.13590729175887248,0.9998497224843172,0.00016204774816152163
-0.1358570358640197,-0.1358570358640197,1.000103023631705,0.00016209283735514547
-0.13580646878752023,-0.13580646878752023,0.9998622456684634,0.00016206943663449005
-0.1357575354169213,-0.1357575354169213,1.0002667898665663,0.00016205876486649376
-0.13570891322867715,-0.13570891322867715,1.000040643013599,0.00016203014551004942
-0.13565850174427513,-0.13565850174427513,0.999845687647109,0.00016197831118839259
-0.13560598978175892,-0.13560598978175892,1.0000026560416018,0.0001619742327217235
-0.13555721200361517,-0.13555721200361517,1.0000428941564965,0.0001619733210709579
-0.13550858981683112,-0.13550858981683112,0.9998685164620154,0.0001619798839827714
-0.1354599676304101,-0.1354599676304101,1.0000136597904368,0.00016197957359175157
-0.13540784464697458,-0.13540784464697458,1.0000693435081764,0.00016201688833741534
-0.1353523764576133,-0.1353523764576133,1.0000602221221093,0.00016211288741890278
-0.13530048686153684,-0.13530048686153684,0.9997391571136298,0.0001621455111193149
-0.13525030876679867,-0.13525030876679867,1.0002748521954898,0.00016222711431687932
-0.13519834137608933,-0.13519834137608933,0.9998437291221624,0.0001622349092183435
-0.1351468407587732,-0.1351468407587732,1.0000674732558372,0.00016230637209236782
-0.13509821857515583,-0.13509821857515583,1.0000944488108963,0.00016230924081702967
-0.1350476515046132,-0.1350476515046132,0.9999105825204249,0.00016230199098519912
-0.13499498395619955,-0.13499498395619955,0.9999143700338753,0.00016232226740855985
-0.13494262759022263,-0.13494262759022263,1.0000036873192364,0.00016230835218564526
-0.1348940054082696,-0.1348940054082696,1.0000952467270778,0.00016229435236283233
-0.1348428159755512,-0.1348428159755512,0.999921094453138,0.00016227603705448992
-0.13479185992974935,-0.13479185992974935,1.0001490803536992,0.00016229679951243882
-0.1347385700197412,-0.1347385700197412,0.9999153064623132,0.0001622669754394445
-0.13468668042901272,-0.13468668042901272,0.9999397657994725,0.00016226841395397036
-0.13463728029435637,-0.13463728029435637,1.000127888082643,0.00016229176222520516
-0.13458710220527448,-0.13458710220527448,0.9998963190207248,0.0001623035379377095
-0.1345380910489325,-0.1345380910489325,1.0000083725015416,0.00016232012665300702
-0.1344890798930317,-0.1344890798930317,1.0000331281520478,0.0001623050384476472
-0.13443672353173905,-0.13443672353173905,1.000068574161724,0.00016232487694486914
-0.13438460055740267,-0.13438460055740267,0.9997789805482735,0.00016234669149478646
-0.13433457806161958,-0.13433457806161958,1.0003107630118122,0.00016235609624611777
-0.13427887649610998,-0.13427887649610998,0.9998267481920774,0.00016225628095271097
-0.13422597556850663,-0.13422597556850663,1.0000450971890484,0.0001622406725306118
-0.13417004061771687,-0.13417004061771687,1.0000287891629527,0.00016220032381501531
-0.13411216078051963,-0.13411216078051963,0.9999599727380473,0.00016220986352046522
-0.13405988221846576,-0.13405988221846576,0.9999503118161635,0.00016223665485324532
-0.13400954854390323,-0.13400954854390323,1.0000661473529318,0.00016228374405344957
-0.13396045959747913,-0.13396045959747913,0.9999974733822514,0.00016234442131993584
-0.1339100481284407,-0.1339100481284407,0.9999178804266556,0.0001624001150066391
-0.1338612703649066,-0.1338612703649066,1.000009247279745,0.0001624296856039533
-0.1338107811014133,-0.1338107811014133,1.0001925787487926,0.0001624647399001285
-0.1337601362474899,-0.1337601362474899,0.9997183383366496,0.00016243766443182326
-0.13371081391715153,-0.13371081391715153,1.000307556184239,0.0001624494860404692
-0.13366094701901093,-0.13366094701901093,0.9996466872320318,0.00016237872710527768
-0.13360361175615001,-0.13360361175615001,1.0000004087257408,0.00016237727151487857
-0.13352480494409846,-0.13352480494409846,1.0000086502075907,0.00016242927626716538
-0.1334761827754531,-0.1334761827754531,1.0001358484254932,0.00016242510583078842
-0.13342756060732275,-0.13342756060732275,0.9999211430847532,0.00016241709272489123
-0.13337893843971443,-0.13337893843971443,1.00004239835759,0.00016240919533666424
-0.13333031627262854,-0.13333031627262854,0.9999580499923605,0.00016237919598215646
-0.1332816941060714,-0.1332816941060714,1.0000148120612258,0.00016237844800500914
-0.13323307194004733,-0.13323307194004733,0.999913362666202,0.00016236882889778052
-0.13318444977455993,-0.13318444977455993,1.000048481361816,0.00016240775254417134
-0.13313582760961565,-0.13313582760961565,0.999862402860902,0.0001624141701439729
-0.133087205445218,-0.133087205445218,1.000134429372186,0.00016245154538490445
-0.13303858328137091,-0.13303858328137091,0.9999689596135195,0.00016244668890576372
-0.13298996121347934,-0.13298996121347934,0.9999344036751967,0.00016246403003211625
-0.13294133925757484,-0.13294133925757484,1.0000273718056567,0.00016244100079191608
-0.1328927173024015,-0.1328927173024015,1.0000225740684858,0.0001623943551514949
-0.13284409534779834,-0.13284409534779834,1.000003569508767,0.00016234030755814618
-0.13279485103276523,-0.13279485103276523,1.0000663269599277,0.00016229504689056843
-0.13274296168407268,-0.13274296168407268,0.9998744551537271,0.00016223072837855742
-0.13269433973125774,-0.13269433973125774,1.0001384812957064,0.00016226624631354472
-0.13264571777903336,-0.13264571777903336,0.9999017036850452,0.00016227115085318
-0.13259709582740556,-0.13259709582740556,0.999962923737813,0.00016232160297528797
-0.13254847387637883,-0.13254847387637883,1.0000902785348935,0.00016236755226851888
-0.13249985192595867,-0.13249985192595867,0.9999905193273205,0.00016239847948704616
-0.1324512299761508,-0.1324512299761508,1.0000204827184835,0.0001624084250662682
-0.1324026080269603,-0.1324026080269603,0.9999986693165758,0.0001624093425032329
-0.13235398607839347,-0.13235398607839347,1.0000083358665368,0.00016242201370930006
-0.1323053641304544,-0.1323053641304544,0.9999189086846207,0.00016242677313670184
-0.13225674218315087,-0.13225674218315087,0.999974834685359,0.00016242355502446196
-0.1322081202364867,-0.1322081202364867,0.9999801148050874,0.0001623923973793125
-0.1321594982904692,-0.1321594982904692,1.0000548307876318,0.00016236931735143906
-0.13211087634510318,-0.13211087634510318,0.9998777766006037,0.0001623712468592874
-0.13206225440039634,-0.13206225440039634,1.0000719549402644,0.00016241146908129266
-0.1320121543492662,-0.1320121543492662,1.0000112956702107,0.00016241908005687917
