time,time,flux,flux_err
-0.49992465033695527,-0.49992465033695527,1.000135911972311,0.00010520256703510816
-0.4997981549452864,-0.4997981549452864,0.9998955205495695,0.00010907083410704622
-0.49965439355886093,-0.49965439355886093,0.9999804923013684,0.00010542496243573537
-0.4995076627686406,-0.4995076627686406,0.9999559242937336,0.00012071908054922539
-0.4993965667752491,-0.4993965667752491,0.9999033248827907,9.752844660364483e-05
-0.49927157369238556,-0.49927157369238556,0.9999757928912436,0.00010712490337074611
-0.4991001206864894,-0.4991001206864894,0.9999834587740398,9.560818638935115e-05
-0.49900551539103616,-0.49900551539103616,1.0002051755451686,0.00010187671823029493
-0.49887933150166647,-0.49887933150166647,1.0001481478277845,0.00010246540168777673
-0.49876411331933923,-0.49876411331933923,1.0001448649285813,0.00010024633975693564
-0.4986132725032803,-0.4986132725032803,1.0000491126122077,9.733323004933124e-05
-0.4985058749683958,-0.4985058749683958,1.0000850877412208,9.512011119195478e-05
-0.4984005562357197,-0.4984005562357197,0.9999397857827057,0.00010041962369029256
-0.4983432256107335,-0.4983432256107335,0.9998800719455593,0.00011081573142788369
-0.4982972650745069,-0.4982972650745069,1.0000686756247925,0.00010206927199836527
-0.49814756377309094,-0.49814756377309094,0.9999318566269112,9.717537153532053e-05
-0.4980222725062049,-0.4980222725062049,1.0000092981554183,9.994601449539992e-05
-0.4978923476228374,-0.4978923476228374,1.0001610470696036,0.00010075332528100065
-0.49769700246615683,-0.49769700246615683,0.9998588991545658,0.00010619489528734417
-0.4975585154694272,-0.4975585154694272,1.000039436904171,9.542248788846255e-05
-0.4975016443975619,-0.4975016443975619,1.000057882334675,9.573917323895043e-05
-0.4974108981761674,-0.4974108981761674,1.0000154900221319,9.482452910776029e-05
-0.4973016895528417,-0.4973016895528417,1.0000193654501097,9.594089917600616e-05
-0.4971733839403896,-0.4971733839403896,0.999996705691158,0.0001008534761078528
-0.49705278587935026,-0.49705278587935026,0.9999023485461478,0.00010214178635769475
-0.49695343865532776,-0.49695343865532776,1.0000438857432523,0.00010102823063042785
-0.49688523805089063,-0.49688523805089063,1.0000218862645691,9.390382495059798e-05
-0.4968195607230882,-0.4968195607230882,1.0001602172374249,9.485300901051322e-05
-0.4967580610697041,-0.4967580610697041,0.9999587522086563,0.00010237360927073445
-0.49663413016169217,-0.49663413016169217,1.0000588394069485,0.00010265849197401134
-0.4965136253325909,-0.4965136253325909,1.0001562782138362,9.721141089176029e-05
-0.4963958874461241,-0.4963958874461241,0.999978195794888,0.00010982145690346017
-0.4962825725902803,-0.4962825725902803,0.9999185264210542,9.622593177122728e-05
-0.4961801769939484,-0.4961801769939484,0.9999003583915703,9.570106040795605e-05
-0.49604757181514286,-0.49604757181514286,0.9999473712738333,9.824312282258969e-05
-0.4959330492332811,-0.4959330492332811,0.999925747234243,9.941483886581157e-05
-0.4957871575432364,-0.4957871575432364,1.0002416683648414,9.756253685032365e-05
-0.4955891449120827,-0.4955891449120827,0.9998918444717122,0.00010582033513768235
-0.49549636941592323,-0.49549636941592323,0.9999035517394927,9.595165944911596e-05
-0.49542725255087133,-0.49542725255087133,0.9999994015100537,9.999359250198118e-05
-0.4953375681281614,-0.4953375681281614,0.9999766771123497,9.688039302316258e-05
-0.4952409825200448,-0.4952409825200448,0.9999790411041214,0.0001058767060073806
-0.4951442215038696,-0.4951442215038696,1.0001181141019144,0.0001017847948856474
-0.4949999926975579,-0.4949999926975579,1.0000788096483404,9.540723869919812e-05
-0.49483312385564204,-0.49483312385564204,0.9998541086645659,9.568915595581159e-05
-0.4947263665912033,-0.4947263665912033,0.9999844336896853,9.887894659275403e-05
-0.4946851814900583,-0.4946851814900583,1.0001513285031338,0.0001058911354834512
-0.49446787004344517,-0.49446787004344517,1.0001685780965168,0.00010739445091676703
-0.4942869677906856,-0.4942869677906856,1.0000865868395334,9.657336717563506e-05
-0.49413582718989346,-0.49413582718989346,0.9999071090188952,0.0001013535166689042
-0.4940604762130533,-0.4940604762130533,0.9999164984526617,9.580688737398711e-05
-0.4940109787181427,-0.4940109787181427,1.0000254314845127,0.00010110983265878746
-0.4939394150627777,-0.4939394150627777,0.9999427669893027,0.00010114296952135837
-0.4938053344900254,-0.4938053344900254,1.0000834145520254,9.60822640924517e-05
-0.4935913838497072,-0.4935913838497072,0.9999787466181461,0.00010153256309238731
-0.4934521003335249,-0.4934521003335249,0.9999411422839201,9.896744382164818e-05
-0.4933829493951635,-0.4933829493951635,0.9999408405025735,0.00010482111032909068
-0.49327694998501104,-0.49327694998501104,0.9997529578763839,9.539811193411985e-05
-0.4931509342706704,-0.4931509342706704,1.0001295501664136,0.00010258908391739124
-0.49303584929148203,-0.49303584929148203,1.0000571782248668,9.555798280240691e-05
-0.4929098424719996,-0.4929098424719996,1.0000691917441074,0.00010119073209568937
-0.4927901255105098,-0.4927901255105098,0.9999492396747343,0.00010526240577374442
-0.49274158850312233,-0.49274158850312233,1.0000048485171695,9.664977108959887e-05
-0.49263241684020614,-0.49263241684020614,0.9999425177998621,9.479784919447074e-05
-0.49250801131202027,-0.49250801131202027,1.0000658646403537,0.00010070956489424243
-0.4923834163579158,-0.4923834163579158,0.9999933314895275,0.00010126749400910309
-0.49222206445556366,-0.49222206445556366,0.999991769213997,0.0001023025676708352
-0.49214526607320297,-0.49214526607320297,0.9998516687767467,0.00010482858857834251
-0.4919783255572838,-0.4919783255572838,1.0002469499642963,0.00010029235124838932
-0.49176686418650206,-0.49176686418650206,1.0000455831394433,9.57679404693602e-05
-0.4916613923749537,-0.4916613923749537,1.0000978695019787,9.342344053334266e-05
-0.49158050959667887,-0.49158050959667887,1.0000081831744014,9.719699142639509e-05
-0.49154012202488956,-0.49154012202488956,0.9998250969855957,0.00011047434506545098
-0.4913743265424273,-0.4913743265424273,1.000117450395423,9.644362125973155e-05
-0.4911754284381459,-0.4911754284381459,0.9998581495735591,0.00010138609662454767
-0.4910567290557083,-0.4910567290557083,1.0000924283503472,0.00010147432297019929
-0.49099526979407526,-0.49099526979407526,1.000083938923317,9.523910155099721e-05
-0.4909063772247464,-0.4909063772247464,0.999870337979172,0.00010493745928406091
-0.4908006454796123,-0.4908006454796123,1.0001709782130044,0.00010043430340631514
-0.4907254995719995,-0.4907254995719995,1.0001083118995973,9.403445127989537e-05
-0.4905681927491969,-0.4905681927491969,0.9998644996213082,9.701234727418456e-05
-0.49037736776372187,-0.49037736776372187,0.9999913550399757,0.00010125273174378878
-0.49028778999854694,-0.49028778999854694,1.0001629195003972,0.00010343486718425942
-0.4901470963312022,-0.4901470963312022,1.000064422189523,9.640038363251651e-05
-0.49002062170620775,-0.49002062170620775,0.999855290291614,0.00010198313286531771
-0.48990479318526925,-0.48990479318526925,0.9999101433615438,0.00010147917550325286
-0.4897637546433543,-0.4897637546433543,0.9998363384395537,0.00010008492045939714
-0.4896062682295451,-0.4896062682295451,1.0000783428796736,0.00010149671948631591
-0.48952529392408906,-0.48952529392408906,1.0001057588972646,9.719318993851057e-05
-0.4894237468026404,-0.4894237468026404,0.9999039566568934,9.436639855073518e-05
-0.48929864200472367,-0.48929864200472367,1.000052825489939,9.743801968986458e-05
-0.48919311783465674,-0.48919311783465674,0.9999961133072995,9.748079762538247e-05
-0.48911318768150525,-0.48911318768150525,0.9999532241558431,0.0001100075844982621
-0.48897804837906733,-0.48897804837906733,0.9999072561873245,9.488504021900854e-05
-0.48881252355567995,-0.48881252355567995,1.000051478274278,0.00010558441389578029
-0.48872065942778137,-0.48872065942778137,0.9999220868530134,0.00010000688848031238
-0.4885095518351591,-0.4885095518351591,0.9999013887202629,9.984853336226593e-05
-0.4884273040137487,-0.4884273040137487,0.9999739510840815,0.00010685717511191779
-0.48835442254639927,-0.48835442254639927,0.999969307326746,9.477238582052376e-05
-0.4882758368905343,-0.4882758368905343,1.000010885156911,9.52882654860769e-05
-0.48817207982501715,-0.48817207982501715,1.0000595804368042,9.592426791414115e-05
-0.48803478982881643,-0.48803478982881643,0.9999791234508623,0.00010153625434192954
-0.48794410805712685,-0.48794410805712685,0.9999489492880285,9.648788912555217e-05
-0.48784179178910564,-0.48784179178910564,1.0000906278881772,0.00010122226699427069
-0.4877519327543268,-0.4877519327543268,0.9998500223384632,9.505573688968258e-05
-0.48769742661388593,-0.48769742661388593,1.0000727163588625,9.952866958182229e-05
-0.48758808692218736,-0.48758808692218736,0.9998545263935334,0.000108258570017694
-0.4875095607822004,-0.4875095607822004,1.0000023122795703,9.7915437433677e-05
-0.4874034104446764,-0.4874034104446764,1.0001976704192952,0.00010042540880348872
-0.48724407798072206,-0.48724407798072206,0.9998125591002882,0.0001072879940541271
-0.48715191457013135,-0.48715191457013135,0.9997501949392001,9.963729652397491e-05
-0.48705918353880406,-0.48705918353880406,1.0000089356920379,9.481926405183392e-05
-0.4869395828274719,-0.4869395828274719,1.000102316642802,9.731326108281498e-05
-0.4868293853054638,-0.4868293853054638,0.9998721324908338,9.735890389434553e-05
-0.4867421941191424,-0.4867421941191424,1.0000222601286237,0.00010052088193972357
-0.4866592747173854,-0.4866592747173854,1.000090025456561,0.00010127121810186278
-0.48646146923929334,-0.48646146923929334,0.99999701232327,0.00010322568312966091
-0.48637383812965707,-0.48637383812965707,1.0001026153126853,9.651590268973338e-05
-0.4863116335851373,-0.4863116335851373,0.9999033822070732,9.923662382020446e-05
-0.48623570882991773,-0.48623570882991773,0.9999284591239901,0.00010039488916491759
-0.48614796511028546,-0.48614796511028546,1.000135717597653,9.924439835712657e-05
-0.48598971955289016,-0.48598971955289016,1.000111094374826,0.00010452703697852479
-0.4858348696841858,-0.4858348696841858,1.0000997776851546,9.697946457979494e-05
-0.485672282421001,-0.485672282421001,0.9999991502208424,9.448544692146422e-05
-0.4855675947837881,-0.4855675947837881,0.999974212222533,9.593808507228643e-05
-0.48544100025756054,-0.48544100025756054,1.0000277406445446,0.00010148341949712248
-0.48526259551581463,-0.48526259551581463,0.9998910544209348,9.39798351969508e-05
-0.4851922189714969,-0.4851922189714969,1.000039212383674,9.951517243681975e-05
-0.4850636476869113,-0.4850636476869113,0.999953199114852,0.00010150818866924474
-0.4849562597832119,-0.4849562597832119,1.000212771574955,0.00010197797899944303
-0.484868659676431,-0.484868659676431,0.9999018389709322,9.54685967829259e-05
-0.4847699348902097,-0.4847699348902097,1.0000049276775749,9.9277714252613e-05
-0.48465432101656913,-0.48465432101656913,1.0000483509502758,0.00010210470288096255
-0.48438832137399,-0.48438832137399,1.0000919984365146,0.00010028646890021466
-0.4842659121764882,-0.4842659121764882,1.0000339517520005,0.00010353705518079831
-0.4842148454481503,-0.4842148454481503,1.000024613529313,9.905465459138158e-05
-0.48407172415682,-0.48407172415682,0.9999954283732198,0.00010258711507927186
-0.4839213693070633,-0.4839213693070633,0.9998714479683318,9.934817010569748e-05
-0.48382964049087607,-0.48382964049087607,0.9999399614358244,9.643395018047536e-05
-0.4837246469403908,-0.4837246469403908,0.999932606019458,9.650324145912127e-05
-0.48366290189296707,-0.48366290189296707,0.9999167596397415,0.00010001610070188098
-0.4835972918459447,-0.4835972918459447,0.9999596654264149,0.00010188137220461077
-0.48354860166000435,-0.48354860166000435,1.0001262126212827,0.00010158252917341656
-0.4835023016370542,-0.4835023016370542,0.9999877479879492,9.588786423278981e-05
-0.4833687419282796,-0.4833687419282796,0.9999862025415494,9.587011631630109e-05
-0.4832255674627959,-0.4832255674627959,0.999942605339694,9.453098605628218e-05
-0.4830891609664832,-0.4830891609664832,0.9999322696548845,0.00010120796464829192
-0.4830247425888956,-0.4830247425888956,1.0001091925738086,0.00010115543712844048
-0.48295348074170763,-0.48295348074170763,1.0002247506230257,0.00010653146121874793
-0.48273192900669526,-0.48273192900669526,1.0000063662035021,9.436899162571386e-05
-0.4825270558190823,-0.4825270558190823,1.0000909706971017,9.631719213509399e-05
-0.48246469734076525,-0.48246469734076525,1.0000582227334907,9.683796594046502e-05
-0.4824056799137907,-0.4824056799137907,1.0000147536260218,9.90205427408431e-05
-0.4823422029192443,-0.4823422029192443,0.9999738626105221,0.00010579992250628651
-0.48215846348539343,-0.48215846348539343,1.0001369647812222,9.551529262460942e-05
-0.4820461976320075,-0.4820461976320075,0.9998849150927519,0.00010142360963680185
-0.4819276578775316,-0.4819276578775316,1.0001175475018709,9.406186829165253e-05
-0.48187188277661336,-0.48187188277661336,0.9998974844412013,0.00010095301370689722
-0.4817164164422138,-0.4817164164422138,1.0000660129225114,0.00010107328728205833
-0.48164109442732295,-0.48164109442732295,0.9999645109691453,0.00010555955956067854
-0.4815666707363562,-0.4815666707363562,1.000031192692388,9.334751144001696e-05
-0.4813788247098273,-0.4813788247098273,0.9998837805233851,9.544319477001884e-05
-0.48118352261881225,-0.48118352261881225,0.9999718800616044,9.89329054614857e-05
-0.48111371621125726,-0.48111371621125726,1.0000599592500663,0.00010858737417426641
-0.48100584731582785,-0.48100584731582785,1.0000124736402747,9.782188647275428e-05
-0.4808738468425872,-0.4808738468425872,0.9999889227621424,0.00010193164118969369
-0.48071425596353945,-0.48071425596353945,1.000094878508089,9.641523466821351e-05
-0.4805151198001113,-0.4805151198001113,0.9999162794592757,0.00010215289516159918
-0.48041280283214294,-0.48041280283214294,0.9999259670781863,9.993405121062944e-05
-0.48034519251232266,-0.48034519251232266,1.0000590201455484,9.500420547583515e-05
-0.4801933537426521,-0.4801933537426521,1.0000461903319269,9.561702321872119e-05
-0.4800707601942122,-0.4800707601942122,1.000031258997335,9.712287806069973e-05
-0.4799436900029832,-0.4799436900029832,0.9999267113926509,0.00010997326636967637
-0.479822499238071,-0.479822499238071,1.000110815799692,9.422454417938226e-05
-0.47965556705603374,-0.47965556705603374,0.999920740410937,0.00010290760423618249
-0.47947657280092243,-0.47947657280092243,1.0001579454609317,0.0001060458447617751
-0.4793838952828082,-0.4793838952828082,1.0000138251313972,9.72438513980444e-05
-0.47924596993689195,-0.47924596993689195,1.0000925695342904,0.00010654262475406247
-0.479178604282788,-0.479178604282788,0.9999102918911283,9.736569947892444e-05
-0.47907450520287964,-0.47907450520287964,1.0000075913794884,9.617255236314334e-05
-0.47897643885298746,-0.47897643885298746,1.000169612712768,9.73915830403016e-05
-0.4788573959551286,-0.4788573959551286,1.0001178520107716,9.625876325685797e-05
-0.4787592624219542,-0.4787592624219542,0.9999376352830718,0.00011057842148702727
-0.478692215479532,-0.478692215479532,0.9999404799436581,9.660013166714608e-05
-0.47862655680510213,-0.47862655680510213,0.99996467961139,0.00010139807307861515
-0.47850440649999654,-0.47850440649999654,0.9998923305924677,0.00010222560066236662
-0.4783553098481207,-0.4783553098481207,1.0000235171629606,0.00010184246606743645
-0.4782299485130352,-0.4782299485130352,1.0002088882883942,9.969616010983532e-05
-0.47803812419151653,-0.47803812419151653,1.0001149133459315,0.00010760344031546323
-0.47793162962043423,-0.47793162962043423,0.9999548682115652,9.760473656520569e-05
-0.47787653250125006,-0.47787653250125006,1.0000099647206686,9.42336936447675e-05
-0.4777664627326885,-0.4777664627326885,0.9999510059499516,9.731058477415015e-05
-0.47766769638765255,-0.47766769638765255,1.000034177046602,9.446807388217069e-05
-0.47761386537895306,-0.47761386537895306,0.9998772102610601,0.00010020769019810922
-0.47754018599152914,-0.47754018599152914,1.0000854498631093,9.966117515718645e-05
-0.4774092201849271,-0.4774092201849271,1.0000960321272003,0.00010115521136693931
-0.4772900689116796,-0.4772900689116796,1.0000285923513197,9.942697054981136e-05
-0.4772135333500046,-0.4772135333500046,0.9998512103623938,9.416126240858466e-05
-0.4771436264840304,-0.4771436264840304,1.0000936601290291,0.0001003418528822849
-0.4770688594864623,-0.4770688594864623,0.9999763889192274,0.00010234591518336247
-0.47692555487010396,-0.47692555487010396,1.0001652312928306,0.00010338127781111122
-0.47678835607148357,-0.47678835607148357,0.9998625087647437,0.00010590719035052103
-0.47663756646143157,-0.47663756646143157,1.0000578332601573,9.582967035469559e-05
-0.47648285766481424,-0.47648285766481424,1.00023913238134,9.75792776028046e-05
-0.47634364859040945,-0.47634364859040945,1.0000472117488521,9.72913209413531e-05
-0.47624910568702034,-0.47624910568702034,1.000088604542991,0.0001047406213312749
-0.47608557241255767,-0.47608557241255767,1.0000731470905444,9.62906047818368e-05
-0.47594544213206974,-0.47594544213206974,0.9999585476728567,0.00010678801386970605
-0.4758558415422158,-0.4758558415422158,1.0000320691136442,0.00010130976976062831
-0.475782663244172,-0.475782663244172,1.000069605286392,0.00010135501468874685
-0.47570705206890124,-0.47570705206890124,0.9999880276723593,0.00010073641771362765
-0.47558531208414934,-0.47558531208414934,1.0000001486794017,0.00010142725009305666
-0.47549517761362947,-0.47549517761362947,0.9997589783028757,0.00010176731033316227
-0.4753311055028462,-0.4753311055028462,1.0000677114398235,9.519539273529467e-05
-0.47516145718109326,-0.47516145718109326,1.0001379169421756,9.680418471240339e-05
-0.47506300405802904,-0.47506300405802904,0.99998882331376,0.00010956017223299368
-0.474910185601766,-0.474910185601766,1.000047937428976,0.00010230654869673324
-0.4747729773094761,-0.4747729773094761,1.000000894465164,0.00010018950058519354
-0.4746706983096374,-0.4746706983096374,1.0000265188258852,9.610981284205694e-05
-0.4745318536421109,-0.4745318536421109,1.0000691941114912,9.52502873616536e-05
-0.47445401749791927,-0.47445401749791927,0.9999875292219886,0.00010293849195893179
-0.4744012406539696,-0.4744012406539696,1.0000982868587394,0.00010023584039970286
-0.47436136102915044,-0.47436136102915044,0.9999969989919635,9.987246328047213e-05
-0.4742859133701131,-0.4742859133701131,1.0001645033462263,9.71141490573021e-05
-0.4741369814153586,-0.4741369814153586,0.9999243295512267,9.63654447294365e-05
-0.4739911112083064,-0.4739911112083064,1.0000338708493017,9.560137932655268e-05
-0.4738629770807165,-0.4738629770807165,0.9999416218528994,0.00010493501495892586
-0.4737895712140016,-0.4737895712140016,1.0001523979939544,0.00010149836181473598
-0.47368603073919074,-0.47368603073919074,0.9999213944958308,0.00010039249974214384
-0.47355979737767484,-0.47355979737767484,1.0001599829262953,9.494632226674234e-05
-0.47344495268407627,-0.47344495268407627,0.99996349462031,0.0001024182930401151
-0.4733017656872107,-0.4733017656872107,1.0000053614072555,9.503959048827416e-05
-0.473225107005419,-0.473225107005419,1.000025352601562,9.913468788296774e-05
-0.4731406022488954,-0.4731406022488954,1.0000571419075046,0.00010539343177677784
-0.4730638129301951,-0.4730638129301951,1.000253306947371,9.635689425574099e-05
-0.4728962412053079,-0.4728962412053079,0.9999997767325404,0.00010136931537750731
-0.4727789785305504,-0.4727789785305504,0.9999660871857475,9.473643407997186e-05
-0.4726438586701988,-0.4726438586701988,0.9999501431414002,0.0001021537297941377
-0.47252116323288645,-0.47252116323288645,0.99989714829171,0.0001097796648903688
-0.4724528707498393,-0.4724528707498393,0.9999852743818192,0.00010162480516796141
-0.472363856654556,-0.472363856654556,1.000042293017045,9.481430461301881e-05
-0.47218137356030637,-0.47218137356030637,0.9999570222882495,9.49601208853738e-05
-0.47201467302511446,-0.47201467302511446,1.0000139039485276,9.30669428880765e-05
