time,time,flux,flux_err
-0.4999258466239553,-0.4999258466239553,1.000244737589656,0.000132392151214309
-0.4997913580300519,-0.4997913580300519,0.9999538244027143,0.00014894536378368787
-0.49972334993071854,-0.49972334993071854,1.0000965090440725,0.00013477089907390437
-0.499584532744484,-0.499584532744484,1.000011766471189,0.0001305987618143287
-0.49947183071635665,-0.49947183071635665,0.999929423507713,0.00013477165334653651
-0.4993439373327419,-0.4993439373327419,1.0000961271110829,0.00013579256159340592
-0.4992261019826401,-0.4992261019826401,1.0003463835093664,0.000141723660319802
-0.4991096397920046,-0.4991096397920046,0.9999891612826268,0.0001356897005330454
-0.4990166339382995,-0.4990166339382995,0.9997649529778257,0.00013019072011866188
-0.4988373162224889,-0.4988373162224889,1.0003498815000664,0.00013794551106613288
-0.49870622433663814,-0.49870622433663814,0.999827533553022,0.00013066184721139036
-0.49855846298160034,-0.49855846298160034,1.000192115319786,0.00013502428159494325
-0.49839463831449393,-0.49839463831449393,1.0000267561366036,0.00013657516411557568
-0.49830909134761897,-0.49830909134761897,0.9999498249475763,0.0001388059884216637
-0.4982031903724419,-0.4982031903724419,1.0000822476259872,0.00012642636230650913
-0.4980196300894022,-0.4980196300894022,1.000059237771697,0.00013612831009194413
-0.4977937487652525,-0.4977937487652525,1.0000966947471182,0.00013586200248063966
-0.4976023660041392,-0.4976023660041392,0.9999648304981091,0.00014346923037267996
-0.4974662389955483,-0.4974662389955483,0.9999542793367218,0.00013261877364843116
-0.4973052392160753,-0.4973052392160753,1.0001108356548492,0.00013334347280104434
-0.4972497574461158,-0.4972497574461158,0.9998849106481449,0.00013597379305124122
-0.4971173407830065,-0.4971173407830065,1.000005859572298,0.00013009898083068958
-0.49688821408199146,-0.49688821408199146,1.0001101206629095,0.00013768913866264758
-0.4967001767159672,-0.4967001767159672,0.9999728885616616,0.00012928206642865816
-0.4965909568098141,-0.4965909568098141,1.0001906636054994,0.0001360834824511152
-0.49647102576564067,-0.49647102576564067,0.9999328849079572,0.00012967007327314176
-0.4963163171807537,-0.4963163171807537,1.000059312859955,0.00013250098671241414
-0.49614642427768557,-0.49614642427768557,0.9999114911710463,0.0001450192593576787
-0.4960379546682816,-0.4960379546682816,1.0000538242320507,0.00013179385955776416
-0.495931467571063,-0.495931467571063,1.0001626995890815,0.0001291987393476863
-0.49581798077269923,-0.49581798077269923,0.999953231869069,0.00012826024343454796
-0.49576237011060587,-0.49576237011060587,1.0001823388355275,0.00012887662669846912
-0.49563851128332315,-0.49563851128332315,1.0001699995287125,0.00013364697062174662
-0.4954815425095148,-0.4954815425095148,0.9999985712056629,0.00012696877813169898
-0.4953656313824467,-0.4953656313824467,0.999790242804961,0.0001381343972328422
-0.49523847619711886,-0.49523847619711886,1.0001319882368154,0.00012976282997356024
-0.49506706789252347,-0.49506706789252347,0.9997266192361138,0.00014253306839409868
-0.4948976708255941,-0.4948976708255941,1.0000469497786255,0.0001390663751582273
-0.4947896242199931,-0.4947896242199931,1.0000375071617047,0.0001391325078985081
-0.49468714896938765,-0.49468714896938765,1.0001219872619078,0.0001311114676472743
-0.494624176013167,-0.494624176013167,1.0000543121628476,0.00014525589615852218
-0.4945184201642405,-0.4945184201642405,0.9999585954862027,0.0001291401577602195
-0.49440837620350064,-0.49440837620350064,0.9998992724318361,0.00013273830454578716
-0.4942768911074381,-0.4942768911074381,1.0000709754197108,0.00013024090331882084
-0.49409479679598006,-0.49409479679598006,0.9999189912405196,0.00012760529788342386
-0.49402309400902594,-0.49402309400902594,1.0000793111868638,0.0001400935374663671
-0.49389858430367894,-0.49389858430367894,0.9997945711182494,0.000127109396686379
-0.49379086463013666,-0.49379086463013666,1.0000505418516634,0.00013881013470343407
-0.49366453338589056,-0.49366453338589056,0.9999857663261874,0.00013743687008861607
-0.49361367710807824,-0.49361367710807824,1.000006630653754,0.0001351434492804734
-0.4935024046426406,-0.4935024046426406,0.999864625666581,0.00013249213937853574
-0.49334042353730184,-0.49334042353730184,0.9998859158324331,0.0001350015804332758
-0.4932139687152812,-0.4932139687152812,1.0000906686389661,0.0001286048213118357
-0.4931535426265327,-0.4931535426265327,1.0000159196544458,0.00013858905402981466
-0.49302863543271086,-0.49302863543271086,1.0000001694231346,0.00012970955650911824
-0.4928889031958533,-0.4928889031958533,1.0002513022726693,0.00012843463741604673
-0.4927724921872141,-0.4927724921872141,1.0000704403210912,0.00012567903729038705
-0.4926032293529715,-0.4926032293529715,1.0000249159329537,0.0001374567281570512
-0.4924812826619018,-0.4924812826619018,1.000330268319789,0.00013844364995912155
-0.4923717819649028,-0.4923717819649028,0.9999671225690289,0.00013258128765396212
-0.49224925244925544,-0.49224925244925544,1.0000337847807899,0.00013213027568051075
-0.49212559496518227,-0.49212559496518227,1.0000264742851008,0.000135083914475046
-0.49194469421345277,-0.49194469421345277,0.9996186804017413,0.00013562035998687425
-0.49183718405256516,-0.49183718405256516,1.0001590640994211,0.00013869121316801612
-0.491685796881211,-0.491685796881211,0.9999903700409231,0.00012937738267913276
-0.49151212844008113,-0.49151212844008113,1.0001090011263387,0.0001378524578269499
-0.4913800714595709,-0.4913800714595709,1.0000440552474434,0.00013137910343855556
-0.4913272543606581,-0.4913272543606581,1.0000059186091974,0.00013250150109522484
-0.4912624344229698,-0.4912624344229698,0.9999295502349931,0.00012797846843741023
-0.4910676389670698,-0.4910676389670698,0.9998903474064929,0.00013426613204363462
-0.49098114801745396,-0.49098114801745396,1.0002244784878755,0.00013130837152465074
-0.4908475581614766,-0.4908475581614766,0.9999372386326518,0.00013762847323448447
-0.4907201682159211,-0.4907201682159211,0.9998521576696232,0.0001340793985920354
-0.49054280630662106,-0.49054280630662106,0.9999463034721362,0.0001275758744687114
-0.49039988639415244,-0.49039988639415244,1.0002561410445525,0.0001299874299376434
-0.4903080487594707,-0.4903080487594707,1.0001321189703911,0.0001258417244667263
-0.49020955866144506,-0.49020955866144506,0.9999503111462472,0.00013060891865730745
-0.49009290714457165,-0.49009290714457165,1.000179446559139,0.00013343170007312026
-0.48990990498568865,-0.48990990498568865,0.999836537777656,0.00013744783299432045
-0.48981526874704284,-0.48981526874704284,0.9997483538836949,0.0001342080015537757
-0.4897352034749929,-0.4897352034749929,0.9998342294799769,0.00013157317018096135
-0.48963940193061717,-0.48963940193061717,1.0000653257964498,0.00013145841787753123
-0.48956480854249096,-0.48956480854249096,1.0000153054240097,0.0001297832101008983
-0.4894642563682282,-0.4894642563682282,0.999981183727028,0.00014706192339428135
-0.48938016188913025,-0.48938016188913025,0.9999986614712532,0.00013971650546923316
-0.48925619016517885,-0.48925619016517885,1.0000864074149778,0.00013785074521352591
-0.48910461223276797,-0.48910461223276797,1.0000032430504933,0.00012995867872550855
-0.4890166225959547,-0.4890166225959547,0.9999031992836699,0.00012932624907687742
-0.4888604374340503,-0.4888604374340503,0.9998357188497777,0.00014591780592850115
-0.48868183866434267,-0.48868183866434267,1.0000809026153186,0.0001337641190682155
-0.4885550110891927,-0.4885550110891927,0.9999995146582489,0.00014607476019432123
-0.48850856858480257,-0.48850856858480257,0.9998641938281226,0.00013348019125747001
-0.4884167198440991,-0.4884167198440991,1.0001069339134023,0.0001282979998776035
-0.48825928595906587,-0.48825928595906587,1.0000649128450294,0.00013292967830817528
-0.48814410651684736,-0.48814410651684736,0.9999951131214855,0.00013766493851591192
-0.48799563983629923,-0.48799563983629923,0.9998734624256415,0.00013631836628560397
-0.4878791641443968,-0.4878791641443968,0.9999459862978061,0.0001338438976765105
-0.48775175616319755,-0.48775175616319755,1.0001319242049869,0.00013040026842650585
-0.4876437998347683,-0.4876437998347683,1.000026592064049,0.00012965922472636202
-0.4875241222733166,-0.4875241222733166,0.9998739078900742,0.00014325859454691664
-0.48740724963427057,-0.48740724963427057,1.0000955603760235,0.0001325703134541078
-0.48724253980617505,-0.48724253980617505,0.99991516319313,0.000132288024070629
-0.48707488986838143,-0.48707488986838143,0.9999871499492932,0.0001336358760215956
-0.48690093743498436,-0.48690093743498436,1.0000902443179018,0.00012970298943154162
-0.48669872792088426,-0.48669872792088426,1.0000859054976539,0.0001375860960385603
-0.4864371566392947,-0.4864371566392947,0.9998512768394875,0.00014641717643111302
-0.48625771289807745,-0.48625771289807745,1.000048410175674,0.00013313975209350108
-0.48614080920815467,-0.48614080920815467,1.0001673536004252,0.00013217884807191412
-0.48602676823211366,-0.48602676823211366,1.0001907507841639,0.0001333067556403086
-0.4858519292494748,-0.4858519292494748,0.9999497074414476,0.00012698015822543016
-0.4856924645166146,-0.4856924645166146,1.0001062259465894,0.00013401288960334282
-0.48556304723606447,-0.48556304723606447,1.0001082917035136,0.0001384532904595835
-0.4854340308258543,-0.4854340308258543,1.0000947713024453,0.00012650061889500177
-0.4853225088882027,-0.4853225088882027,0.9998646931871826,0.0001386528030252582
-0.4852044754137751,-0.4852044754137751,1.0000213501754427,0.00013251434793307848
-0.4850517757702619,-0.4850517757702619,0.9998297374118769,0.00012593048718881206
-0.48491441216901876,-0.48491441216901876,0.9998929175000415,0.00014166020420506366
-0.4848260541766649,-0.4848260541766649,1.000145962407418,0.0001381277326706179
-0.4847019497945439,-0.4847019497945439,0.9998783869155462,0.0001305936431630789
-0.4846015883405926,-0.4846015883405926,0.9999757287986556,0.0001313973137806171
-0.48453496015863495,-0.48453496015863495,0.9999359350665932,0.00012896585883886484
-0.48442126100999305,-0.48442126100999305,1.0000781748070096,0.0001316291868008954
-0.48425525799684693,-0.48425525799684693,0.9999337896740338,0.00012709655447897285
-0.4841394366172608,-0.4841394366172608,0.9999696365742917,0.0001389389996320199
-0.4840340855414979,-0.4840340855414979,0.9999522273072484,0.00012799181129078817
-0.48381386397522874,-0.48381386397522874,1.0001640397596312,0.00014014396647201927
-0.4836286765697878,-0.4836286765697878,0.9999192811905144,0.00014163590049008507
-0.4835322241764516,-0.4835322241764516,1.0001229907608766,0.00013870801589580396
-0.48343673343770205,-0.48343673343770205,0.999985658721462,0.00012888003549259598
-0.4833949235122418,-0.4833949235122418,0.9999742721184088,0.00013862059106117567
-0.4833414207532769,-0.4833414207532769,1.0001323268429914,0.0001393991797652587
-0.4832819068717072,-0.4832819068717072,1.0001841454195668,0.00013456966972634347
-0.48311424169514794,-0.48311424169514794,0.9998842295402403,0.00012742609140677682
-0.4829518383688992,-0.4829518383688992,0.9998449643535953,0.0001393353717558079
-0.4828629426221596,-0.4828629426221596,0.9999560913466057,0.00012452787139497374
-0.4827684801421128,-0.4827684801421128,1.0001778931875729,0.0001397176126127538
-0.48263507142546586,-0.48263507142546586,1.0001543463339073,0.00013817457497142924
-0.4825198401871603,-0.4825198401871603,0.9999674776528948,0.00013372679399683223
-0.482407407235587,-0.482407407235587,0.9998931791295101,0.00014183719081301208
-0.48232965561328456,-0.48232965561328456,1.0000056397067767,0.00012864459576478757
-0.4822644321859116,-0.4822644321859116,0.9997353659953767,0.0001319425937903994
-0.4821792413393268,-0.4821792413393268,1.000064769659437,0.0001335921834212798
-0.48205488694948145,-0.48205488694948145,0.9999189629098166,0.00013150409094182745
-0.48194695650890934,-0.48194695650890934,0.999942817951605,0.00013416675163315005
-0.48175274748937225,-0.48175274748937225,1.0002457952344992,0.00012810044087765074
-0.4816051356727257,-0.4816051356727257,0.9998484249399808,0.0001274300080648002
-0.4814686111581977,-0.4814686111581977,1.0000722143638252,0.00012772524269866203
-0.48128169584088026,-0.48128169584088026,1.0002434657378125,0.00014669000572109953
-0.4811312659672694,-0.4811312659672694,0.9999689916099177,0.00013708900959619104
-0.4810060003597755,-0.4810060003597755,0.9999003853560261,0.00012727969115950696
-0.48081207726499997,-0.48081207726499997,0.9998691177532105,0.00013163791710307983
-0.48073693409387486,-0.48073693409387486,1.0001847254922873,0.00012812061525838315
-0.4806041112227831,-0.4806041112227831,0.9999514937139938,0.0001371164373899187
-0.4804505095176864,-0.4804505095176864,0.9998848986069856,0.0001369128678272543
-0.4802808112901403,-0.4802808112901403,0.9999534110307001,0.00013579584182092934
-0.48016541138640606,-0.48016541138640606,1.0002010641695642,0.0001316107282088363
-0.4800216561270645,-0.4800216561270645,1.0000235157684902,0.00013208708088266233
-0.47987420549616217,-0.47987420549616217,1.00003490390366,0.00013271698236880242
-0.4797641141805798,-0.4797641141805798,0.9999892591585141,0.0001283086506278954
-0.47968544356699566,-0.47968544356699566,0.9996950704240957,0.0001379658566830744
-0.4795310783491004,-0.4795310783491004,0.999873376243551,0.0001334246976331183
-0.4793262827442959,-0.4793262827442959,0.9999711523513163,0.00013373526939449557
-0.47919944604800546,-0.47919944604800546,0.999810723717343,0.0001317006184284975
-0.4791304801707156,-0.4791304801707156,1.0000036594829624,0.00012678847207190448
-0.47906149496848227,-0.47906149496848227,0.9998797959666408,0.00013059373837612638
-0.4789211072959006,-0.4789211072959006,1.000076645530844,0.00013174580221449612
-0.478774679772323,-0.478774679772323,1.0000890574757775,0.00013120445810086128
-0.4786258515145164,-0.4786258515145164,1.0000046944067926,0.0001316933283649397
-0.4785105203889543,-0.4785105203889543,1.0000420486368116,0.00013344296267236356
-0.47843350836192255,-0.47843350836192255,0.9999193836945924,0.00013484171284377063
-0.47834857371635736,-0.47834857371635736,1.0002016268798706,0.0001344264549913058
-0.4782429566635983,-0.4782429566635983,1.0000634566102835,0.00014760583564774353
-0.47814348764077297,-0.47814348764077297,0.9996633406921209,0.00013797395502800696
-0.4779989090340678,-0.4779989090340678,1.0001441144644165,0.00014257550619750347
-0.47786886119574773,-0.47786886119574773,0.9999352406817061,0.0001282735101831339
-0.4777719633246306,-0.4777719633246306,1.0000484033685773,0.00013390278745125265
-0.477597498887917,-0.477597498887917,0.9998968605883309,0.0001391589021532196
-0.4774139375076629,-0.4774139375076629,0.9998404695447782,0.0001320512469410083
-0.477332193867187,-0.477332193867187,1.0000956904075724,0.00013809828742842225
-0.4772645853750873,-0.4772645853750873,1.000039432256097,0.0001392979688570925
-0.4771992135909386,-0.4771992135909386,0.9999964922230372,0.00013198943509599363
-0.4771362356375903,-0.4771362356375903,1.00007569076738,0.00013313121803662506
-0.4770330486702733,-0.4770330486702733,0.9997963343956087,0.0001318602099578461
-0.47692993220407515,-0.47692993220407515,0.9999525683063956,0.0001310472032401283
-0.47674999613082036,-0.47674999613082036,0.9998892841237972,0.00013799084975323186
-0.47662464825843925,-0.47662464825843925,0.9998690898050075,0.00014530885463902185
-0.47655079853429927,-0.47655079853429927,1.0002154883072234,0.00012812265945931568
-0.4763532067387132,-0.4763532067387132,0.9999800104507706,0.00013956519353296637
-0.47622811075125354,-0.47622811075125354,1.000259742598841,0.00013530542931960323
-0.4761267407098785,-0.4761267407098785,1.0001420602446303,0.000131948048218899
-0.4759380594972754,-0.4759380594972754,0.999989796638437,0.000137251811224459
-0.47575049714941997,-0.47575049714941997,0.9998306442495236,0.0001266316421792901
-0.475600414944347,-0.475600414944347,0.9999421821972072,0.00013410689970975328
-0.47533231096167583,-0.47533231096167583,0.9997239484442109,0.00013679258642096073
-0.4751530454581371,-0.4751530454581371,1.0002418607199992,0.00014808653430315317
-0.4750702319666743,-0.4750702319666743,0.9999734643628454,0.00013208209743008646
-0.47487681767088363,-0.47487681767088363,0.9999336719902001,0.00013363471574549427
-0.4746673927817028,-0.4746673927817028,0.9998958746385332,0.00013358175823982167
-0.4745040732668713,-0.4745040732668713,0.9999625913475878,0.00012862646265652234
-0.474363249054295,-0.474363249054295,0.9999773451828501,0.00013808087185066329
-0.47423832392378246,-0.47423832392378246,1.000013103145591,0.00013223593750340542
-0.4740954308421351,-0.4740954308421351,1.0003045472685723,0.00014017485480504198
-0.4739477015216835,-0.4739477015216835,0.9999550168686507,0.00012984992915423245
-0.47380253198207356,-0.47380253198207356,0.9998897243240504,0.00012998068246488747
-0.47368211516877634,-0.47368211516877634,1.0000594390604984,0.00014458092712851212
-0.473559925891459,-0.473559925891459,1.0001546940758936,0.000141648545581622
-0.47346021882840433,-0.47346021882840433,1.0000288479534647,0.000131678018109865
-0.47337133084074595,-0.47337133084074595,0.9999534614917929,0.00014344289667099798
-0.47329834622796624,-0.47329834622796624,0.999983514924714,0.00012681749637616363
-0.4732232931361068,-0.4732232931361068,1.000100567499755,0.00013272393068699485
-0.4731072669121204,-0.4731072669121204,1.000123092191755,0.0001376772235766998
-0.47305040775390805,-0.47305040775390805,1.000024003395924,0.00013226851232611068
-0.4729710498009808,-0.4729710498009808,0.999842437133782,0.00013853778644158668
-0.47282203554932495,-0.47282203554932495,0.9998467546383807,0.00013052116131472298
-0.47256928342685567,-0.47256928342685567,0.9999793856323608,0.00013774087318679996
-0.4724444648454664,-0.4724444648454664,0.9999780258190395,0.00013813328081269309
-0.47234205179847777,-0.47234205179847777,1.0002230324034105,0.00013990587236371952
-0.47228570372972173,-0.47228570372972173,0.9996790861271252,0.00012861016193663752
-0.4722314441460185,-0.4722314441460185,1.0001500281599462,0.00013450208945706965
-0.47217525434680285,-0.47217525434680285,1.00026771420986,0.00013810943201294742
-0.4721285791194532,-0.4721285791194532,1.000106533873052,0.00014468836943494067
-0.4719980219611898,-0.4719980219611898,0.9997894681161588,0.00012936055612666254
-0.47189420590293596,-0.47189420590293596,1.000158741316998,0.00013033089058080014
-0.4718020531843649,-0.4718020531843649,0.9999505147469672,0.0001305377079594121
-0.4716652153758332,-0.4716652153758332,0.9999207145820606,0.00012605058952716016
-0.47156967685441487,-0.47156967685441487,1.0002301495521315,0.00013556619504437876
-0.4714403284335276,-0.4714403284335276,1.000087830601419,0.00013164425776124411
-0.4713755215110723,-0.4713755215110723,1.0001003327965816,0.0001412649973252111
-0.4712211567821214,-0.4712211567821214,1.0000467920686846,0.00013895706634897175
-0.47110477173991966,-0.47110477173991966,0.9998959553605493,0.00013419007378038018
-0.4710488527402049,-0.4710488527402049,0.9997838234677315,0.00013280879620973697
-0.47091057511861434,-0.47091057511861434,1.0001306011051112,0.000131508149626295
-0.4707793285808293,-0.4707793285808293,1.0001451808855712,0.0001256453710140371
-0.4706545497523621,-0.4706545497523621,1.0002440267964423,0.00013570689489773453
-0.4704736223007785,-0.4704736223007785,0.9998026639326103,0.00012756592233327502
-0.4703529322752729,-0.4703529322752729,0.999953734331692,0.00012772648492688767
-0.47019464324985166,-0.47019464324985166,1.0001391507528554,0.00013430455965766412
-0.4700173015909968,-0.4700173015909968,1.0001164720867346,0.0001485370822945097
-0.46979939386656044,-0.46979939386656044,0.9999169180043577,0.0001272351269337129
-0.46963612174149605,-0.46963612174149605,0.9998727502025837,0.0001283118790133578
-0.46951940358558203,-0.46951940358558203,1.000101364449361,0.00012727013411784375
-0.469440137091442,-0.469440137091442,1.0000899121889186,0.0001412249159495514
