time,time,flux,flux_err
-0.49848361406839103,-0.49848361406839103,0.9997408482981873,6.402743863426587e-05
-0.4966643661476458,-0.4966643661476458,1.0002443845300844,6.397194450697349e-05
-0.4950990405583677,-0.4950990405583677,1.0001390798135532,6.357055526104022e-05
-0.4934408340690425,-0.4934408340690425,0.9999589627474783,5.9114428248933186e-05
-0.4924511378936586,-0.4924511378936586,0.9996661806464722,5.809984399402471e-05
-0.49109838989097626,-0.49109838989097626,1.0001966471855583,5.812862209521952e-05
-0.4895124781309278,-0.4895124781309278,0.9997993910136408,5.877419541772926e-05
-0.4877364948930335,-0.4877364948930335,1.0000021034678153,5.8524139411554685e-05
-0.4861198325976147,-0.4861198325976147,0.9999292380844415,5.831443670559713e-05
-0.4844568073996925,-0.4844568073996925,0.9997683403170958,5.8294383866055155e-05
-0.482728914640029,-0.482728914640029,0.9997653901767507,5.805795842828862e-05
-0.4812532301919418,-0.4812532301919418,0.9997720148835537,5.829288470215134e-05
-0.4792586044481141,-0.4792586044481141,0.9995362248708112,5.819938284655313e-05
-0.477178654675663,-0.477178654675663,1.0000659623289923,5.842524836281751e-05
-0.4758156490352121,-0.4758156490352121,1.0000048515454565,5.839752816420188e-05
-0.4740879918492283,-0.4740879918492283,1.0000009743434792,5.839299692380372e-05
-0.47227342677651907,-0.47227342677651907,0.9998196895506991,5.847490881365817e-05
-0.47102168748242546,-0.47102168748242546,0.9998870021940783,5.8083265936602044e-05
-0.46959228267951403,-0.46959228267951403,0.9997426414902284,5.8124879696084695e-05
-0.46805143540841526,-0.46805143540841526,0.9998351936622033,5.840829668281257e-05
-0.4665253088751342,-0.4665253088751342,1.0000081945200876,5.859953728198169e-05
-0.4652035010207328,-0.4652035010207328,0.9996581615451344,5.83036563799984e-05
-0.4638933323265519,-0.4638933323265519,0.9996263750605584,5.853475122213417e-05
-0.4622603925454314,-0.4622603925454314,0.9999169583795517,5.863082828489853e-05
-0.46083736811124254,-0.46083736811124254,0.9997680065190014,5.810929343821616e-05
-0.4597290900332155,-0.4597290900332155,0.9999232241579386,5.817273552336362e-05
-0.45772064573684473,-0.45772064573684473,0.9997028643798609,5.8493267908978094e-05
-0.45608921915409156,-0.45608921915409156,0.9999054615562093,5.843761256571729e-05
-0.454922103935678,-0.454922103935678,1.0000097921745246,5.826229481477201e-05
-0.45328847983037124,-0.45328847983037124,0.9992132263166933,5.860118012410132e-05
-0.45207109586772276,-0.45207109586772276,0.9995595907326675,5.818678921433596e-05
-0.4506950272305403,-0.4506950272305403,1.0003594529095903,5.827464586209886e-05
-0.4493551676001516,-0.4493551676001516,0.9997663882296834,5.857050571732446e-05
-0.44754022937995613,-0.44754022937995613,0.9998607624512132,5.852310668242011e-05
-0.44587679642863803,-0.44587679642863803,1.000151898125909,5.8302548269257704e-05
-0.4444033698629937,-0.4444033698629937,0.9999191813980397,5.808952425168101e-05
-0.44270717849431096,-0.44270717849431096,0.9999502288984827,5.843297617239761e-05
-0.4409455330925994,-0.4409455330925994,0.9994585580476769,5.8140247632572145e-05
-0.43926674271933736,-0.43926674271933736,0.9996996455228221,5.8845478676258824e-05
-0.43760695716628106,-0.43760695716628106,0.9999298665226439,5.816959031652715e-05
-0.4355402640416287,-0.4355402640416287,0.9994724958873944,5.848296482359589e-05
-0.4337951741297729,-0.4337951741297729,0.9996283946511717,5.835361345104713e-05
-0.4320994564986904,-0.4320994564986904,1.0002634960666168,5.8353456670137844e-05
-0.4306564586222521,-0.4306564586222521,1.0000206847980964,5.819599087756544e-05
-0.4287627350902767,-0.4287627350902767,0.9996048841614978,5.810265360267625e-05
-0.42752160088421076,-0.42752160088421076,0.999822155434478,5.8386038407545305e-05
-0.4258592321508331,-0.4258592321508331,1.0000293448322233,5.854529879104762e-05
-0.42441399842355165,-0.42441399842355165,0.9998247470052565,5.831375414948166e-05
-0.42290643425221786,-0.42290643425221786,0.9999937893709625,5.847566369053094e-05
-0.42106896962504836,-0.42106896962504836,0.9999587429793678,5.8680491879231655e-05
-0.4195264655383653,-0.4195264655383653,0.9999254477171517,5.823428397897226e-05
-0.41852195872634185,-0.41852195872634185,1.0001385912286263,5.8145637579368776e-05
-0.4165932766991318,-0.4165932766991318,1.0000992361510623,5.9294445075167705e-05
-0.4151509977134992,-0.4151509977134992,1.0000457137959857,5.845181356231409e-05
-0.4136038562777685,-0.4136038562777685,0.999764894422537,5.8214078967377513e-05
-0.41174752186780095,-0.41174752186780095,1.000285025080956,5.880937858201907e-05
-0.4106731527528609,-0.4106731527528609,0.9995766663870314,5.809103298896864e-05
-0.4092118498752825,-0.4092118498752825,0.9999557349014239,5.811821717464139e-05
-0.40761822016356747,-0.40761822016356747,1.000205515903372,5.8703147619907716e-05
-0.40594261799706144,-0.40594261799706144,1.0000191844858395,5.87043783388522e-05
-0.40470890881697413,-0.40470890881697413,1.0003080003554394,5.8217219028150545e-05
-0.4030847419024212,-0.4030847419024212,0.9996801859591459,5.805176930857677e-05
-0.4014218074036762,-0.4014218074036762,0.999584255803472,5.8227245206328403e-05
-0.4002727870247327,-0.4002727870247327,1.0002412287839708,5.8312415599619674e-05
-0.3990360379306367,-0.3990360379306367,1.0000181393630192,5.869392880267709e-05
-0.3971396732755238,-0.3971396732755238,1.0001315442490415,5.830872388764981e-05
-0.39506381895480447,-0.39506381895480447,1.0000823479619845,5.827652203101368e-05
-0.39356728534330615,-0.39356728534330615,0.9997996278301322,5.823116129526888e-05
-0.39189801292668563,-0.39189801292668563,0.9996072743046696,5.832270977902331e-05
-0.3899923898570705,-0.3899923898570705,0.9997506033336456,5.811645748687911e-05
-0.38818472608400045,-0.38818472608400045,1.0002005082419418,5.806622403126277e-05
-0.386941782158101,-0.386941782158101,0.9999039590713851,5.836017729026813e-05
-0.38516321225906724,-0.38516321225906724,0.9997599731458872,5.8622520182988225e-05
-0.383833748329198,-0.383833748329198,1.0001232235370079,5.8359221437416683e-05
-0.38231610502843977,-0.38231610502843977,1.0000905022288435,5.847130615761869e-05
-0.3803807407937711,-0.3803807407937711,1.0000162191777886,5.8583638372444476e-05
-0.37927877589390846,-0.37927877589390846,0.9996875499514267,5.794723850799247e-05
-0.3781075469145435,-0.3781075469145435,0.9998542063915208,5.8166584527486355e-05
-0.37685776821017497,-0.37685776821017497,0.999801241719589,5.831663293930058e-05
-0.37537400233122753,-0.37537400233122753,0.9998339164009614,5.85848649110585e-05
-0.374212835371145,-0.374212835371145,1.0001351457752479,5.8459385498951395e-05
-0.3726628237956902,-0.3726628237956902,1.0000899088533548,5.822020224132816e-05
-0.3706503419773071,-0.3706503419773071,0.9998794054547127,5.8701990840768536e-05
-0.36923917797394096,-0.36923917797394096,0.9996422108788284,5.811250315644693e-05
-0.3681302805474843,-0.3681302805474843,0.9998918240335908,5.8162347532156986e-05
-0.3662907378617092,-0.3662907378617092,0.9998207269982011,5.841488414965957e-05
-0.3647286273044301,-0.3647286273044301,0.9997355858481963,5.85324282864351e-05
-0.3635554031701759,-0.3635554031701759,0.9998677242901005,5.8233536633658174e-05
-0.3620284660748439,-0.3620284660748439,1.0000495562256457,5.803873246026577e-05
-0.3607080790010514,-0.3607080790010514,1.000132657400753,5.920276854511769e-05
-0.35958495426602893,-0.35958495426602893,0.9997306901885956,5.8150819041341494e-05
-0.35842451588541735,-0.35842451588541735,0.9995970711196549,5.813890481043151e-05
-0.35652855057123817,-0.35652855057123817,0.9998540713854414,5.8881388809657716e-05
-0.3548186231884756,-0.3548186231884756,1.000129522606399,5.845520157224863e-05
-0.3532896934892051,-0.3532896934892051,0.9999396745885936,5.851611227982454e-05
-0.35156743178376926,-0.35156743178376926,0.9998155406079695,5.824730077365224e-05
-0.3497570311505115,-0.3497570311505115,0.9999525698442676,5.808572737136718e-05
-0.3483631884853821,-0.3483631884853821,0.9997877894444851,5.8229142411875364e-05
-0.3467646697390592,-0.3467646697390592,0.9999896888380148,5.814255759520289e-05
-0.34512371317250656,-0.34512371317250656,0.999574007106378,5.8358713492923414e-05
-0.34348979439091637,-0.34348979439091637,0.999859926759495,5.863060688764673e-05
-0.3418538537735003,-0.3418538537735003,0.9997831461370301,5.837495041545773e-05
-0.34007145042851333,-0.34007145042851333,1.00018923771769,5.919644425016622e-05
-0.33881989774963583,-0.33881989774963583,0.9998261305404703,5.8131288589356394e-05
-0.33716186950769045,-0.33716186950769045,1.0002901414263745,5.816899326975817e-05
-0.3359159111831104,-0.3359159111831104,1.0001570600441672,5.832801094107832e-05
-0.3342408744152635,-0.3342408744152635,0.9999364152974131,5.859859261303352e-05
-0.33294278082175877,-0.33294278082175877,1.0002492164966066,5.852704438942976e-05
-0.33165295153448826,-0.33165295153448826,1.0000636404538752,5.85530616200572e-05
-0.32971034160582346,-0.32971034160582346,0.9998616008708081,5.8654416185782646e-05
-0.3282927150823525,-0.3282927150823525,1.000023352849073,5.811325618045477e-05
-0.3271841457506525,-0.3271841457506525,1.0000378585329517,5.816209364325072e-05
-0.3251718088329653,-0.3251718088329653,1.000095812753178,5.8509616950790645e-05
-0.3236928993239417,-0.3236928993239417,0.9998842516073093,5.843429809179505e-05
-0.3226177996912156,-0.3226177996912156,0.9999644444081343,5.8233372037465366e-05
-0.3210865359942545,-0.3210865359942545,1.00003247386547,5.802289808156054e-05
-0.3197621009792783,-0.3197621009792783,1.0000106475146704,5.907260278004274e-05
-0.318647937606147,-0.318647937606147,0.9996757224353882,5.814094189794814e-05
-0.3174780865316279,-0.3174780865316279,0.9998656516918732,5.814850334864009e-05
-0.31558152000216066,-0.31558152000216066,0.9999357156978981,5.8809470215896275e-05
-0.31388072003610434,-0.31388072003610434,0.9996358932471017,5.841736722119756e-05
-0.3123528750365949,-0.3123528750365949,0.9995724278396333,5.849399468462331e-05
-0.31062330206186745,-0.31062330206186745,0.9998356019842607,5.822579413028821e-05
-0.3091983963560779,-0.3091983963560779,0.9996988935825127,5.7934938798154095e-05
-0.3077624279001611,-0.3077624279001611,1.0000297624305845,5.829943268463699e-05
-0.30576772267231717,-0.30576772267231717,0.9997317065389909,5.8208719957271516e-05
-0.30368879042071056,-0.30368879042071056,0.9997303998124449,5.842419121166204e-05
-0.30232599268492777,-0.30232599268492777,0.9999803841441925,5.8393574212176934e-05
-0.300597559956077,-0.300597559956077,1.0001255220645455,5.8388245905930435e-05
-0.29878317116672404,-0.29878317116672404,0.9994694216310475,5.846680790669061e-05
-0.297530990348605,-0.297530990348605,0.9996098365983134,5.808486477748197e-05
-0.29610183963086456,-0.29610183963086456,0.9997816741244228,5.8128534996607206e-05
-0.2945615213640849,-0.2945615213640849,0.9996268909545185,5.84044955439195e-05
-0.29303579120023643,-0.29303579120023643,0.9999789274501711,5.859669458183594e-05
-0.29171354136051375,-0.29171354136051375,1.0001839005254713,5.831082631941883e-05
-0.2903579803329194,-0.2903579803329194,1.0003368150873402,5.849301591375562e-05
-0.28852375864516944,-0.28852375864516944,1.000064044296812,5.870140137110621e-05
-0.28698246631101937,-0.28698246631101937,1.000076017310194,5.823925077933029e-05
-0.28597244667907945,-0.28597244667907945,1.0003096128716744,5.8142188960374833e-05
-0.2841994475093088,-0.2841994475093088,0.9999149250588296,5.851110377615768e-05
-0.28259951162472136,-0.28259951162472136,0.9999146419640494,5.844538486646129e-05
-0.2811799544171663,-0.2811799544171663,0.9998579125444396,5.825885360062098e-05
-0.27944295112247347,-0.27944295112247347,1.00047901555625,5.876699788282497e-05
-0.2783746577319107,-0.2783746577319107,0.999601777891316,5.820148504399085e-05
-0.27692875124485,-0.27692875124485,0.9997276141298694,5.804419497528334e-05
-0.2755644536984619,-0.2755644536984619,1.000173842927243,5.859407515494646e-05
-0.27405055824056035,-0.27405055824056035,0.9999529272167414,5.8521547039386016e-05
-0.2723864719591802,-0.2723864719591802,1.000090118059473,5.830886832365172e-05
-0.2709139810875058,-0.2709139810875058,0.9998815393397866,5.808932515297722e-05
-0.2692166293505579,-0.2692166293505579,0.9997256588472487,5.8423421567048623e-05
-0.26745521661650856,-0.26745521661650856,0.9997701977257419,5.814438684629582e-05
-0.26577570403460415,-0.26577570403460415,0.9999970731309901,5.8834560516620314e-05
-0.2637568812860991,-0.2637568812860991,1.0000633877135097,5.833635499139252e-05
-0.2616740267869318,-0.2616740267869318,0.9999446701203555,5.85470161017503e-05
-0.2599651690441533,-0.2599651690441533,1.000001566168962,5.8301295255517826e-05
-0.2582157250973978,-0.2582157250973978,1.0001038890867768,5.828462793977278e-05
-0.25680153031280495,-0.25680153031280495,0.9997628779341656,5.822908306671577e-05
-0.255159229702258,-0.255159229702258,0.9997393255600187,5.81233226739599e-05
-0.2536220705471351,-0.2536220705471351,0.9999391236964079,5.8406625584726446e-05
-0.25209871633996955,-0.25209871633996955,0.999922865718759,5.8574447542136256e-05
-0.25062439313769574,-0.25062439313769574,1.0001918028246997,5.8230906507441076e-05
-0.24897074534528657,-0.24897074534528657,1.000073219963461,5.8815248241759e-05
-0.24731348960922334,-0.24731348960922334,0.9996031341315849,5.820841399744831e-05
-0.24579038950178073,-0.24579038950178073,0.9995990802410348,5.8211571895804526e-05
-0.24469067399622874,-0.24469067399622874,1.000044075795987,5.821115522896106e-05
-0.24281753406394274,-0.24281753406394274,1.000019573035658,5.9284104867670276e-05
-0.24133714998752112,-0.24133714998752112,0.999117532043597,5.849919962910815e-05
-0.2397226921777474,-0.2397226921777474,0.9997866040545118,5.807370140443995e-05
-0.23805991892004386,-0.23805991892004386,0.9995542603270267,5.882220511098825e-05
-0.23658205170358998,-0.23658205170358998,1.0000549469880888,5.813451947996958e-05
-0.23525037076760782,-0.23525037076760782,1.000010550778179,5.8452160446005855e-05
-0.23341820550267584,-0.23341820550267584,1.0000036805415284,5.853127298324699e-05
-0.23192474854877218,-0.23192474854877218,1.0002018924129197,5.844218679417605e-05
-0.23075515403179453,-0.23075515403179453,1.000039666513293,5.827911710661047e-05
-0.22911045740765984,-0.22911045740765984,0.9998181679748381,5.8038538172845666e-05
-0.2277108919020975,-0.2277108919020975,0.9998784447111706,5.800383754324226e-05
-0.2265291071336833,-0.2265291071336833,1.0003788189131264,5.8350480316209076e-05
-0.22521661068021787,-0.22521661068021787,0.9996703328721706,5.87630857319532e-05
-0.22319566801452312,-0.22319566801452312,0.999667434707302,5.8203686224391396e-05
-0.22133696357632288,-0.22133696357632288,1.0001419466035448,5.83015017737587e-05
-0.2197169174614828,-0.2197169174614828,0.9998810730459142,5.828309852123905e-05
-0.21806122721754945,-0.21806122721754945,1.0002606172185482,5.823996055852582e-05
-0.21627373511437326,-0.21627373511437326,0.9999948585514262,5.832100041203815e-05
-0.21469395544263534,-0.21469395544263534,0.9999669277983418,5.8059266144043315e-05
-0.21345073285192484,-0.21345073285192484,1.000085363614096,5.8362767522355596e-05
-0.21167382442508825,-0.21167382442508825,0.9998207580218494,5.862822243662538e-05
-0.21034376122115644,-0.21034376122115644,1.0001815305886923,5.8358710672502325e-05
-0.20882571632682811,-0.20882571632682811,1.0000225688526876,5.846385313716861e-05
-0.2068907857843442,-0.2068907857843442,1.000347619991868,5.8571725937313204e-05
-0.2057880950625986,-0.2057880950625986,0.999756568830275,5.795711898707664e-05
-0.2046165975785698,-0.2046165975785698,1.0004133986377084,5.816828407672132e-05
-0.2033674526552204,-0.2033674526552204,0.9999168978654349,5.831569156715923e-05
-0.20168714681640268,-0.20168714681640268,0.9997086439880245,5.86181027074093e-05
-0.20039474430814153,-0.20039474430814153,0.9999566995987268,5.851196100958586e-05
-0.1987879826061544,-0.1987879826061544,0.9998138968419573,5.8779669033002515e-05
-0.19716033764416352,-0.19716033764416352,1.0001335993472726,5.8700887346510665e-05
-0.19574809832847678,-0.19574809832847678,0.9999994447661035,5.812148783663286e-05
-0.19463925265008583,-0.19463925265008583,0.9999108811739855,5.816189885509634e-05
-0.19262300963600865,-0.19262300963600865,0.9999038083421432,5.85231962141442e-05
-0.19098637680726824,-0.19098637680726824,0.9996514370844775,5.843700756597011e-05
-0.1898177087699878,-0.1898177087699878,0.9993866914917691,5.826456565854569e-05
-0.1881920927859028,-0.1881920927859028,1.0000194652226386,5.882472082002298e-05
-0.18698321848060004,-0.18698321848060004,0.9997040240595464,5.820292779898749e-05
-0.18584367111034225,-0.18584367111034225,0.9998945887293618,5.831773659944366e-05
-0.184598448050383,-0.184598448050383,0.9997411685558941,5.859044000476543e-05
-0.18275812830543145,-0.18275812830543145,0.9997538135141664,5.856515685963087e-05
-0.18098281558341114,-0.18098281558341114,1.0000652986254004,5.8242522120259465e-05
-0.17951244237920036,-0.17951244237920036,0.9999074377029814,5.8350635583132046e-05
-0.17777012523583835,-0.17777012523583835,1.0001706354346553,5.828639948514095e-05
-0.17585561202577082,-0.17585561202577082,0.9999719103374506,5.827938084652428e-05
-0.1747294130953378,-0.1747294130953378,0.9997112471524275,5.804822472365035e-05
-0.17327426949632355,-0.17327426949632355,1.000257420940817,5.8148588061732156e-05
-0.17163316354854033,-0.17163316354854033,0.9998343416006608,5.8362197338973045e-05
-0.17000092344969744,-0.17000092344969744,1.0003298966788072,5.863429361547325e-05
-0.16836311988881789,-0.16836311988881789,0.9997811156616017,5.836791696470021e-05
-0.16658119063358753,-0.16658119063358753,0.99969980674305,5.916874486138307e-05
-0.16532916386640864,-0.16532916386640864,1.0001009787036774,5.8141209722544626e-05
-0.16367092761356616,-0.16367092761356616,0.9998648875685253,5.8167288931600536e-05
-0.16242561099206795,-0.16242561099206795,1.0002623397916461,5.833043073369787e-05
-0.1607516238509561,-0.1607516238509561,0.9994858789931772,5.858712303526489e-05
-0.15945239306165604,-0.15945239306165604,1.000531473860894,5.8532938683949954e-05
-0.15816253817465623,-0.15816253817465623,1.0000384307969163,5.854846638617403e-05
-0.15622034936823184,-0.15622034936823184,0.9996494418765774,5.86496328546577e-05
-0.15480164334730945,-0.15480164334730945,0.9999653726759042,5.811199385693276e-05
-0.15369312855036696,-0.15369312855036696,0.9999627057035602,5.815863315749249e-05
-0.1516815746377688,-0.1516815746377688,0.999720452055622,5.8504489836586604e-05
-0.15004806369688595,-0.15004806369688595,0.9999759540436257,5.844109711995777e-05
-0.1488803239990375,-0.1488803239990375,0.9995783349797197,5.826316537851068e-05
-0.1472499002527911,-0.1472499002527911,0.9999904328609913,5.869726037015286e-05
-0.14603592360508627,-0.14603592360508627,1.0003846427529681,5.820303027583868e-05
-0.1451392888717237,-0.1451392888717237,1.0000264607675002,5.914137088776733e-05
-0.14398702094185864,-0.14398702094185864,1.0001970605414898,5.81552040792424e-05
-0.14218711053254082,-0.14218711053254082,0.9998510222463068,5.8687019163831426e-05
-0.1407561698142672,-0.1407561698142672,0.9999594912037015,5.851540814430952e-05
-0.139140632514318,-0.139140632514318,0.9997236740282889,5.830336240826227e-05
-0.13747586173412857,-0.13747586173412857,1.0002994566253245,5.829495919094006e-05
-0.13611383339448366,-0.13611383339448366,0.9998360468218801,5.813789866464609e-05
-0.13433231233357218,-0.13433231233357218,1.0000672918710705,5.819551541730486e-05
-0.1322768469428411,-0.1322768469428411,1.0002545407184353,5.8207745508173356e-05
-0.13019134863861836,-0.13019134863861836,1.0002147747548897,5.83543257273795e-05
-0.12846405689051607,-0.12846405689051607,1.0001438285010817,5.833903507287986e-05
-0.12680659840261796,-0.12680659840261796,1.0000084648744618,5.8285516273352874e-05
-0.12501147929724538,-0.12501147929724538,1.0000422747051032,5.851197297629278e-05
