time,time,flux,flux_err
-0.4996460143418517,-0.4996460143418517,0.999995137019653,9.353526440470481e-05
-0.4982022612297442,-0.4982022612297442,1.0001426489504524,9.36690810267851e-05
-0.4956651649015839,-0.4956651649015839,0.9998667724324273,9.367435175528576e-05
-0.4948152619268512,-0.4948152619268512,1.0000441114343808,9.351136324386788e-05
-0.4932246068958193,-0.4932246068958193,0.9999561383264662,9.340543523665781e-05
-0.49226475135801595,-0.49226475135801595,0.9999959345115016,9.365382254148308e-05
-0.49114890581113285,-0.49114890581113285,0.9999427358646604,9.359716995672002e-05
-0.49005359378497815,-0.49005359378497815,1.0000858387238991,9.359824343929415e-05
-0.4889361500245286,-0.4889361500245286,0.9999528143461971,9.356962528822335e-05
-0.4879434369708179,-0.4879434369708179,0.9999766270501607,9.347939752647993e-05
-0.486136712381267,-0.486136712381267,0.999888587299586,9.357329096444162e-05
-0.4841287633680622,-0.4841287633680622,1.000001871409792,9.360478562030527e-05
-0.4828302203459316,-0.4828302203459316,0.9999907696445544,9.357543766089633e-05
-0.4806889083731221,-0.4806889083731221,1.000053873984824,9.36983932253627e-05
-0.4797530661788187,-0.4797530661788187,0.9999146952281055,9.353353284028089e-05
-0.4792175972252153,-0.4792175972252153,1.0000941760349296,9.351500379976534e-05
-0.4782489065473783,-0.4782489065473783,0.9999831026720132,9.34526433073241e-05
-0.4772829858658952,-0.4772829858658952,1.0000353876534878,9.356121594818278e-05
-0.4763820918902638,-0.4763820918902638,1.0001011452849562,9.361162371130334e-05
-0.47544584706920434,-0.47544584706920434,0.9999950928174621,9.359033509391444e-05
-0.4740387083438691,-0.4740387083438691,0.9998774446043864,9.363842982610463e-05
-0.47246766601019774,-0.47246766601019774,0.9997623266361799,9.345081160963801e-05
-0.4708062888981658,-0.4708062888981658,0.9999925886878172,9.350971168722977e-05
-0.46858317239384634,-0.46858317239384634,0.999905748510723,9.360436869150962e-05
-0.467020329166553,-0.467020329166553,1.0001785838804387,9.366046216574232e-05
-0.46458818073297153,-0.46458818073297153,0.9999739312604801,9.372821592047208e-05
-0.4633585686926381,-0.4633585686926381,0.9999149263900659,9.340213018054126e-05
-0.46198640675138447,-0.46198640675138447,1.0000969930568784,9.357699789986872e-05
-0.46065613118407783,-0.46065613118407783,1.0000530379722723,9.359538323385334e-05
-0.45979623037419515,-0.45979623037419515,0.9999764608265936,9.362887687966459e-05
-0.4589460139817675,-0.4589460139817675,1.0000676570092448,9.363003696953337e-05
-0.45781160164769974,-0.45781160164769974,1.000069373580944,9.348003873230982e-05
-0.45659015756536975,-0.45659015756536975,1.0001106661648982,9.36715131275338e-05
-0.4548387884118711,-0.4548387884118711,1.000007434325043,9.359962563728826e-05
-0.45350515811151126,-0.45350515811151126,0.999852513914362,9.365253775434645e-05
-0.451866734912619,-0.451866734912619,0.9999475845038234,9.360734012795595e-05
-0.45046370918717005,-0.45046370918717005,0.9998886709217014,9.358092133906268e-05
-0.4493858579531661,-0.4493858579531661,1.0000738242097504,9.368930480562997e-05
-0.44863399911264423,-0.44863399911264423,0.9998930925003062,9.342929507428115e-05
-0.44709450856025795,-0.44709450856025795,0.9999045952243542,9.342069124706829e-05
-0.445618989939976,-0.445618989939976,1.0000816716193932,9.364106491338269e-05
-0.44431315791298404,-0.44431315791298404,0.9999431022389687,9.349157490896191e-05
-0.4430485616539954,-0.4430485616539954,1.000075686045519,9.364849800480522e-05
-0.4417344288813183,-0.4417344288813183,1.0000326809057019,9.344997275833485e-05
-0.4394882064021658,-0.4394882064021658,0.9999163728545003,9.356844668358637e-05
-0.43804144780297066,-0.43804144780297066,1.0000509948805418,9.365753032922632e-05
-0.43712834090110847,-0.43712834090110847,1.0000490429089677,9.375239032684866e-05
-0.43524203319539084,-0.43524203319539084,0.9998819308800562,9.357912396106691e-05
-0.43353691193187843,-0.43353691193187843,0.9999992295540556,9.357372048657208e-05
-0.43231747185636776,-0.43231747185636776,0.9999466208106575,9.351154167160784e-05
-0.43114359176688594,-0.43114359176688594,0.9999242017844228,9.353337945884287e-05
-0.43002820687252097,-0.43002820687252097,0.999988392434165,9.359352652548605e-05
-0.4291665406708489,-0.4291665406708489,1.0001201930336552,9.363796175078258e-05
-0.42807820839370836,-0.42807820839370836,1.000004226343941,9.364284610601615e-05
-0.4270965264469851,-0.4270965264469851,0.9999893597547782,9.349560622006235e-05
-0.4259571945280186,-0.4259571945280186,1.0000811496799975,9.342750542805444e-05
-0.4235501969233155,-0.4235501969233155,1.0001245714250782,9.364987707807084e-05
-0.4226201731551555,-0.4226201731551555,1.0000485228154432,9.344551795488266e-05
-0.421392988228763,-0.421392988228763,0.9998460544991892,9.360321719490321e-05
-0.41923243291821566,-0.41923243291821566,0.9999956841326133,9.366407400500101e-05
-0.4181211579765659,-0.4181211579765659,1.0000110986920374,9.357286991622809e-05
-0.41642807904281653,-0.41642807904281653,0.9998809261792194,9.336819043133963e-05
-0.4148721967372694,-0.4148721967372694,1.0000026635862225,9.36778766255072e-05
-0.41285907451674575,-0.41285907451674575,1.0000989627987975,9.365475741536457e-05
-0.4114819495996926,-0.4114819495996926,0.9999914145099551,9.342971819311295e-05
-0.4104099846023018,-0.4104099846023018,1.000130096473327,9.364867957427166e-05
-0.40803370257926874,-0.40803370257926874,1.0000404563864982,9.353698257566957e-05
-0.4064267552632373,-0.4064267552632373,0.99985753595012,9.370767278511846e-05
-0.4054753523712861,-0.4054753523712861,0.9999572912469628,9.353829983865222e-05
-0.4033142694766866,-0.4033142694766866,0.999983402575063,9.360905167427353e-05
-0.4024801170482533,-0.4024801170482533,0.9998582771871947,9.348536373578665e-05
-0.40116956525744174,-0.40116956525744174,1.0000718048513524,9.333121476890157e-05
-0.3997611682178103,-0.3997611682178103,1.0000063117618614,9.365983246879296e-05
-0.39877691219298866,-0.39877691219298866,1.0001360152214158,9.362474641836934e-05
-0.3978184281120775,-0.3978184281120775,1.0000320702722654,9.368621550657387e-05
-0.39664769723895005,-0.39664769723895005,1.0000558401860127,9.354329610932905e-05
-0.39550089324911825,-0.39550089324911825,1.0001480399023197,9.347806361562275e-05
-0.39406211649038597,-0.39406211649038597,0.9999745623508396,9.348436909262666e-05
-0.3920820405925042,-0.3920820405925042,0.9999208187467371,9.360124141259163e-05
-0.3904563515170594,-0.3904563515170594,1.0000677302566883,9.361849036348634e-05
-0.3880982630318613,-0.3880982630318613,1.0001018051215442,9.371781706761604e-05
-0.38697144954057877,-0.38697144954057877,1.0001001957359854,9.351490989435202e-05
-0.3849755387127516,-0.3849755387127516,1.0000586024558205,9.356968452353976e-05
-0.38397677154134724,-0.38397677154134724,0.9999378620075318,9.363841022850457e-05
-0.3825930569626507,-0.3825930569626507,0.9999118347309246,9.361244835718897e-05
-0.38110895514982984,-0.38110895514982984,0.9998634052616622,9.344390125880094e-05
-0.37971152328536845,-0.37971152328536845,0.9998403446298211,9.362634940526714e-05
-0.37750810059951617,-0.37750810059951617,0.9999799205348093,9.346870869912663e-05
-0.376417383136868,-0.376417383136868,1.000029507864744,9.360506600675163e-05
-0.3749918606481515,-0.3749918606481515,1.0000738211575395,9.359792580594938e-05
-0.3731420511932811,-0.3731420511932811,0.9997832048493848,9.372147199491758e-05
-0.3721640325995395,-0.3721640325995395,0.9999475500966277,9.355526222114574e-05
-0.37156006424920635,-0.37156006424920635,1.000107146211313,9.346962682112092e-05
-0.370355151372496,-0.370355151372496,0.9999299865434252,9.350135746255258e-05
-0.36905004778382133,-0.36905004778382133,0.9998409375648626,9.351753527753319e-05
-0.3677824753001914,-0.3677824753001914,1.000043148878129,9.35401157114562e-05
-0.366059036248771,-0.366059036248771,1.0000023056849001,9.36268257732785e-05
-0.36470222808857217,-0.36470222808857217,0.999968856145038,9.341008285139918e-05
-0.3635186506115133,-0.3635186506115133,1.0000787804006914,9.355620345445238e-05
-0.36129149938642513,-0.36129149938642513,0.9999475719216762,9.36510056768401e-05
-0.3602126909070648,-0.3602126909070648,1.000047733908868,9.366499296771184e-05
-0.3588231623143656,-0.3588231623143656,0.9999511596165848,9.3692168344075e-05
-0.35674157351604663,-0.35674157351604663,0.9999844171605702,9.362275255092032e-05
-0.355564852275711,-0.355564852275711,0.999958635958891,9.345602867876518e-05
-0.3542490451814956,-0.3542490451814956,1.0000730700619298,9.367137711294689e-05
-0.35298362159373936,-0.35298362159373936,0.9998607760203064,9.358177093249747e-05
-0.3521198690563324,-0.3521198690563324,0.9997736025840602,9.362082328507907e-05
-0.35121320381003895,-0.35121320381003895,1.0000633785591053,9.356737136915222e-05
-0.3504636282043066,-0.3504636282043066,0.9999055483028865,9.353905469619729e-05
-0.3492711263694218,-0.3492711263694218,0.9998755499387846,9.347705653396588e-05
-0.3463533086789539,-0.3463533086789539,0.9999821841979797,9.36347379447367e-05
-0.3453870580313378,-0.3453870580313378,1.0000496381241237,9.36035067076679e-05
-0.3439570055459626,-0.3439570055459626,0.9999271672133568,9.366196677453369e-05
-0.341988446949108,-0.341988446949108,0.9999245103416502,9.364660602810746e-05
-0.34099083791661544,-0.34099083791661544,0.9999715483414034,9.351526793839418e-05
-0.3397822932936833,-0.3397822932936833,1.0000529094889667,9.365159326618898e-05
-0.3387046438088873,-0.3387046438088873,0.9999514077788199,9.354914982214199e-05
-0.3375402740377467,-0.3375402740377467,0.9999963170042806,9.544711575233805e-05
-0.33602198202424916,-0.33602198202424916,0.999937811017394,9.360702180998156e-05
-0.3349847806501202,-0.3349847806501202,1.0001557427737915,9.358471825370821e-05
-0.3339950518260594,-0.3339950518260594,0.9999594948596716,9.353434623515406e-05
-0.3327732918522088,-0.3327732918522088,0.9998153602836103,9.357533626849692e-05
-0.3307256408108515,-0.3307256408108515,0.9999636945365153,9.359266745471772e-05
-0.32928175596462095,-0.32928175596462095,1.0001193369732577,9.378041289750654e-05
-0.32710690050153063,-0.32710690050153063,1.0000188678351656,9.355265374288622e-05
-0.32564366307342424,-0.32564366307342424,1.0001445476337694,9.356689096147211e-05
-0.32451695832132826,-0.32451695832132826,0.9999642415570585,9.331625329537464e-05
-0.32293143406132,-0.32293143406132,0.9999341632305423,9.358228466656877e-05
-0.3218658220619545,-0.3218658220619545,0.9999151205875313,9.361678674812382e-05
-0.3208689350358327,-0.3208689350358327,0.9998528085897359,9.358961813265341e-05
-0.31959911701997046,-0.31959911701997046,0.9999524708621497,9.347279754698722e-05
-0.3185376902722055,-0.3185376902722055,0.9998465728435104,9.350307344369138e-05
-0.31687042968114837,-0.31687042968114837,0.9997891272523329,9.343047791176637e-05
-0.31527543098054595,-0.31527543098054595,0.999977899944948,9.363685644482326e-05
-0.31431888691004134,-0.31431888691004134,0.9999888406291649,9.366098922756204e-05
-0.31205439426266823,-0.31205439426266823,0.99992557460776,9.362762085536762e-05
-0.31051213895261753,-0.31051213895261753,0.9998612623647766,9.362173161504386e-05
-0.30919975057186094,-0.30919975057186094,1.0001029489120437,9.340016274477528e-05
-0.3075010846252553,-0.3075010846252553,1.0000077242022787,9.363882434927827e-05
-0.30623018992482687,-0.30623018992482687,1.000078241297326,9.355662884398659e-05
-0.30492068473395195,-0.30492068473395195,0.9998885024871071,9.363927019486013e-05
-0.303710191466962,-0.303710191466962,1.000046420708283,9.348282073520264e-05
-0.30249952666927127,-0.30249952666927127,1.0001294755356835,9.350512590281677e-05
-0.3002596638078103,-0.3002596638078103,0.9999439749838068,9.359391044060223e-05
-0.2989178010902833,-0.2989178010902833,0.9998839124035793,9.364284722143775e-05
-0.2976111514450167,-0.2976111514450167,1.0000386394895238,9.35840430322744e-05
-0.29564669130922994,-0.29564669130922994,1.0000264482412182,9.365384870599877e-05
-0.2948772379779257,-0.2948772379779257,0.9999982306813635,9.357829731887262e-05
-0.2941679314681096,-0.2941679314681096,0.9999745339711152,9.339615930429482e-05
-0.2930823225149652,-0.2930823225149652,0.9999115933407797,9.345475104425653e-05
-0.2921636440558359,-0.2921636440558359,1.0000225365204523,9.361113346708631e-05
-0.29120227426174095,-0.29120227426174095,0.9999851682568298,9.360799167374487e-05
-0.2900803477925365,-0.2900803477925365,1.0001031298510743,9.361312834059114e-05
-0.2883524614822818,-0.2883524614822818,0.9999651066384307,9.349448727153644e-05
-0.28731573482800743,-0.28731573482800743,0.999796195418495,9.346753760732085e-05
-0.2855805366503773,-0.2855805366503773,0.9997216699717522,9.356270027213449e-05
-0.28425651869765717,-0.28425651869765717,1.000167001390944,9.360291554189551e-05
-0.28255881008226424,-0.28255881008226424,1.0000484429728205,9.367285520514808e-05
-0.2799795490253018,-0.2799795490253018,0.9998828587431486,9.372591548276895e-05
-0.27866063202236546,-0.27866063202236546,0.9999915706403794,9.346195150982245e-05
-0.27723383839329474,-0.27723383839329474,1.0001548176985442,9.357180404504024e-05
-0.2759367189530167,-0.2759367189530167,0.9999407170711045,9.35839227633296e-05
-0.27475861677812646,-0.27475861677812646,0.9998978159233343,9.363322672776845e-05
-0.27404124246677386,-0.27404124246677386,1.0000839342387873,9.363379600892116e-05
-0.27327757861203283,-0.27327757861203283,1.0002051009213369,9.339672243765954e-05
-0.2720934716111515,-0.2720934716111515,0.9999640442268957,9.361164193170686e-05
-0.26936473579407905,-0.26936473579407905,1.0001243788941305,9.360344223278242e-05
-0.26779425369168164,-0.26779425369168164,1.0000390989309704,9.367901344295958e-05
-0.2661372717586346,-0.2661372717586346,0.9999688594178402,9.353801021901736e-05
-0.26515722199110314,-0.26515722199110314,1.0001152120786556,9.368254849469998e-05
-0.26429301865719024,-0.26429301865719024,1.000034744614307,9.35552031716724e-05
-0.26311443095037246,-0.26311443095037246,0.9999264107149612,9.335466901789649e-05
-0.26140038153680506,-0.26140038153680506,1.0000677091105121,9.35334253394993e-05
-0.260201738133037,-0.260201738133037,1.0000596147409062,9.362928099771202e-05
-0.2589103884034557,-0.2589103884034557,1.0001701739670956,9.358323976722451e-05
-0.257529116999649,-0.257529116999649,1.0000197268630735,9.358444601755221e-05
-0.25637290024751563,-0.25637290024751563,0.9998555229627992,9.353052911661576e-05
-0.25445027143723564,-0.25445027143723564,0.9998934225559,9.353031821235022e-05
-0.25318505699688104,-0.25318505699688104,0.9999519906963273,9.377819066334977e-05
-0.25225183142902097,-0.25225183142902097,1.0001088526086213,9.354372720796284e-05
-0.25019282748689875,-0.25019282748689875,1.000039679639749,9.366806146412647e-05
-0.24878773605887544,-0.24878773605887544,1.0001620012519432,9.354979122700864e-05
-0.24754057717364047,-0.24754057717364047,1.000070970581098,9.34975920701561e-05
-0.24629861816501944,-0.24629861816501944,1.0001324834963667,9.355330089166781e-05
-0.24515829248703086,-0.24515829248703086,0.9999290489876034,9.362704997005139e-05
-0.24397398378205254,-0.24397398378205254,0.9999425922183866,9.365381734339722e-05
-0.242876707004325,-0.242876707004325,1.0000284191025606,9.355134470430984e-05
-0.24124307468300685,-0.24124307468300685,0.9999087908797964,9.344330427094239e-05
-0.2394949671055656,-0.2394949671055656,1.0000000508066598,9.35991281914001e-05
-0.23825617773691193,-0.23825617773691193,0.9999749908008259,9.357536894641395e-05
-0.23761672848486343,-0.23761672848486343,0.9999499290097009,9.350889492119184e-05
-0.23597363900771598,-0.23597363900771598,0.9999393480068965,9.363791008225767e-05
-0.23436268813966307,-0.23436268813966307,1.000153578629233,9.360575859580352e-05
-0.23355088877578964,-0.23355088877578964,0.999818749590862,9.355165898700148e-05
-0.23249885574332438,-0.23249885574332438,0.9999342531939319,9.345244712606511e-05
-0.23109962255548452,-0.23109962255548452,0.9999680055374164,9.356423681904202e-05
-0.2299456035209005,-0.2299456035209005,0.9999179541371532,9.357703842728077e-05
-0.22796853832114722,-0.22796853832114722,0.9999352604950825,9.363969108381556e-05
-0.22674925619066927,-0.22674925619066927,0.9999313495043303,9.340550021228689e-05
-0.22582121739396827,-0.22582121739396827,1.0000143076312926,9.362129962890695e-05
-0.22395801721140743,-0.22395801721140743,0.9999291388489118,9.354236974954315e-05
-0.22224329294258496,-0.22224329294258496,1.0000592699061304,9.364814625425265e-05
-0.22126669576537097,-0.22126669576537097,1.000026479206582,9.357473676482285e-05
-0.21902844062569785,-0.21902844062569785,0.9998555506591696,9.36010029991524e-05
-0.2179948985343799,-0.2179948985343799,0.9999472837577699,9.356014847504783e-05
-0.2169216182635864,-0.2169216182635864,1.0000553647863455,9.332367012598153e-05
-0.21538880401785718,-0.21538880401785718,1.0001958089420926,9.362512804207693e-05
-0.21434280398243571,-0.21434280398243571,0.9999044349098376,9.359218120060341e-05
-0.21339987301034852,-0.21339987301034852,0.9998673873611674,9.359315952892003e-05
-0.21225496147817466,-0.21225496147817466,0.9999968769375691,9.353635440127435e-05
-0.21076796273264337,-0.21076796273264337,0.9999164136688984,9.341867104749668e-05
-0.20843470069085016,-0.20843470069085016,0.9998793599369679,9.358203717320948e-05
-0.2070707560153096,-0.2070707560153096,0.9999860123631381,9.353620458954269e-05
-0.2058880526019493,-0.2058880526019493,0.9998944286192282,9.359876425693318e-05
-0.20396258197142741,-0.20396258197142741,0.9999548233081199,9.375770055751876e-05
-0.20238447980227647,-0.20238447980227647,0.9999606158912917,9.347675275680787e-05
-0.20022197665675776,-0.20022197665675776,1.000008780754952,9.358265281361886e-05
-0.19906016449676828,-0.19906016449676828,1.0000451360723859,9.357645450842387e-05
-0.19743150354188402,-0.19743150354188402,0.9999003421726627,9.361872548951162e-05
-0.19624424822977743,-0.19624424822977743,0.9998503800569338,9.347325570507347e-05
-0.195019152291934,-0.195019152291934,0.999955199714939,9.35992311031142e-05
-0.1932157804520102,-0.1932157804520102,0.9998345759969487,9.346302429830315e-05
-0.19199920074170224,-0.19199920074170224,0.9999952650852351,9.364053377281674e-05
-0.19026981450006134,-0.19026981450006134,1.0000696972118743,9.375495561754551e-05
-0.188831185993331,-0.188831185993331,0.9999923191794803,9.36508898578251e-05
-0.18766162889514817,-0.18766162889514817,0.999969841761408,9.362790528717863e-05
-0.18691002998821205,-0.18691002998821205,1.0001541311425064,9.349217430811607e-05
-0.185496595215227,-0.185496595215227,0.9999794874110087,9.343107453080294e-05
-0.1841409912201925,-0.1841409912201925,1.0000225572864125,9.35947050266545e-05
-0.1828533011241234,-0.1828533011241234,1.000029457562516,9.357722355088489e-05
-0.1811821703784517,-0.1811821703784517,0.9999196596359445,9.352367654688306e-05
-0.17948960103967693,-0.17948960103967693,1.0001124509817374,9.354570887247115e-05
-0.17687954885332147,-0.17687954885332147,1.0000417801577421,9.362820111940037e-05
-0.17552032015810254,-0.17552032015810254,1.0001376571093203,9.375096645208866e-05
-0.17398262804636033,-0.17398262804636033,1.0000950306461358,9.366805990955447e-05
-0.17230792263580952,-0.17230792263580952,0.9999191763289754,9.365004477685403e-05
-0.17132255917822475,-0.17132255917822475,0.9999511853600869,9.344684288331933e-05
-0.17007806752226315,-0.17007806752226315,1.0000617739151658,9.357869655607693e-05
-0.1690338164655259,-0.1690338164655259,0.9999666997907359,9.362133000877435e-05
-0.1679092179867439,-0.1679092179867439,1.0000251403021374,9.360374873652338e-05
-0.16689611678302754,-0.16689611678302754,1.0000845233950122,9.36069781677165e-05
-0.1663359516649507,-0.1663359516649507,0.9999977261468267,9.358646374864655e-05
-0.1654935352038592,-0.1654935352038592,0.9999819278867008,9.35213824222347e-05
-0.16407350174704333,-0.16407350174704333,0.9998901393179874,9.353454370723256e-05
