time,time,flux,flux_err
-0.4997084828763036,-0.4997084828763036,0.9999719730573583,7.459238659175505e-05
-0.4991289661491464,-0.4991289661491464,1.0000907820443987,7.496892139028595e-05
-0.4983916747201874,-0.4983916747201874,0.9998824879758124,7.470723585805016e-05
-0.4968793044979975,-0.4968793044979975,0.9999707554294177,7.524003259841276e-05
-0.49434394600175435,-0.49434394600175435,0.9999626579371549,7.451918496145453e-05
-0.49278381825060935,-0.49278381825060935,1.000145400312793,7.493763867081463e-05
-0.4921733303250221,-0.4921733303250221,0.9999938941563228,7.462447025422946e-05
-0.49162226351982097,-0.49162226351982097,0.9998550337559159,7.489144960027574e-05
-0.48967703882954083,-0.48967703882954083,0.9999516494484169,7.533878031852757e-05
-0.4885301030648407,-0.4885301030648407,1.0000229038320572,7.466274270121033e-05
-0.48725374263012783,-0.48725374263012783,0.9999320163295078,7.452360176399286e-05
-0.48636142998075227,-0.48636142998075227,0.9999709696041981,7.491506785119406e-05
-0.48569322225012,-0.48569322225012,0.999844616340358,7.443288895329228e-05
-0.4855012974454439,-0.4855012974454439,0.9999939675788863,7.452106262457518e-05
-0.4840718823761563,-0.4840718823761563,0.9999450167389391,7.533169507539884e-05
-0.4811291848680412,-0.4811291848680412,0.9999934605697796,7.445443702555222e-05
-0.47977873595737036,-0.47977873595737036,1.000037563680278,7.48712610469637e-05
-0.4788470498511742,-0.4788470498511742,1.00002460391426,7.49293482706555e-05
-0.4772272016321949,-0.4772272016321949,1.000000527702547,7.531283157430322e-05
-0.47549297394725726,-0.47549297394725726,1.0000943429615812,7.446759040962369e-05
-0.4742249710536271,-0.4742249710536271,0.9999910592790491,7.470154715270088e-05
-0.4732388093791087,-0.4732388093791087,0.9999538706565072,7.475649933579434e-05
-0.47147427079762566,-0.47147427079762566,0.999991319671981,7.520826015922533e-05
-0.46920319347991607,-0.46920319347991607,0.9999864137675717,7.455281874821185e-05
-0.46733644509731675,-0.46733644509731675,1.0000388596734757,7.487393091513227e-05
-0.46474698798701863,-0.46474698798701863,1.0000962069027,7.548324486757469e-05
-0.4628545850995579,-0.4628545850995579,0.9999205178278519,7.456559139968487e-05
-0.4615849756170064,-0.4615849756170064,1.0000469309739846,7.446734899319105e-05
-0.4605541001554229,-0.4605541001554229,0.9998393624920705,7.474443583595808e-05
-0.45925313270126933,-0.45925313270126933,1.000134133359687,7.47892077115072e-05
-0.45742039273682167,-0.45742039273682167,1.0000562281166514,7.523041797015192e-05
-0.456406070257799,-0.456406070257799,0.9999776925182973,7.455223155951042e-05
-0.45529789567663104,-0.45529789567663104,0.9999240382035459,7.4645433740087e-05
-0.45467066529745354,-0.45467066529745354,1.000044499166309,7.48879784053041e-05
-0.45374457250582056,-0.45374457250582056,0.9999357467222403,7.476113915216715e-05
-0.4521374532349,-0.4521374532349,1.0000015052070983,7.526651048093445e-05
-0.4505297406030877,-0.4505297406030877,1.0001196716229381,7.492793724571777e-05
-0.44940409095943323,-0.44940409095943323,0.9999313258796985,7.448219461700582e-05
-0.4481617382778495,-0.4481617382778495,1.0000604419967307,7.496301691627656e-05
-0.44747136320220304,-0.44747136320220304,1.000101486492621,7.444276048433425e-05
-0.4470883520058123,-0.4470883520058123,1.0000164192370486,7.479428185974431e-05
-0.4454392706305953,-0.4454392706305953,1.0000294442593183,7.518898171645005e-05
-0.44344785273715387,-0.44344785273715387,0.9999967270249421,7.470386226215845e-05
-0.44205436247575564,-0.44205436247575564,0.9999888704599634,7.483372837467471e-05
-0.44137516576665803,-0.44137516576665803,0.9998935856212826,7.48714291841378e-05
-0.44103171916794964,-0.44103171916794964,1.0000050423910047,7.43849698917251e-05
-0.4406475048301218,-0.4406475048301218,0.9999676986920765,7.492722638725714e-05
-0.43971248631569326,-0.43971248631569326,0.9998427950123961,7.522211826426645e-05
-0.4378396051753953,-0.4378396051753953,0.9999795554602768,7.479705514172929e-05
-0.436090082093142,-0.436090082093142,1.0000345366443877,7.4601448151524e-05
-0.43488103681374923,-0.43488103681374923,1.0000378244504637,7.459700658493562e-05
-0.43426104931131704,-0.43426104931131704,1.0000788462363888,7.488143869982541e-05
-0.4330360711865069,-0.4330360711865069,1.000045941576134,7.539989773044294e-05
-0.43054391988771384,-0.43054391988771384,0.9999752345691595,7.433012305278495e-05
-0.4292851416990743,-0.4292851416990743,0.9999970374328131,7.490583523780267e-05
-0.4282567427122558,-0.4282567427122558,1.0000496282926943,7.46969652185407e-05
-0.4264594173386286,-0.4264594173386286,0.999932835879717,7.513988684882467e-05
-0.42361841359597746,-0.42361841359597746,0.9999079867432086,7.446058869048066e-05
-0.4224196844748803,-0.4224196844748803,0.9999215765665668,7.490056487840358e-05
-0.42121838319362725,-0.42121838319362725,0.9999968144839748,7.491578642187202e-05
-0.4193599621015892,-0.4193599621015892,0.9999202217181274,7.526862060324182e-05
-0.4175919977002195,-0.4175919977002195,0.9999840408790565,7.435825824269444e-05
-0.4154809199790179,-0.4154809199790179,1.0000088397964162,7.520268503970013e-05
-0.41311789969986423,-0.41311789969986423,0.999911931139614,7.524044183772959e-05
-0.4113235419303237,-0.4113235419303237,1.0000207130737606,7.437256713257568e-05
-0.41008679378501256,-0.41008679378501256,1.0000127469153932,7.490560988309947e-05
-0.40926969885840664,-0.40926969885840664,0.9998225454194305,7.467769076766998e-05
-0.40795086336802344,-0.40795086336802344,1.0000465845198303,7.526321664726685e-05
-0.40617357436058227,-0.40617357436058227,1.0000283566795414,7.508150614956158e-05
-0.40499785563806656,-0.40499785563806656,0.9999800867843434,7.439832753510337e-05
-0.40385658201557817,-0.40385658201557817,0.9999244896540592,7.482059601441235e-05
-0.40314592513095704,-0.40314592513095704,0.9999915111203392,7.498369160139858e-05
-0.40252015125442997,-0.40252015125442997,1.0001511860877677,7.47729826727676e-05
-0.4011892925940629,-0.4011892925940629,1.0000314801536039,7.522078268981087e-05
-0.39880081830342534,-0.39880081830342534,1.0000596235630639,7.452140337108913e-05
-0.3972413340503408,-0.3972413340503408,1.000070282171159,7.493735810563949e-05
-0.3966312718199333,-0.3966312718199333,0.9998832279139794,7.461921307267655e-05
-0.39607909958649545,-0.39607909958649545,0.9998733340260813,7.48951824260434e-05
-0.3940865532400494,-0.3940865532400494,0.9999845330803906,7.526247684437474e-05
-0.39259476365550655,-0.39259476365550655,1.000105786385669,7.446623949629285e-05
-0.3912524629144173,-0.3912524629144173,0.9999830116099518,7.478050113279303e-05
-0.39045239188562847,-0.39045239188562847,1.0001613377987262,7.470760413951362e-05
-0.3900252083360101,-0.3900252083360101,1.000027924139666,7.443303156360166e-05
-0.38872081419394816,-0.38872081419394816,1.0000004944480523,7.503637805057392e-05
-0.38558616687587344,-0.38558616687587344,0.9999564795540508,7.445160196896378e-05
-0.3842826605097798,-0.3842826605097798,1.0000215219805138,7.495368832140368e-05
-0.38283920964749996,-0.38283920964749996,0.9998634016779254,7.49725660438062e-05
-0.380314623004233,-0.380314623004233,0.9999868573798197,7.472168529110666e-05
-0.3787800485690241,-0.3787800485690241,0.9999711805101624,7.457576620563236e-05
-0.37771728716543296,-0.37771728716543296,1.0000430269721945,7.481001303013006e-05
-0.37604148899845313,-0.37604148899845313,0.9998986403803901,7.513813279597838e-05
-0.37426427774262266,-0.37426427774262266,0.9999034241149094,7.474660805721387e-05
-0.372161018607585,-0.372161018607585,0.9998957326463644,7.470772043175653e-05
-0.3702563171624206,-0.3702563171624206,0.9999529371836863,7.504175060862387e-05
-0.3689389343133371,-0.3689389343133371,0.9999942475270901,7.54368805527036e-05
-0.36754622668377124,-0.36754622668377124,1.0000046758071184,7.609296096414915e-05
-0.36622958774823927,-0.36622958774823927,0.9999074860438342,7.445177466919202e-05
-0.36511924718724914,-0.36511924718724914,1.0000442295235303,7.498022354938704e-05
-0.36403908543798025,-0.36403908543798025,0.9999766203734634,7.46241984335941e-05
-0.3625457640140667,-0.3625457640140667,0.999965094475793,7.541198770415458e-05
-0.36126902333999167,-0.36126902333999167,1.0000057944501133,7.48186161625315e-05
-0.3600758607062744,-0.3600758607062744,0.9999992782332029,7.436890351113519e-05
-0.3592362289826269,-0.3592362289826269,0.9999404714446627,7.485095099558992e-05
-0.3585842979744484,-0.3585842979744484,0.99993738633258,7.479766133887229e-05
-0.35763731405531873,-0.35763731405531873,1.000062320256758,7.492071709512646e-05
-0.3556343799915339,-0.3556343799915339,1.0001108383198782,7.513723581513144e-05
-0.35454799788421953,-0.35454799788421953,0.9999712814022667,7.459802579483253e-05
-0.35321903719304826,-0.35321903719304826,1.0000258326093916,7.48042860121036e-05
-0.35243781025128557,-0.35243781025128557,0.9999478299584366,7.487003999081222e-05
-0.35182331276591866,-0.35182331276591866,0.9999760524998005,7.44660836024869e-05
-0.3512709615359199,-0.3512709615359199,1.0001072063821548,7.50092383790964e-05
-0.34891615965534584,-0.34891615965534584,0.9999891568249032,7.493766742534716e-05
-0.3475656402624736,-0.3475656402624736,1.0000293171359924,7.456386186981786e-05
-0.3465117697436654,-0.3465117697436654,0.9999734282127838,7.483204055613266e-05
-0.3458329602188314,-0.3458329602188314,0.9998714642583069,7.48666971732015e-05
-0.3454975626067608,-0.3454975626067608,0.9998766739639866,7.435411840416707e-05
-0.3452416857915523,-0.3452416857915523,0.999880497402992,7.477161428514056e-05
-0.34425345544004815,-0.34425345544004815,0.9999880210403493,7.53766880755383e-05
-0.34299836923673865,-0.34299836923673865,1.0000936565502414,7.505916183242183e-05
-0.34085630805784606,-0.34085630805784606,1.0000034469317354,7.450071911324144e-05
-0.3393389626755379,-0.3393389626755379,1.0000231776137884,7.460004583545007e-05
-0.33865860457081,-0.33865860457081,0.9998039634757244,7.483710184319184e-05
-0.33743763977254276,-0.33743763977254276,1.0000696168149281,7.541587199820197e-05
-0.33468605619200387,-0.33468605619200387,0.9999062582920428,7.432258965611121e-05
-0.33355958928368634,-0.33355958928368634,0.9999287045627929,7.495386493048131e-05
-0.3323844470171025,-0.3323844470171025,0.9999620363452323,7.476840519351836e-05
-0.3303059273828694,-0.3303059273828694,0.9998099404487177,7.515282749623271e-05
-0.3281955607140844,-0.3281955607140844,1.0000480243525804,7.442281139085706e-05
-0.32705255370019587,-0.32705255370019587,0.9998158552835319,7.498248152823883e-05
-0.32554680511602785,-0.32554680511602785,1.0001248013121202,7.482529205510288e-05
-0.32381605068221686,-0.32381605068221686,1.0000011202359134,7.526931424803475e-05
-0.32211251240441924,-0.32211251240441924,1.0000187432749177,7.448577711308001e-05
-0.3207902699134138,-0.3207902699134138,0.99996550246619,7.48681063328784e-05
-0.31920487671523007,-0.31920487671523007,0.999977958799624,7.518423608426187e-05
-0.31673478352313394,-0.31673478352313394,0.9999574430318701,7.484240007980078e-05
-0.31531275278975956,-0.31531275278975956,1.0000799649441898,7.441469280159754e-05
-0.31434177162736887,-0.31434177162736887,1.0000011684436774,7.499227610866252e-05
-0.3136000542952388,-0.3136000542952388,1.000045955697455,7.471386327157573e-05
-0.31145943892406647,-0.31145943892406647,1.0000391145988363,7.536319589759153e-05
-0.3100031375841354,-0.3100031375841354,0.9999303756591791,7.460278677051216e-05
-0.30865691624057945,-0.30865691624057945,1.0000705870976057,7.462199325569148e-05
-0.307895430517965,-0.307895430517965,1.000040222072956,7.494188407357508e-05
-0.3069769679736055,-0.3069769679736055,0.999997266048305,7.477105213141695e-05
-0.3043966262426693,-0.3043966262426693,0.9999030856294391,7.493945683897244e-05
-0.30240511513547974,-0.30240511513547974,0.9999503802051046,7.453677795981695e-05
-0.3014358518317749,-0.3014358518317749,1.0000000849880633,7.501223640529219e-05
-0.30089220728259536,-0.30089220728259536,0.9999167067388969,7.459345657463587e-05
-0.3003234879965021,-0.3003234879965021,0.9998218466024611,7.506085491859034e-05
-0.298364426173066,-0.298364426173066,0.9999584309167876,7.522817479583805e-05
-0.29705153359027464,-0.29705153359027464,1.0000529379472727,7.446343421292326e-05
-0.295614204191952,-0.295614204191952,0.9998918092559881,7.479914186139696e-05
-0.2947625088156201,-0.2947625088156201,1.0000331759677592,7.457669812908773e-05
-0.2944167784808087,-0.2944167784808087,0.9999967105766248,7.45226421494403e-05
-0.2926745388285781,-0.2926745388285781,1.000098010126564,7.527261555829533e-05
-0.2903832901749411,-0.2903832901749411,1.0000194432326492,7.443077376641526e-05
-0.28878213995994884,-0.28878213995994884,1.0000114556414068,7.487911477227484e-05
-0.28702702705195404,-0.28702702705195404,1.0000519725560717,7.518737628516241e-05
-0.28471042303208377,-0.28471042303208377,0.9999922989071287,7.476923148687312e-05
-0.28323723097128095,-0.28323723097128095,0.999988157920621,7.457499857959909e-05
-0.2821051247381547,-0.2821051247381547,1.000031965359971,7.467566648622835e-05
-0.2803013643584563,-0.2803013643584563,0.9999634285330892,7.524311781242598e-05
-0.278378549079207,-0.278378549079207,0.9999225157008201,7.469261080782905e-05
-0.2764564758974302,-0.2764564758974302,1.0000489603140228,7.479017096691534e-05
-0.2750617208395852,-0.2750617208395852,0.9999653080566825,7.517773842864549e-05
-0.2735682379672653,-0.2735682379672653,1.0000829877133013,7.534259068371541e-05
-0.27212645052932205,-0.27212645052932205,1.0001244149844926,7.483364112171466e-05
-0.2706866554770386,-0.2706866554770386,1.00000112642658,7.445622129531414e-05
-0.26951625057845374,-0.26951625057845374,0.999796949320974,7.480935102066363e-05
-0.26814202928580927,-0.26814202928580927,0.9999887241211043,7.493696245846457e-05
-0.26612875975406497,-0.26612875975406497,0.999938730475734,7.510913034817996e-05
-0.2651125485172088,-0.2651125485172088,1.000034068504211,7.444100087083658e-05
-0.2639268702536356,-0.2639268702536356,0.999991555558038,7.472728869914713e-05
-0.2633056801882049,-0.2633056801882049,0.9999462718600031,7.490835946267422e-05
-0.2627129468753992,-0.2627129468753992,0.9998983542860295,7.456609949811955e-05
-0.26137614742765436,-0.26137614742765436,0.9999406675873829,7.501649358431994e-05
-0.2594315338799788,-0.2594315338799788,0.999939257977194,7.488172614710119e-05
-0.2579598992648243,-0.2579598992648243,0.9999301379240031,7.454665393932198e-05
-0.2570267478964524,-0.2570267478964524,1.0000346844854573,7.495334790457095e-05
-0.2563897179257765,-0.2563897179257765,1.0000543930481203,7.446668007222938e-05
-0.2558786372435861,-0.2558786372435861,0.999954723344079,7.493229400359021e-05
-0.25355273909444803,-0.25355273909444803,0.9999927389841001,7.635465324762076e-05
-0.25221270876791096,-0.25221270876791096,0.9999584709810995,7.444961412613846e-05
-0.25077627942155234,-0.25077627942155234,0.9998886648901146,7.490014818441651e-05
-0.25021673920346077,-0.25021673920346077,1.0000862940867168,7.478280766749388e-05
-0.24992554636337444,-0.24992554636337444,0.9999386267198715,7.434864437087979e-05
-0.2494599374302197,-0.2494599374302197,0.9999688188843138,7.494086929203135e-05
-0.24799204257287782,-0.24799204257287782,1.0000202600845047,7.539271695343995e-05
-0.2460867075351416,-0.2460867075351416,1.000028021993792,7.450242154846104e-05
-0.24465972523903473,-0.24465972523903473,0.9999961095281689,7.48964208735163e-05
-0.24376161831896753,-0.24376161831896753,1.0000483635591544,7.466375207137061e-05
-0.24301241340726848,-0.24301241340726848,1.000012842816286,7.493260921121429e-05
-0.2409572300974105,-0.2409572300974105,0.9999782644745487,7.495122071662444e-05
-0.23887470503832448,-0.23887470503832448,1.0000229363765243,7.4440349044805e-05
-0.23778987309196964,-0.23778987309196964,0.9999900054548849,7.506328024424672e-05
-0.2368020221554616,-0.2368020221554616,0.9999247503699744,7.471439737986285e-05
-0.23486388013043324,-0.23486388013043324,0.9999840575424189,7.531229179241461e-05
-0.2328655116878508,-0.2328655116878508,1.0000600372858763,7.436368926926236e-05
-0.231514755263197,-0.231514755263197,0.9999494578134616,7.494591944007603e-05
-0.22993061781307916,-0.22993061781307916,0.9999370351065465,7.498504161629102e-05
-0.22758988316782053,-0.22758988316782053,0.9999644634914159,7.482724954492224e-05
-0.22559485372476046,-0.22559485372476046,1.000169829928924,7.470340450327649e-05
-0.2246702692900726,-0.2246702692900726,0.9998139493761762,7.49005818676971e-05
-0.2228717260666599,-0.2228717260666599,1.000003869171077,7.525305569827847e-05
-0.22095051617288847,-0.22095051617288847,0.9999862316038328,7.470274792870316e-05
-0.21972606678609735,-0.21972606678609735,0.9998882186711715,7.447282286409266e-05
-0.21897092964572948,-0.21897092964572948,1.0000239260093493,7.509471743058472e-05
-0.21811364882814815,-0.21811364882814815,0.9999332243407417,7.479452661313414e-05
-0.2163943077342992,-0.2163943077342992,0.9999861825636488,7.514934216543682e-05
-0.21492763427086176,-0.21492763427086176,0.9998830156306054,7.4956793263392e-05
-0.21390251432530932,-0.21390251432530932,1.0000162565400497,7.439347190710931e-05
-0.21263121832816978,-0.21263121832816978,0.9998318148452479,7.48849815100607e-05
-0.21180158652787212,-0.21180158652787212,0.9999103670569891,7.478154135325712e-05
-0.21077825408428907,-0.21077825408428907,0.9998921811101793,7.514502747571638e-05
-0.2087847660157422,-0.2087847660157422,0.9998726880263895,7.472249514080246e-05
-0.207196164195193,-0.207196164195193,1.0000919341827654,7.443543627109267e-05
-0.2059932455420494,-0.2059932455420494,0.9998422997420271,7.498008125185906e-05
-0.2054484999003762,-0.2054484999003762,1.0000424325210298,7.452184377556839e-05
-0.20477986354453606,-0.20477986354453606,1.0000102277963225,7.507055220006941e-05
-0.20330386627392727,-0.20330386627392727,1.0000401822168847,7.502787245538371e-05
-0.2018328984377149,-0.2018328984377149,0.9999160831456969,7.461215775265433e-05
-0.20030390048705157,-0.20030390048705157,1.0000516562592996,7.466883109168764e-05
-0.19936798458656996,-0.19936798458656996,1.0000382647110213,7.470890160411011e-05
-0.19887451995164157,-0.19887451995164157,0.9999997079230083,7.452256297101482e-05
-0.19713054401800037,-0.19713054401800037,0.9999359310033471,7.526610517241206e-05
-0.19515399121373775,-0.19515399121373775,1.000042991896338,7.445005447346553e-05
-0.19381107349836385,-0.19381107349836385,0.9999747798053452,7.500846247536375e-05
-0.1923072349949507,-0.1923072349949507,0.9999690803521846,7.492922331953946e-05
-0.18985236118896864,-0.18985236118896864,0.9999974707946994,7.495408700220855e-05
-0.18774744336988078,-0.18774744336988078,1.000161723666889,7.445819278730325e-05
-0.1868905319570331,-0.1868905319570331,0.9999265161413554,7.495615244675612e-05
-0.18537931271348498,-0.18537931271348498,1.0000639201789663,7.493861166398996e-05
-0.18315326436204488,-0.18315326436204488,0.9999887894297881,7.492861236855258e-05
-0.18120881938230013,-0.18120881938230013,0.9999944824492399,7.464340675892978e-05
-0.17994572646566667,-0.17994572646566667,0.9999625864313803,7.509243385726936e-05
-0.17824770970255485,-0.17824770970255485,0.9999491368831432,7.545689941682985e-05
-0.17710889926820528,-0.17710889926820528,0.9999505148672959,7.519074485476156e-05
-0.17571642366747256,-0.17571642366747256,0.9999985798121106,7.43671523983132e-05
-0.17447087737818948,-0.17447087737818948,0.9999990961328177,7.484783024695499e-05
-0.17360334693003096,-0.17360334693003096,1.000055634777476,7.465027403744504e-05
-0.17149475729020197,-0.17149475729020197,1.000079957095469,7.51439755972587e-05
-0.17018225078863908,-0.17018225078863908,1.000047124643311,7.481816077797369e-05
-0.1689897455609753,-0.1689897455609753,0.9999875143992447,7.436852809973623e-05
-0.16815104159977637,-0.16815104159977637,1.0000842725368,7.485251134723156e-05
-0.16746420747294904,-0.16746420747294904,1.000151906820849,7.478307334692874e-05
