time,time,flux,flux_err
-0.4999429069709385,-0.4999429069709385,1.0000472409069938,8.304199108393652e-05
-0.49982621156419754,-0.49982621156419754,1.00009781018929,8.303931160958601e-05
-0.4997170647049504,-0.4997170647049504,0.9998776515995346,7.603843391711289e-05
-0.4996228986032033,-0.4996228986032033,1.0000978927922533,7.56206156743549e-05
-0.4995260204968478,-0.4995260204968478,0.9999631163456222,7.574945736170444e-05
-0.499425327404602,-0.499425327404602,0.9999978655156866,7.604840693852392e-05
-0.4993311595813008,-0.4993311595813008,1.000149508398999,7.56221429521924e-05
-0.49923428126311686,-0.49923428126311686,0.9998709227899502,7.575218195538648e-05
-0.4991289223474663,-0.4991289223474663,0.9999351924782349,7.604354368290431e-05
-0.49903356496415513,-0.49903356496415513,1.0000289206190482,7.575053099076488e-05
-0.4989371949986442,-0.4989371949986442,0.999895610552237,7.5619600727182e-05
-0.49883284797222915,-0.49883284797222915,1.0000169733950743,7.575339259325951e-05
-0.4987391611707874,-0.4987391611707874,1.0000684874230867,7.604604078573237e-05
-0.4986449891942485,-0.4986449891942485,1.0000821895841814,7.561964003426683e-05
-0.49854110873582014,-0.49854110873582014,1.000053596434734,7.575020343614683e-05
-0.49844742387926716,-0.49844742387926716,1.0000227219819768,7.605122204454546e-05
-0.49835325016377824,-0.49835325016377824,0.9999261972510732,7.562485025969267e-05
-0.4982493694992545,-0.4982493694992545,1.0000255695935418,7.575452735024047e-05
-0.49815568659103276,-0.49815568659103276,0.9999013612989108,7.605947914007e-05
-0.4980615111316755,-0.4980615111316755,0.9999960380538815,7.563675860465708e-05
-0.4979576302625528,-0.4979576302625528,1.0001548212966898,7.575786020210062e-05
-0.49786394930634364,-0.49786394930634364,0.999999184978283,7.606229665834213e-05
-0.49776977209849244,-0.49776977209849244,1.0001523092497693,7.564120132636804e-05
-0.4976658910264419,-0.4976658910264419,0.9999913958259627,7.575030706874662e-05
-0.4975722120251952,-0.4975722120251952,0.9998381192222938,7.60637436275529e-05
-0.4974780330645462,-0.4974780330645462,1.0000367045926881,7.564140009413399e-05
-0.4973741517911773,-0.4973741517911773,1.0000495417301862,7.575128636344037e-05
-0.49728047474800013,-0.49728047474800013,0.9998931292466764,7.605770299034251e-05
-0.4971862940301307,-0.4971862940301307,0.999978508499276,7.563478509481906e-05
-0.4970824125571486,-0.4970824125571486,1.0000942296958641,7.574789307117636e-05
-0.49698873747502575,-0.49698873747502575,1.0000666943797878,7.606810463190575e-05
-0.49689455499573365,-0.49689455499573365,0.999925747934204,7.564228965922523e-05
-0.49679067332462595,-0.49679067332462595,0.9999704915319955,7.575117126503545e-05
-0.4966970002062784,-0.4966970002062784,0.9998837821745059,7.605826589642182e-05
-0.4966028159615529,-0.4966028159615529,0.9999961190568365,7.564391205466115e-05
-0.4964989340940413,-0.4964989340940413,0.9999984653331465,7.574502562689198e-05
-0.49640526294205145,-0.49640526294205145,1.0001087489693838,7.60710888933982e-05
-0.496311076927973,-0.496311076927973,1.0001146478917655,7.564823780379108e-05
-0.49620719486570836,-0.49620719486570836,0.999853908706355,7.574407115499951e-05
-0.4961135256826612,-0.4961135256826612,0.9999841454348243,7.606856260237714e-05
-0.4960193378950855,-0.4960193378950855,1.000039183665003,7.56466451708409e-05
-0.49591545563983386,-0.49591545563983386,1.0000033214339366,7.574842201632115e-05
-0.4958217884281023,-0.4958217884281023,0.9999985901171827,7.607329751669896e-05
-0.495727598863542,-0.495727598863542,1.0000995448649863,7.565883713726943e-05
-0.495623716416776,-0.495623716416776,0.9998182434594375,7.574811972349195e-05
-0.49553005117871896,-0.49553005117871896,1.000052260972666,7.607556048476317e-05
-0.49543585983326643,-0.49543585983326643,0.9999556015576992,7.565758492828799e-05
-0.4953319771968623,-0.4953319771968623,1.000100589204777,7.576124206749307e-05
-0.49523831393458656,-0.49523831393458656,1.000102938048761,7.608259678749307e-05
-0.4951441208048461,-0.4951441208048461,0.9999493356891985,7.566196461381097e-05
-0.49504023798030017,-0.49504023798030017,0.9998365911783182,7.574933340032366e-05
-0.49494657669585607,-0.49494657669585607,0.9999023325007659,7.606888257450845e-05
-0.494852381778265,-0.494852381778265,1.0000877346990478,7.566324493861484e-05
-0.4947484987672762,-0.4947484987672762,1.0000983666412304,7.575092304583936e-05
-0.4946548394628355,-0.4946548394628355,1.000061656319366,7.607460054087508e-05
-0.49456064275390405,-0.49456064275390405,0.9999358265892202,7.56545364353374e-05
-0.49445675955825125,-0.49445675955825125,1.0000291659200624,7.574758385304382e-05
-0.4943631022355575,-0.4943631022355575,0.9999885204801485,7.60791935713818e-05
-0.4942689037319955,-0.4942689037319955,1.0000451845601313,7.56593039541711e-05
-0.49416502035324716,-0.49416502035324716,0.9998844899484223,7.57457740496211e-05
-0.4940713650142328,-0.4940713650142328,0.9999586887742495,7.608112717298183e-05
-0.49397716471254327,-0.49397716471254327,1.0000630204018712,7.566518985536576e-05
-0.4938732811525576,-0.4938732811525576,1.00000079759299,7.575490022185036e-05
-0.4937796277991094,-0.4937796277991094,1.0001395337630776,7.609249313738374e-05
-0.4936854256960757,-0.4936854256960757,0.9998482378168163,7.566384844960048e-05
-0.49358154195651804,-0.49358154195651804,1.0001192923614965,7.575584498293671e-05
-0.493487890590233,-0.493487890590233,0.9999471789377203,7.60824494772971e-05
-0.4933936866826141,-0.4933936866826141,0.9999693913854039,7.566625331330497e-05
-0.49328980276522216,-0.49328980276522216,1.0000883109588858,7.575544727841668e-05
-0.49319615338786776,-0.49319615338786776,1.0000892689933232,7.608724035918899e-05
-0.4931019476723876,-0.4931019476723876,0.9997860009355485,7.566240749004088e-05
-0.4929980635789878,-0.4929980635789878,1.0000815438714663,7.575033933949026e-05
-0.49290441619194886,-0.49290441619194886,1.0000333238565144,7.60874209539398e-05
-0.4928102086656761,-0.4928102086656761,1.0000990003832224,7.567551052588839e-05
-0.49270632439790096,-0.49270632439790096,1.000011072246968,7.57508317478198e-05
-0.4926126790028267,-0.4926126790028267,0.9999046331407699,7.608340916631942e-05
-0.4925184696624669,-0.4925184696624669,0.9999415229106399,7.566988164426773e-05
-0.4924145852222388,-0.4924145852222388,1.0000056087932303,7.574925546964489e-05
-0.49232094182077085,-0.49232094182077085,1.000089212590393,7.609591422010893e-05
-0.49222673066315503,-0.49222673066315503,1.0000156117822936,7.567365555035046e-05
-0.4921228460522705,-0.4921228460522705,1.000078978153457,7.575047481409646e-05
-0.4920292046456364,-0.4920292046456364,0.9998714309649304,7.609486932981349e-05
-0.49193499166785487,-0.49193499166785487,0.9999124829985355,7.567710187399985e-05
-0.4918311068879433,-0.4918311068879433,0.9999611195334565,7.575376682292454e-05
-0.49173746747766883,-0.49173746747766883,1.000100867971398,7.609844762165859e-05
-0.4916432526766652,-0.4916432526766652,1.0000203987684968,7.568573283368794e-05
-0.49153936772970896,-0.49153936772970896,1.0001122247710452,7.575020983066491e-05
-0.4914457303171947,-0.4914457303171947,1.0000291598715567,7.609888781686061e-05
-0.49135151368976365,-0.49135151368976365,0.9998834437955116,7.568380846288664e-05
-0.4912476285775611,-0.4912476285775611,1.0000191816570276,7.575470073441385e-05
-0.49115399316408104,-0.49115399316408104,0.9999690536676422,7.610938513619271e-05
-0.49105977470730694,-0.49105977470730694,1.0001259581449402,7.569586834057899e-05
-0.4909558894318728,-0.4909558894318728,1.0000152410711176,7.575551906982594e-05
-0.49086225601877764,-0.49086225601877764,0.9998795283083277,7.610943868696513e-05
-0.49076803572967587,-0.49076803572967587,1.0000413388937703,7.569049897216422e-05
-0.4906641502926263,-0.4906641502926263,0.9999083927740118,7.574854714878073e-05
-0.4905705188811755,-0.4905705188811755,1.0000536040750814,7.611879451805057e-05
-0.4904762967567301,-0.4904762967567301,1.0001565356222737,7.570461251808864e-05
-0.4903724111601722,-0.4903724111601722,0.9998451070571853,7.575363219801463e-05
-0.4902787817515904,-0.4902787817515904,1.0000049359394794,7.612181270788927e-05
-0.49018455778871906,-0.49018455778871906,0.9999077159743301,7.569597878880558e-05
-0.49008067203456174,-0.49008067203456174,1.0000319347924944,7.575401253905642e-05
-0.4899870446300909,-0.4899870446300909,1.0001739051118086,7.612972617508933e-05
-0.48988768411716277,-0.48988768411716277,0.9999730013928663,7.570040683358867e-05
-0.4897839956604059,-0.4897839956604059,0.9998822374194318,7.611582564476055e-05
-0.4896862410215597,-0.4896862410215597,1.000022032654492,7.57555591944642e-05
-0.489587076117326,-0.489587076117326,0.9999556648941041,7.570003080420658e-05
-0.4894899245942689,-0.4894899245942689,0.9999835534767314,7.612222605781978e-05
-0.48938143174575544,-0.48938143174575544,1.0000313441007793,7.575574346646605e-05
-0.4892868755726198,-0.4892868755726198,0.9999520001006456,7.61244311974569e-05
-0.48919264533660434,-0.48919264533660434,1.0000217464229815,7.5710292401559e-05
-0.4890887590615094,-0.4890887590615094,0.9999019725590337,7.57536261625094e-05
-0.4889951384798469,-0.4889951384798469,1.0001651736614927,7.613655766141987e-05
-0.48890090639228206,-0.48890090639228206,1.0000347407104626,7.571158565691283e-05
-0.48879675744627243,-0.48879675744627243,0.9998378586384487,7.612868457658779e-05
-0.48869992958434805,-0.48869992958434805,1.0000429392375285,7.576011170879222e-05
-0.48860449953667595,-0.48860449953667595,1.0001872038594914,7.571927399600629e-05
-0.4885026864096755,-0.4885026864096755,0.999989997581449,7.613719087328882e-05
-0.48840725691875875,-0.48840725691875875,0.9999867721596987,7.576520412616736e-05
-0.48831276060401335,-0.48831276060401335,0.9999120032174906,7.571907898824045e-05
-0.4882109493406691,-0.4882109493406691,0.9999783070643206,7.61361163611083e-05
-0.4881155178445756,-0.4881155178445756,1.000159275898586,7.57720856894871e-05
-0.48802102167718997,-0.48802102167718997,0.999998316701461,7.572375570116279e-05
-0.4879192122808437,-0.4879192122808437,0.9999660954969494,7.614559284945126e-05
-0.4878237787786112,-0.4878237787786112,0.9999759387115237,7.576495942399735e-05
-0.4877292827566361,-0.4877292827566361,1.000099855272061,7.5727467669365e-05
-0.4876274752304354,-0.4876274752304354,0.9998974342965763,7.614294641936672e-05
-0.48753203972105547,-0.48753203972105547,1.0000212142449365,7.576003580426983e-05
-0.48743754384237653,-0.48743754384237653,0.9999605837716162,7.572196601086851e-05
-0.48733573818957404,-0.48733573818957404,1.0001163463646485,7.615381626333365e-05
-0.48724030067209834,-0.48724030067209834,0.999986368621266,7.576047906747187e-05
-0.4871458049345641,-0.4871458049345641,0.999986237869764,7.572368234005552e-05
-0.48704400115839375,-0.48704400115839375,0.999905282376248,7.614392616787027e-05
-0.48694856163189504,-0.48694856163189504,0.9999952098866316,7.57584669601355e-05
-0.4868540660333526,-0.4868540660333526,1.0000707949261385,7.571724013407339e-05
-0.48675226413725275,-0.48675226413725275,1.0000612908778848,7.615145856275076e-05
-0.48665682260069437,-0.48665682260069437,1.0000514730030556,7.576303228239159e-05
-0.4865623271388092,-0.4865623271388092,0.9999901331479393,7.572727871961353e-05
-0.486460527126053,-0.486460527126053,1.0000262351285423,7.615529235866807e-05
-0.4863650835783545,-0.4863650835783545,0.9998809104647094,7.576730999282856e-05
-0.48627058825123193,-0.48627058825123193,0.999875229712482,7.572213187184469e-05
-0.48616879012518943,-0.48616879012518943,1.0000059781409902,7.615785329288513e-05
-0.48607334456546847,-0.48607334456546847,1.0000452628718002,7.576786459416305e-05
-0.4859788493705747,-0.4859788493705747,1.0002049580666708,7.572917116292522e-05
-0.485877053134719,-0.485877053134719,0.9999788362527191,7.615364271688281e-05
-0.4857816055620141,-0.4857816055620141,1.0000203382907407,7.576738166146259e-05
-0.4856871104970352,-0.4856871104970352,0.9998630648801828,7.572332843843897e-05
-0.48558531615487477,-0.48558531615487477,0.9999820037215473,7.616121794192206e-05
-0.4854898665683162,-0.4854898665683162,1.0001819047037401,7.578009043727197e-05
-0.485395371630867,-0.485395371630867,0.999966253236354,7.572757912332715e-05
-0.48529357918578847,-0.48529357918578847,0.999953283176283,7.616286341349605e-05
-0.4851981275842373,-0.4851981275842373,1.0000601946431182,7.577962528535867e-05
-0.48510363277205604,-0.48510363277205604,0.9998977898569825,7.573343074181007e-05
-0.4850018422276957,-0.4850018422276957,0.9999295661918263,7.616830681668368e-05
-0.48490638861022467,-0.48490638861022467,1.0000542720799077,7.578048183755194e-05
-0.4848118939207005,-0.4848118939207005,1.0001665827419974,7.573676412665729e-05
-0.4847101052807517,-0.4847101052807517,0.9999078777843108,7.616890283405282e-05
-0.48461464964645734,-0.48461464964645734,1.000030769586354,7.577487963808818e-05
-0.4845201550770451,-0.4845201550770451,1.000046924717563,7.573815017019549e-05
-0.48441836834527974,-0.48441836834527974,0.999953831500536,7.615955173907758e-05
-0.4843229106930302,-0.4843229106930302,0.9997983659509744,7.576982468213206e-05
-0.4842284162412721,-0.4842284162412721,1.00020724368437,7.574241670209231e-05
-0.4841266314210966,-0.4841266314210966,1.0000154718369167,7.616128119535944e-05
-0.4840269706252812,-0.4840269706252812,1.0000664368719463,7.57861093252637e-05
-0.48393200949684856,-0.48393200949684856,0.9998832173167378,7.573302642663933e-05
-0.48383209375887687,-0.48383209375887687,1.0000168559584428,7.616382238106552e-05
-0.4837300969849963,-0.4837300969849963,1.0000089399500893,7.578589173292372e-05
-0.48363091205157216,-0.48363091205157216,1.0000745793215535,7.617032901351432e-05
-0.4835329109845361,-0.4835329109845361,1.0000122664993725,7.574024158363778e-05
-0.4834269296432293,-0.4834269296432293,1.0000580328295867,7.616986578549898e-05
-0.483313969221577,-0.483313969221577,0.9999387506455563,7.616657289461142e-05
-0.48321430276791766,-0.48321430276791766,1.0000045263914632,7.578634797659583e-05
-0.48311980873875554,-0.48311980873875554,0.999994233718607,7.573366570945191e-05
-0.483018031218209,-0.483018031218209,1.0000799508958171,7.615803195146715e-05
-0.4829225638667786,-0.4829225638667786,1.000037380380347,7.57772381519761e-05
-0.482828069942277,-0.482828069942277,1.0000066472733553,7.572087512965962e-05
-0.4827262943521717,-0.4827262943521717,0.9998235411853283,7.615608235049665e-05
-0.4826308249770889,-0.4826308249770889,1.0000074958174192,7.577512039331749e-05
-0.4825363311544134,-0.4825363311544134,0.9999200326986271,7.571461929082801e-05
-0.48243455749855746,-0.48243455749855746,1.0001820086306996,7.615571914450445e-05
-0.4823390860989985,-0.4823390860989985,1.0000637843695797,7.578084840667552e-05
-0.48224459237514805,-0.48224459237514805,0.9998512216270676,7.570648330234e-05
-0.4821428206578581,-0.4821428206578581,0.9999241107601806,7.615429575445314e-05
-0.4820473472326082,-0.4820473472326082,1.0000774622085047,7.578171939820154e-05
-0.481952853604659,-0.481952853604659,1.0000048153058088,7.571326679298068e-05
-0.48185108382995595,-0.48185108382995595,0.9999907988189725,7.616131569385211e-05
-0.48175560837804027,-0.48175560837804027,0.9999842133917589,7.577723483329848e-05
-0.4816611148430038,-0.4816611148430038,0.9999383731866691,7.571147902076786e-05
-0.4815593470152251,-0.4815593470152251,0.9999737904757875,7.614724182530037e-05
-0.4814638695354514,-0.4814638695354514,0.9999783648660114,7.577987175115379e-05
-0.4813693760903572,-0.4813693760903572,1.000103261124628,7.571793780702084e-05
-0.48126761021344533,-0.48126761021344533,1.0000372559518707,7.613969253790998e-05
-0.4811721307049286,-0.4811721307049286,0.99996936984532,7.576852594059268e-05
-0.4810776373467586,-0.4810776373467586,0.9999924526903433,7.570742067108253e-05
-0.4809758734250725,-0.4809758734250725,1.0001027664005278,7.615008553181245e-05
-0.48088039188669107,-0.48088039188669107,1.0000318151472807,7.578608227550327e-05
-0.4807858986121477,-0.4807858986121477,0.9998437948825426,7.571775701884493e-05
-0.48068413664989895,-0.48068413664989895,1.0000026115437428,7.617981694873059e-05
-0.4805875166097781,-0.4805875166097781,1.0000908941251185,7.572692919984329e-05
-0.48045588602444694,-0.48045588602444694,0.9999561369125098,7.525717250293722e-05
-0.4803025765296873,-0.4803025765296873,0.9999883481725214,7.561815807800179e-05
-0.4801501415974908,-0.4801501415974908,1.000069456973779,7.525614153882279e-05
-0.48000523639213843,-0.48000523639213843,0.9999680385958127,7.563184090248646e-05
-0.47985840092375015,-0.47985840092375015,1.0000204519180271,7.528523537825498e-05
-0.479684824480923,-0.479684824480923,1.0000051569772175,7.598634592414615e-05
-0.4794894426905675,-0.4794894426905675,0.9999532539772951,7.564574195971269e-05
-0.4793472714713182,-0.4793472714713182,1.000013714644633,7.530114510390224e-05
-0.4791977040692565,-0.4791977040692565,1.0001376814134508,7.564416876977188e-05
-0.47905553081150104,-0.47905553081150104,1.000039991379778,7.528914010325866e-05
-0.47890596545407715,-0.47890596545407715,0.9999039046286466,7.562520856147081e-05
-0.47876379015668924,-0.47876379015668924,1.0000372263417963,7.528152656126472e-05
-0.4786142268448376,-0.4786142268448376,1.0000322394108263,7.561442627645757e-05
-0.47847204950684025,-0.47847204950684025,1.0000126499420825,7.526785294061557e-05
-0.47832248824159435,-0.47832248824159435,0.9999508566492388,7.560347964091055e-05
-0.4781803088620304,-0.4781803088620304,0.9999924173012481,7.525717080608426e-05
-0.47803074964427594,-0.47803074964427594,1.0001155602924179,7.559215804572923e-05
-0.4778955915809441,-0.4778955915809441,0.9998079671730521,7.578367361007297e-05
-0.47777187196743753,-0.47777187196743753,1.000107148683781,7.525211371795965e-05
-0.47762231561764673,-0.47762231561764673,1.000173591854109,7.559309292294253e-05
-0.4774801313342426,-0.4774801313342426,0.9999354002131581,7.524759866990448e-05
-0.4773305770339906,-0.4773305770339906,1.000046109892486,7.558065066660534e-05
-0.4771883907057905,-0.4771883907057905,1.000038402723231,7.524865831190776e-05
-0.4770388384558061,-0.4770388384558061,1.0000062976946804,7.557426326810512e-05
-0.47689665008191895,-0.47689665008191895,0.9999538056078139,7.523583945809748e-05
-0.47674709988283437,-0.47674709988283437,0.9998909617085129,7.556526691163978e-05
-0.4766049094625675,-0.4766049094625675,1.000120166193601,7.524328820174049e-05
-0.4764553613147907,-0.4764553613147907,1.0000214277843178,7.557636286803152e-05
-0.47631316884749386,-0.47631316884749386,0.9999329549323409,7.523488380252444e-05
-0.476163622751584,-0.476163622751584,0.9999726031834821,7.556220590987145e-05
-0.47602142823651333,-0.47602142823651333,0.9999853587517237,7.523070726111387e-05
-0.47587188419270027,-0.47587188419270027,1.0000480808703816,7.555149992941744e-05
-0.4757296876294088,-0.4757296876294088,1.0001273476291725,7.523464250177911e-05
-0.47558014563784995,-0.47558014563784995,0.999861029987791,7.554631932705195e-05
-0.4754379470259561,-0.4754379470259561,0.9999314475550541,7.521969758782808e-05
-0.47528624142136733,-0.47528624142136733,1.0000996303203291,7.522876911723579e-05
-0.47503684577381655,-0.47503684577381655,0.999935295669275,7.457260052688743e-05
-0.47474510107731904,-0.47474510107731904,1.0000235526919514,7.457714455011988e-05
-0.474453356384139,-0.474453356384139,0.9999753967537772,7.45773659648158e-05
-0.4741616116942936,-0.4741616116942936,1.0000386194804147,7.45847646575015e-05
-0.4738698670077987,-0.4738698670077987,0.9999508765873983,7.458439491769379e-05
-0.47357812232468,-0.47357812232468,1.0000378645319687,7.459248137843828e-05
-0.47328637764494663,-0.47328637764494663,0.9999617741627145,7.459374049296486e-05
-0.4729946329686179,-0.4729946329686179,0.9999920978130385,7.45913717392149e-05
-0.47270288829570717,-0.47270288829570717,1.00000433103983,7.45868848562164e-05
-0.4724111436262316,-0.4724111436262316,1.000072903520203,7.458857675407072e-05
