time,time,flux,flux_err
-0.49988915719877697,-0.49988915719877697,0.9999927365869234,0.0004978607524503975
-0.4997677282633958,-0.4997677282633958,1.0006781323847584,0.00046956990592833916
-0.4997126534712152,-0.4997126534712152,0.9998900841368732,0.0005012404894091374
-0.4996591905000969,-0.4996591905000969,0.9991296002111671,0.00043664316369498954
-0.49960334880888696,-0.49960334880888696,1.000330759170814,0.0004994176062670454
-0.49946492008893983,-0.49946492008893983,1.0002900707816422,0.0004843932659481502
-0.49939672214968595,-0.49939672214968595,0.999573117333371,0.000417279798768667
-0.4992941158940084,-0.4992941158940084,0.9997359782634936,0.00045878627191654953
-0.499128013435984,-0.499128013435984,1.0001106469048253,0.0004693132486504002
-0.4990014199414873,-0.4990014199414873,0.9997599178778278,0.0004965910317434952
-0.49883660842169775,-0.49883660842169775,1.0004782379226167,0.0004310960305646971
-0.4986643468160764,-0.4986643468160764,0.9996116986649476,0.0004864419764854656
-0.4985508437282988,-0.4985508437282988,0.9995877242155575,0.0005442229645994516
-0.4984623898286372,-0.4984623898286372,1.0002933573400998,0.0004626893214765925
-0.49834295244072563,-0.49834295244072563,1.0001614567011536,0.0004624186842288274
-0.49818027283035915,-0.49818027283035915,0.999974880937553,0.0004580982883700094
-0.4980272728702403,-0.4980272728702403,1.000199105398179,0.000444943435364746
-0.49793757414736317,-0.49793757414736317,1.0000440142124387,0.0004783955792673678
-0.49782429132901596,-0.49782429132901596,1.0005054198007912,0.0004525470849421234
-0.49769173712265913,-0.49769173712265913,1.0001716106341076,0.0004376382868881576
-0.49762146655557443,-0.49762146655557443,1.0006735416828347,0.0004571413931864552
-0.4974982447878574,-0.4974982447878574,0.9995980896098775,0.0005259473171461864
-0.497373715035792,-0.497373715035792,1.0004742853971844,0.0005053996666174907
-0.49728871309489475,-0.49728871309489475,0.9996549371541221,0.00042256543597682454
-0.4972131374539458,-0.4972131374539458,1.0001428405544948,0.0005148167456486701
-0.4971029953812831,-0.4971029953812831,1.0008409174468174,0.0005779062043815974
-0.4969875097332988,-0.4969875097332988,0.999803978642802,0.0005003626141750507
-0.4968550390884047,-0.4968550390884047,0.9997312157945315,0.0004625053953434584
-0.4966651190858101,-0.4966651190858101,0.9999034480230362,0.0005067968405128665
-0.4965427228249609,-0.4965427228249609,0.9998726247627147,0.0004849117923488352
-0.4964577229548013,-0.4964577229548013,0.9997373819527878,0.0004857664326134243
-0.49635687743284507,-0.49635687743284507,1.0001472345434823,0.00048764862618231426
-0.49629927237110677,-0.49629927237110677,0.9999514401498548,0.00047067274128847705
-0.49620452495728384,-0.49620452495728384,0.999934388377631,0.0004633139216470263
-0.496126589247433,-0.496126589247433,0.9996477417964581,0.0004995538510917639
-0.495987984520616,-0.495987984520616,0.9998080046777602,0.0004932788244178091
-0.4959231033877586,-0.4959231033877586,0.9997456662899987,0.0004817681965239657
-0.4957654282829026,-0.4957654282829026,0.9996409168315781,0.000453348803059555
-0.49560467695846455,-0.49560467695846455,0.99984836069305,0.0004849645075074473
-0.4954836804638035,-0.4954836804638035,0.9997880890890467,0.00047373234055339016
-0.49526627009327057,-0.49526627009327057,0.9997357235897935,0.0004264357027719434
-0.49515129841456657,-0.49515129841456657,0.9995259051100973,0.0005570528069836119
-0.4950200413004495,-0.4950200413004495,0.9998991302307296,0.00045871225608565107
-0.4949030962015968,-0.4949030962015968,1.0001430973544334,0.00047534268280421894
-0.49471863271610345,-0.49471863271610345,1.0003649832554296,0.0004604733139180384
-0.4945916432872764,-0.4945916432872764,1.0003725319047576,0.00048022824970418736
-0.4945079283468658,-0.4945079283468658,1.0002344065918387,0.00043860427165913214
-0.49436309758602875,-0.49436309758602875,0.9999095717237789,0.0004281581693552446
-0.49426321922655914,-0.49426321922655914,0.9997362035002952,0.0004608009692228375
-0.4941707636928186,-0.4941707636928186,0.999712697740403,0.0004631174021478866
-0.4940253783832304,-0.4940253783832304,0.9997740798807074,0.0005336749472193011
-0.49395816797041336,-0.49395816797041336,1.000396518806887,0.00042901894332713465
-0.4939088851257111,-0.4939088851257111,0.9997699677954139,0.00041670585968430103
-0.4938171567293466,-0.4938171567293466,0.9998828099896595,0.00047278930284300945
-0.49368926772876875,-0.49368926772876875,1.0000357326353857,0.0004943647082445017
-0.49356522150628734,-0.49356522150628734,1.000652403001861,0.000573943762659476
-0.4934269625970046,-0.4934269625970046,0.999937417889508,0.00045090676610013764
-0.4932575058905059,-0.4932575058905059,0.9997393340133609,0.0005307733073632932
-0.4931275007125805,-0.4931275007125805,0.9997048393393874,0.0004996273021960796
-0.49304983318579615,-0.49304983318579615,1.000111638080094,0.0005078429681788367
-0.4929389646742493,-0.4929389646742493,0.9997085758068971,0.0005096188684393393
-0.4928877589481999,-0.4928877589481999,1.0003292472431402,0.0004646597229742179
-0.4927931408034055,-0.4927931408034055,1.0000040493932538,0.00042646232320944663
-0.4927010106301168,-0.4927010106301168,1.0000319331958398,0.0004867536194355043
-0.4925920217356179,-0.4925920217356179,1.0003124170828195,0.00044627835993589206
-0.4925187101311167,-0.4925187101311167,1.0004644329148926,0.0004522240067257404
-0.49234198911726706,-0.49234198911726706,0.9997835169848759,0.0004563981490620414
-0.4922051320638275,-0.4922051320638275,0.9991487304758213,0.0005266591762765678
-0.49214357844757617,-0.49214357844757617,1.000681482248253,0.0004806223287241036
-0.49200442769360964,-0.49200442769360964,0.9998181582191717,0.0005030738996435116
-0.491844947716163,-0.491844947716163,0.9996578569187434,0.0005652182592386222
-0.4917305876893806,-0.4917305876893806,0.9997367984584671,0.0005293474041876604
-0.4915855645420379,-0.4915855645420379,1.0006903286269424,0.0005073080983897166
-0.49148456559196346,-0.49148456559196346,1.000185927545853,0.0005066578651996983
-0.4912683917689719,-0.4912683917689719,0.9997695949986696,0.00044303630674989697
-0.4911779674177524,-0.4911779674177524,0.9996952146090056,0.0004413743806309757
-0.4910273877059808,-0.4910273877059808,0.9996789099187806,0.0004794441159549961
-0.49089819755463393,-0.49089819755463393,1.0002368556330687,0.00041276512619524506
-0.49076243284362137,-0.49076243284362137,0.9999676224952317,0.0005325540249444845
-0.4906309997488279,-0.4906309997488279,0.9995983430259912,0.0004899893230326466
-0.49058132689824563,-0.49058132689824563,1.0009580427217066,0.0004298553137542137
-0.49052502713893775,-0.49052502713893775,1.0003469486653853,0.00048080125356647125
-0.49044611595018067,-0.49044611595018067,0.9998002869478884,0.0004264877797851119
-0.49028604701015865,-0.49028604701015865,0.9993985892770867,0.000542630376472369
-0.49016749130532844,-0.49016749130532844,1.0001777513892889,0.0004733302272229318
-0.4900642228501965,-0.4900642228501965,1.0007436093120046,0.0005411713018647719
-0.489885907479038,-0.489885907479038,0.999941868210928,0.00046914144964456167
-0.48979467501922047,-0.48979467501922047,1.0002405127469356,0.0005404474734227677
-0.489712459097791,-0.489712459097791,0.9997067431337181,0.0004630925034422572
-0.4896458076182171,-0.4896458076182171,0.9999057082937834,0.0005337541897704857
-0.48952039956639054,-0.48952039956639054,0.9987111512920677,0.0005087273094298932
-0.48948001159733395,-0.48948001159733395,1.000041006855319,0.0004913835977719726
-0.48939966608159013,-0.48939966608159013,0.9999686234158223,0.00042634488032110025
-0.48927540559961924,-0.48927540559961924,0.9996462724940358,0.0004751774718462041
-0.4891793090864667,-0.4891793090864667,0.999740375054526,0.00045408142047866475
-0.48905019160883967,-0.48905019160883967,0.9998011736033459,0.00047305994937517994
-0.4888880489612347,-0.4888880489612347,0.9991449821032974,0.00044374397424673084
-0.4887274446664378,-0.4887274446664378,0.9992430954478115,0.0005245571741867493
-0.48866204576479505,-0.48866204576479505,0.9998429959869878,0.00045674113117175427
-0.48850507890892914,-0.48850507890892914,0.9998634472419539,0.0005141284743014789
-0.48838232720881936,-0.48838232720881936,1.000255136016411,0.0004749206613461454
-0.4882552206618129,-0.4882552206618129,1.000572504580221,0.0005377932284384576
-0.4881209348779521,-0.4881209348779521,1.0000423688248496,0.00045579942269149303
-0.48804668407537977,-0.48804668407537977,1.0003661545771412,0.0005195743150370237
-0.48780748958233744,-0.48780748958233744,1.0001069061921672,0.0004357199732561089
-0.4877242697359179,-0.4877242697359179,1.0002583045888818,0.00046836939989217005
-0.48759631538414394,-0.48759631538414394,1.0000116261035643,0.0005066686210962218
-0.48751095261686717,-0.48751095261686717,0.9998580672083779,0.0004197808872585535
-0.4873910330206854,-0.4873910330206854,0.9999788906757268,0.0004761374113441256
-0.4872370847093407,-0.4872370847093407,1.0007605542322497,0.00043074161227364726
-0.4871719274058705,-0.4871719274058705,1.0003081430393066,0.0004347758778607283
-0.48707236625632505,-0.48707236625632505,1.0005312819402976,0.0004923687056041612
-0.48694171383685897,-0.48694171383685897,1.000021019193383,0.0004642200713766022
-0.4868017624001368,-0.4868017624001368,1.0002327395217603,0.0004959462694924855
-0.4866831713239662,-0.4866831713239662,0.9994697781662809,0.0005775877402366367
-0.48654515531088693,-0.48654515531088693,1.0000835127235619,0.00047226019226365764
-0.4863821288672625,-0.4863821288672625,0.9996120096695211,0.0004959039815047551
-0.4862789743594476,-0.4862789743594476,1.0004396508520002,0.0005360693231955397
-0.48618999345053454,-0.48618999345053454,1.0001640201706317,0.0005263508755089911
-0.4861091336220852,-0.4861091336220852,0.9997484490289186,0.0004612949687369163
-0.48608722781646063,-0.48608722781646063,0.9994760230688652,0.0004667840800899038
-0.4859976400242886,-0.4859976400242886,0.9999136897753178,0.000483735285332048
-0.48582185763079905,-0.48582185763079905,1.0000152044224344,0.0004252184594833497
-0.48576818132714833,-0.48576818132714833,0.9997801982196843,0.0005346009589207318
-0.4856557246966986,-0.4856557246966986,0.9994201490331687,0.00043293059434852996
-0.48555472741572886,-0.48555472741572886,1.0001852235988424,0.00048539633984538656
-0.48542947977111905,-0.48542947977111905,0.999081274069676,0.00040917404589908775
-0.4853342415197403,-0.4853342415197403,1.000206307781185,0.0005212283997605875
-0.4852460151698324,-0.4852460151698324,1.0005235414388085,0.0004506424543063656
-0.4850917495627073,-0.4850917495627073,0.9999081271852267,0.0004954199068900855
-0.4849601548397914,-0.4849601548397914,1.000028677933966,0.0004782113301949783
-0.48486039499985056,-0.48486039499985056,1.000602024119254,0.0005405196168460864
-0.48474658749910304,-0.48474658749910304,0.9994616579051805,0.0004302165515601136
-0.4846073559427168,-0.4846073559427168,1.0002104137795051,0.0005478446781914675
-0.4844178174578701,-0.4844178174578701,0.9999275298709309,0.00043422459084220224
-0.4842709711418138,-0.4842709711418138,0.999961143075819,0.0004885183775164613
-0.4841465022327611,-0.4841465022327611,1.0003996893257645,0.000460696973142
-0.4841043106862344,-0.4841043106862344,1.000093880036634,0.000457693088598137
-0.4840385990188224,-0.4840385990188224,0.9998448885521108,0.000447525118335082
-0.483891559462063,-0.483891559462063,0.999475697469156,0.000494032664843339
-0.4837578986378503,-0.4837578986378503,0.999642241538598,0.00044757939797023
-0.4836395043632365,-0.4836395043632365,0.9991395622672765,0.0004696121609618773
-0.48354521629953523,-0.48354521629953523,0.9993257957184086,0.0004888657051877777
-0.48343339513230604,-0.48343339513230604,0.9998968148619747,0.0005165410385512541
-0.483258692738309,-0.483258692738309,1.0004532275225813,0.0005675671715066975
-0.48317180477897637,-0.48317180477897637,1.0000324027775132,0.0005060451233246363
-0.48302701596257974,-0.48302701596257974,0.9998756483171846,0.0004572250989275513
-0.4828877228777856,-0.4828877228777856,1.0001687608001553,0.0005080805573490664
-0.4827643154581892,-0.4827643154581892,1.0003118265789417,0.00045778621207308
-0.4826956471748417,-0.4826956471748417,1.0002138864873487,0.00048822698380734535
-0.4826536039574421,-0.4826536039574421,0.9993823334460901,0.000492591024762336
-0.48248855829442616,-0.48248855829442616,0.9997274464753778,0.00040867998880463833
-0.4823424283400527,-0.4823424283400527,0.9998375955140153,0.0005134805842336201
-0.4822438224509824,-0.4822438224509824,1.0001438948667445,0.00047304173597305995
-0.4821567780483747,-0.4821567780483747,0.9998025233742662,0.00048793505398040716
-0.4820917698190897,-0.4820917698190897,1.0000103832976848,0.000506644089416504
-0.4819938628119417,-0.4819938628119417,1.000543565756081,0.00041423566559885635
-0.4819426422269316,-0.4819426422269316,1.0002713970033206,0.00046420443842313885
-0.48186099618469597,-0.48186099618469597,1.0005827739636266,0.0004701054533983717
-0.4817691795935389,-0.4817691795935389,0.999477623003655,0.00043899989935045877
-0.48169105109409427,-0.48169105109409427,0.9999149503034259,0.0004394846587332145
-0.4815139791215188,-0.4815139791215188,1.0002931117864928,0.0005007409210534891
-0.4814173719380051,-0.4814173719380051,1.000043084149889,0.0004956172018331456
-0.48127051802148346,-0.48127051802148346,1.0003797042732387,0.0004799905350037359
-0.481107648309262,-0.481107648309262,1.0001137207486708,0.0004561366075310533
-0.4808824610649026,-0.4808824610649026,1.0009093003014358,0.0004658431865238806
-0.4807470255502267,-0.4807470255502267,0.9997911847480415,0.0004323443181995515
-0.4806763243308524,-0.4806763243308524,0.9996125151125316,0.0004238825128353783
-0.48061549765552625,-0.48061549765552625,0.9996306657025655,0.00048428393705619144
-0.48049166937271365,-0.48049166937271365,0.9998397614698176,0.0004835067948045039
-0.4803694472706411,-0.4803694472706411,1.00047369277122,0.00048434457727658157
-0.48027427114138843,-0.48027427114138843,1.0002388578992476,0.00041008698739559795
-0.48017252054560233,-0.48017252054560233,0.9995106843392059,0.000518459097801793
-0.4800361042958684,-0.4800361042958684,0.9997523736150562,0.0004929918583525169
-0.4798758079719846,-0.4798758079719846,0.9997991050144488,0.0005424303793359357
-0.4797525251255138,-0.4797525251255138,1.0000326168736322,0.0005191859089708338
-0.47965649162069895,-0.47965649162069895,0.9994611283655768,0.0005098291290263331
-0.47949746143858646,-0.47949746143858646,0.9994408467130027,0.0004268103387476743
-0.4793791139847599,-0.4793791139847599,0.9999561001616029,0.0005000082388714087
-0.4793231028044829,-0.4793231028044829,1.000251754997088,0.00045656811267066037
-0.47927774550771574,-0.47927774550771574,1.0004536125324806,0.0005144705836277126
-0.4791642067590146,-0.4791642067590146,1.0002262617075566,0.0004720268017840241
-0.47902854847779963,-0.47902854847779963,0.9996291132864699,0.0004996105376728465
-0.47883639856881927,-0.47883639856881927,0.9999220014183668,0.0005269801127462281
-0.4786550220567733,-0.4786550220567733,1.0003460676423015,0.0005036841087897787
-0.4785693397265277,-0.4785693397265277,0.9997715269536508,0.00042581356912905984
-0.47851565532910173,-0.47851565532910173,1.0003454872633744,0.0004510749264030812
-0.4784218892615172,-0.4784218892615172,1.000030618655616,0.00048279320914514583
-0.4783101277091191,-0.4783101277091191,0.9998928720613094,0.00045805931199793825
-0.47812850844784405,-0.47812850844784405,1.0003514264735693,0.0005008674136212614
-0.4779820952782757,-0.4779820952782757,1.0002399866432525,0.0004963930316940127
-0.47781100996362513,-0.47781100996362513,0.9998256516825099,0.00043214596178224075
-0.4776250615585013,-0.4776250615585013,0.9994273911480855,0.0005394356247958537
-0.47741370741132416,-0.47741370741132416,1.00000181120691,0.0004541318099336326
-0.4773070495808497,-0.4773070495808497,1.000306853402288,0.00043710286840682586
-0.4772245128406212,-0.4772245128406212,0.9993520011526282,0.00045084933848944873
-0.4771257794403937,-0.4771257794403937,0.9997102865673341,0.0004787025502452342
-0.4770100188994547,-0.4770100188994547,1.0000825157221207,0.0004477837299082193
-0.4769020929306862,-0.4769020929306862,1.0005378918483043,0.0004838453502703934
-0.4767996415539528,-0.4767996415539528,0.9997699756521083,0.00046395214183638943
-0.4766592404062976,-0.4766592404062976,0.9998468700840484,0.0005352634280039538
-0.476571431584307,-0.476571431584307,1.000384279744027,0.00048562657859794404
-0.47647371531056704,-0.47647371531056704,0.9999261551894589,0.0004896138075009429
-0.47632833732059227,-0.47632833732059227,0.9999599727551252,0.00047823018225947423
-0.47623183536779834,-0.47623183536779834,1.0002986035683585,0.0005725405225139047
-0.47617722455761397,-0.47617722455761397,1.0005231411367528,0.0004607677201091521
-0.4760034659833764,-0.4760034659833764,0.999665217922882,0.0004411048685594248
-0.4758972215320682,-0.4758972215320682,1.0003906595417633,0.0004978931301978411
-0.47583480908942877,-0.47583480908942877,1.00060546519198,0.0005077501652857896
-0.47570123243203855,-0.47570123243203855,1.0002063199235907,0.0005124562909675126
-0.4755439679749543,-0.4755439679749543,1.0001937986822127,0.0004855712219007825
-0.4754216559085762,-0.4754216559085762,0.9998313838940985,0.0004366625956839985
-0.4752476851310348,-0.4752476851310348,0.9998711635450203,0.0005459856098596561
-0.4751293987486861,-0.4751293987486861,1.0005047707726338,0.0004846352726866797
-0.47508709781977815,-0.47508709781977815,1.0006064416376153,0.0004385379915942465
-0.47499350555590353,-0.47499350555590353,1.000129995925331,0.00048252615536628006
-0.4748780588968657,-0.4748780588968657,0.9997954000759733,0.0004540673267607641
-0.4747125608308124,-0.4747125608308124,1.0005756786694062,0.0005051100188974268
-0.4745355133389239,-0.4745355133389239,0.9996142237652996,0.0004920522926440586
-0.4743784882390173,-0.4743784882390173,0.9994065655451682,0.0004551922363823305
-0.4741178399373894,-0.4741178399373894,1.0007680166917425,0.0005080443563323584
-0.4739266132193734,-0.4739266132193734,0.9990317246964325,0.00043455160910203273
-0.4737883516281727,-0.4737883516281727,1.0009017952682542,0.00044605186883556696
-0.473679651596467,-0.473679651596467,0.9998382894793574,0.0005054215667364581
-0.4735553367616376,-0.4735553367616376,1.0001224723588005,0.0004544457763240977
-0.4734130948752863,-0.4734130948752863,0.9998908215696307,0.00047491275359551376
-0.4732635488398955,-0.4732635488398955,0.9994890014180768,0.0004926252392700749
-0.47312666152865857,-0.47312666152865857,0.9997484248959605,0.0004743361381860747
-0.47304766877787185,-0.47304766877787185,1.0003783972938995,0.0004905368361372399
-0.47289827684871855,-0.47289827684871855,0.9999485195980595,0.00048411610864395493
-0.4727898742945399,-0.4727898742945399,1.0000655679410884,0.0005404579252669284
-0.47266597331181404,-0.47266597331181404,0.9999184485255566,0.0004876780676017438
-0.4724968909271411,-0.4724968909271411,0.9999666714507143,0.00048363097342418623
-0.4724733921844745,-0.4724733921844745,0.9998734129485646,0.0004925577454278772
-0.47234440325992183,-0.47234440325992183,1.0004083567075386,0.0004607983374219149
-0.4722174613227253,-0.4722174613227253,1.0010072663996281,0.0004812430919320048
-0.47204583075945267,-0.47204583075945267,1.0008663308140744,0.0005234753621452276
-0.47192480158119,-0.47192480158119,1.0000139024419537,0.0005140369468206857
-0.471760189536144,-0.471760189536144,1.000250868434175,0.0004847396860660192
-0.4717003024663427,-0.4717003024663427,1.0002948747720057,0.0004472716771674372
-0.4716589171337546,-0.4716589171337546,1.0003684906302877,0.0004848043310930381
-0.471555289097887,-0.471555289097887,0.9997322877972085,0.0004725976544145952
-0.47140977582894267,-0.47140977582894267,0.9997554246038168,0.0004595905378357543
-0.4712321650978993,-0.4712321650978993,1.0008248791848502,0.0005488677613411727
