time,time,flux,flux_err
-0.4997261143975269,-0.4997261143975269,0.9999634259923971,0.0001433936096641369
-0.4992380089907525,-0.4992380089907525,1.0000418374799813,0.0001435714407304289
-0.4987499036052056,-0.4987499036052056,1.0000542445900413,0.0001437823675079664
-0.4982617982409773,-0.4982617982409773,0.9998608796979997,0.0001440109403974705
-0.49781436834237597,-0.49781436834237597,0.9999625597088546,0.00013161762201915336
-0.49740761390506877,-0.49740761390506877,0.9992981965167198,0.00013167693909459942
-0.49700085948320166,-0.49700085948320166,0.9988904266069,0.00013165029183574803
-0.49658759700627114,-0.49658759700627114,0.9990720261629097,0.00013166193888034216
-0.49617108051028114,-0.49617108051028114,0.9998354732572722,0.0001316451799448121
-0.49576432613576243,-0.49576432613576243,0.999887047944682,0.0001314847128735944
-0.495357571777172,-0.495357571777172,0.9999969488294248,0.0001312772027947039
-0.4949488650134974,-0.4949488650134974,1.0000716585417977,0.00013105923818986068
-0.4945277929350631,-0.4945277929350631,1.000014646977347,0.0001308771416088158
-0.4941015144192555,-0.4941015144192555,1.000072208334355,0.0001307456236180016
-0.4936817439899812,-0.4936817439899812,1.0000001401469802,0.00013072380850699184
-0.4932749897149719,-0.4932749897149719,0.99990017742475,0.00013068742304813845
-0.49286823545719116,-0.49286823545719116,1.000034759719077,0.00013070999918166632
-0.4924614812162112,-0.4924614812162112,0.9997841325838379,0.0001307275892665864
-0.49204040924452175,-0.49204040924452175,1.000059879304093,0.00013075346793459713
-0.491616083257744,-0.491616083257744,0.9998423476871519,0.00013074007751126405
-0.4912086782642355,-0.4912086782642355,1.0001549591354053,0.00013081591903424
-0.4908019240954779,-0.4908019240954779,0.9999807315737769,0.00013089663352567105
-0.4903951699447354,-0.4903951699447354,0.9998865606600024,0.00013099588710837863
-0.48998841581252395,-0.48998841581252395,1.0000577295790394,0.00013117617526515682
-0.48958166169870054,-0.48958166169870054,0.9999844807806137,0.00013134271171217103
-0.48917490760397797,-0.48917490760397797,1.0000109148697462,0.00013149515215240976
-0.48876815352844644,-0.48876815352844644,0.9997744817726038,0.00013161526999330893
-0.48836139947200935,-0.48836139947200935,0.9990204279636234,0.00013162947506826142
-0.4879546454354923,-0.4879546454354923,0.9982092187627721,0.0001315748816629828
-0.48754789141892585,-0.48754789141892585,0.9988670043995478,0.0001316772283979113
-0.4871411374223342,-0.4871411374223342,0.9998400248821337,0.0001316426875463847
-0.4867343834461451,-0.4867343834461451,0.9997211676388309,0.00013146395265022063
-0.48632762949073083,-0.48632762949073083,1.0001441820597587,0.0001313270075011183
-0.485920875556495,-0.485920875556495,1.0000409300081823,0.00013111510691649037
-0.48551412164368485,-0.48551412164368485,1.000017818114983,0.0001309731240819212
-0.4851073677524781,-0.4851073677524781,0.9999520295436313,0.00013085519898717264
-0.4847006138832654,-0.4847006138832654,1.0000362168466501,0.00013079116795002322
-0.48429386003656844,-0.48429386003656844,1.0000135842079385,0.0001307447708741736
-0.4838871062123552,-0.4838871062123552,1.0001552111850325,0.0001307663154380546
-0.4834803524115415,-0.4834803524115415,0.9998997925680071,0.00013078902955837454
-0.48307359863396115,-0.48307359863396115,1.0000224314459383,0.00013080549857892492
-0.4826668448803929,-0.4826668448803929,1.0000159959275483,0.00013084278401354348
-0.48226009115092267,-0.48226009115092267,1.000044614427639,0.00013089074412147786
-0.4818533374461779,-0.4818533374461779,1.0000089610049419,0.00013096521613264984
-0.4814465837665708,-0.4814465837665708,1.0000404395259976,0.00013106129541058656
-0.4810398301124934,-0.4810398301124934,0.9998790431300062,0.00013119925842651676
-0.4806330764842798,-0.4806330764842798,1.0000711088367225,0.000131362529664965
-0.480226322882568,-0.480226322882568,1.000023206444542,0.0001315235722437376
-0.47981956930808567,-0.47981956930808567,0.9996045830577025,0.0001316603998217022
-0.47941281576059536,-0.47941281576059536,0.9985521742426533,0.0001316326100998866
-0.47900606224131936,-0.47900606224131936,0.9978516985017368,0.0001315935046296318
-0.47859930875039536,-0.47859930875039536,0.9981886172136305,0.00013161758546287764
-0.4781925552884537,-0.4781925552884537,0.9995015440186135,0.0001316673240099586
-0.47778580185600744,-0.47778580185600744,1.00002502699864,0.00013152782169271115
-0.47737904845374,-0.47737904845374,0.9998923355257896,0.00013134677232743731
-0.4769722950824466,-0.4769722950824466,1.0000941782264703,0.0001312100927553875
-0.47656554174225646,-0.47656554174225646,0.9998996314065215,0.00013106283319141992
-0.47615878843407555,-0.47615878843407555,1.0001454456163557,0.00013093910669318107
-0.4757520351586365,-0.4757520351586365,1.0000503659601738,0.00013086206609936224
-0.4753452819159719,-0.4753452819159719,1.0000598308388293,0.00013083265434332445
-0.47493852870740766,-0.47493852870740766,0.9999139930689032,0.00013081322889216214
-0.474531775533368,-0.474531775533368,0.9999853110127,0.00013083432880925877
-0.4741250223945208,-0.4741250223945208,1.0000059060887723,0.0001308656581147928
-0.473718269291448,-0.473718269291448,0.9999574419297339,0.00013087493436340014
-0.4733115162249355,-0.4733115162249355,1.0000624516914087,0.00013094315049138713
-0.47290476319577623,-0.47290476319577623,1.000008780731691,0.00013101472188144502
-0.4724980102042153,-0.4724980102042153,0.9999779937857879,0.0001311009964254198
-0.472091257251482,-0.472091257251482,1.0000192239763357,0.00013125284916120462
-0.4716845043375436,-0.4716845043375436,0.9999884091651264,0.00013145825727124032
-0.4712777514632016,-0.4712777514632016,0.9995264381886806,0.00013163013126551035
-0.4708709986293371,-0.4708709986293371,0.9996888817544519,0.00013171021750346977
-0.47046424583611357,-0.47046424583611357,0.9996696409170169,0.00013162207975696852
-0.4460629682807273,-0.4460629682807273,1.0000794972319125,0.00014497097760232035
-0.4435697337729273,-0.4435697337729273,0.9997382299958218,0.00014512515209180802
-0.44316297961470424,-0.44316297961470424,0.9995675123813674,0.0001440048385943134
-0.4427562254455147,-0.4427562254455147,0.9998731179150276,0.00014287495328895589
-0.4423494712661785,-0.4423494712661785,0.9999244058937471,0.000141833202135584
-0.44194271707713495,-0.44194271707713495,0.9998786959640917,0.0001409013595443192
-0.4415359628795265,-0.4415359628795265,1.000092813509783,0.00013998054537967816
-0.44112920867368005,-0.44112920867368005,0.9998644861186655,0.00013907571717344347
-0.4407224544604162,-0.4407224544604162,1.0001524907272425,0.00013823244326417205
-0.4403157002404967,-0.4403157002404967,0.9999519923680703,0.00013736744419159974
-0.43990894601436,-0.43990894601436,1.000108076744531,0.00013657062121344034
-0.43950219178260497,-0.43950219178260497,1.0000087567382288,0.00013596609045013193
-0.4390954375456658,-0.4390954375456658,0.9999905333142924,0.00013556092156126362
-0.4386886833040897,-0.4386886833040897,0.9998312551295225,0.00013523111015080545
-0.4382819290584784,-0.4382819290584784,1.0001472016081567,0.00013496166568123408
-0.4378751748091581,-0.4378751748091581,0.9999617568120774,0.00013475864211722168
-0.43746842055689117,-0.43746842055689117,1.0000506940825251,0.0001346274940577667
-0.4370616663011866,-0.4370616663011866,1.000060342113916,0.0001345545323038889
-0.4366549120435188,-0.4366549120435188,0.9998807389418698,0.0001345247349129042
-0.4362481577835652,-0.4362481577835652,1.0000504999173698,0.00013448843505105444
-0.43583424464694004,-0.43583424464694004,0.9999221188384194,0.00013433247256332858
-0.4354183790886452,-0.4354183790886452,1.0001550201981955,0.00013427185990935668
-0.43501162482459466,-0.43501162482459466,0.9997835882926266,0.00013422483208775624
-0.4346048705601113,-0.4346048705601113,0.9998902019906462,0.00013424785132659444
-0.43419811629508087,-0.43419811629508087,0.9998085837919707,0.00013422110745125892
-0.4337913620296142,-0.4337913620296142,0.9996593772448785,0.00013414472657509314
-0.4333846077646378,-0.4333846077646378,1.0000513548975478,0.00013400918171642287
-0.43297785350009904,-0.43297785350009904,0.9999974574252691,0.0001337586687580409
-0.4325710992361593,-0.4325710992361593,0.9998889295809864,0.0001334456324753365
-0.4321643449731468,-0.4321643449731468,1.00014605146866,0.00013315614647208047
-0.43175759071122644,-0.43175759071122644,0.9999674640262691,0.0001328535102803029
-0.43135083645061484,-0.43135083645061484,1.0001555048272652,0.00013264207765331033
-0.4309440821916951,-0.4309440821916951,1.000041134526212,0.00013245485066526206
-0.4305373279344664,-0.4305373279344664,0.9998396994090866,0.00013232367358062574
-0.43013057367898144,-0.43013057367898144,1.0000586610228521,0.0001322274196227517
-0.4297238194260629,-0.4297238194260629,0.9999747706218631,0.00013213586825109035
-0.42931706517543516,-0.42931706517543516,0.9999914396342279,0.00013207162753716613
-0.4289103109270961,-0.4289103109270961,1.0000795276197985,0.00013202952703817138
-0.42850355668154166,-0.42850355668154166,1.000044316728235,0.00013196508519202802
-0.4280968024387676,-0.4280968024387676,1.0001425345441421,0.00013195386507380193
-0.42769004819905093,-0.42769004819905093,0.9998628620782822,0.0001319506249428814
-0.4272832939623868,-0.4272832939623868,0.9999936935965936,0.0001320474131208052
-0.42687653972910555,-0.42687653972910555,1.0001317917273211,0.00013217349267499693
-0.42646978549920644,-0.42646978549920644,0.9998490950142325,0.00013228640438471892
-0.426063031272961,-0.426063031272961,0.9998511651743268,0.00013238842708105736
-0.4256562770504814,-0.4256562770504814,0.9997810877568878,0.00013247281884363858
-0.42524952283149275,-0.42524952283149275,0.9995527295918398,0.00013245417402734785
-0.4248427686166501,-0.4248427686166501,0.9994733710332652,0.00013240354172146102
-0.42443601440589945,-0.42443601440589945,0.9997871218892701,0.0001323391181573216
-0.4240292601991847,-0.4240292601991847,1.0000071378403423,0.00013216034180627847
-0.42362250599677864,-0.42362250599677864,0.9999059529373078,0.00013194682859548983
-0.4232157517987368,-0.4232157517987368,1.0001613759779246,0.00013173404059735902
-0.4228089976053312,-0.4228089976053312,0.9998959237202213,0.00013152911782844778
-0.422402243416564,-0.422402243416564,1.0001209481575113,0.00013144560378431478
-0.42199093358539275,-0.42199093358539275,1.0000956258387628,0.00013136704479491335
-0.42147484388345546,-0.42147484388345546,1.0000299375478767,0.00013127363584602506
-0.4210680897102336,-0.4210680897102336,0.999843476957059,0.00013121501262408785
-0.4206613355420849,-0.4206613355420849,1.0004414366899452,0.00013122611522303635
-0.4202545813789591,-0.4202545813789591,0.9998745932036414,0.0001312271581929144
-0.41984782722101244,-0.41984782722101244,1.0000234375496957,0.00013121370517153058
-0.4194410730680282,-0.4194410730680282,1.0000181123659626,0.0001312380772194644
-0.41903431892088105,-0.41903431892088105,0.9998221473798283,0.00013121920135105277
-0.41862756477875535,-0.41862756477875535,1.0001704263899063,0.0001313296375167585
-0.41822081064235517,-0.41822081064235517,0.9998905298484988,0.0001314382785936674
-0.4178140565111413,-0.4178140565111413,1.0002563558214048,0.00013157891483762233
-0.4174020959330029,-0.4174020959330029,1.0000255724582139,0.00013174291460273978
-0.416984278101031,-0.416984278101031,0.9998127229435043,0.0001318889773089254
-0.41657752398738024,-0.41657752398738024,0.9996901857788705,0.00013196035228795543
-0.4161590553612619,-0.4161590553612619,0.999500196967569,0.00013195837806524702
-0.41574774561338756,-0.41574774561338756,0.9996181300708779,0.00013192301729037512
-0.41534099151730003,-0.41534099151730003,0.9998419376227439,0.00013181420530336096
-0.41493423742721447,-0.41493423742721447,1.000185715347958,0.00013167676234129185
-0.4145274833432914,-0.4145274833432914,0.9999901008157732,0.00013146628130145154
-0.4141207292654805,-0.4141207292654805,1.0001481773302385,0.0001312941279311758
-0.41371397519372266,-0.41371397519372266,0.9999151762612257,0.00013113585857548374
-0.41330722112829293,-0.41330722112829293,1.0000991816559037,0.00013105939409421255
-0.4129004670690833,-0.4129004670690833,1.000031321424767,0.00013095742320139815
-0.41249371301641985,-0.41249371301641985,1.0001167856201538,0.00013093236850441486
-0.41208695896970016,-0.41208695896970016,0.999853795869426,0.00013092887939235496
-0.41168020492963675,-0.41168020492963675,1.0000809073316645,0.0001309224996237089
-0.41127345089590434,-0.41127345089590434,0.9998760207221343,0.00013093675281668544
-0.4108666968687139,-0.4108666968687139,1.0001205872342611,0.00013094362062220647
-0.41045994284812437,-0.41045994284812437,1.0001115678589187,0.0001309831084474172
-0.41005318883418906,-0.41005318883418906,0.9998434796558275,0.00013103592818843184
-0.4096464348268576,-0.4096464348268576,1.0001194075318898,0.00013113184845118945
-0.4092396808262876,-0.4092396808262876,0.9999663698730398,0.00013125455170673471
-0.40883292683237327,-0.40883292683237327,1.0000164817302493,0.00013143637011467385
-0.4084261728452809,-0.4084261728452809,1.0000508481082577,0.0001316046543213219
-0.4080194188649486,-0.4080194188649486,0.9996813721784708,0.00013172631754349677
-0.4076126648914908,-0.4076126648914908,0.9994315695092428,0.0001317946944075531
-0.40720591092496433,-0.40720591092496433,0.9991943600126806,0.00013174662436572605
-0.406799156965414,-0.406799156965414,0.9996869374506145,0.0001317770969582975
-0.406392403012741,-0.406392403012741,0.9997842043864729,0.00013165222581366297
-0.40598564906705265,-0.40598564906705265,1.000023126584295,0.0001315117603708591
-0.40557889512856066,-0.40557889512856066,1.0000477348697685,0.00013134522793482403
-0.4051721411970505,-0.4051721411970505,0.9999488439637542,0.00013117459274128134
-0.40476538727269046,-0.40476538727269046,0.9999229822670849,0.00013099184607034533
-0.4043586333558011,-0.4043586333558011,1.0002054270381788,0.00013089340698897852
-0.40395187944546007,-0.40395187944546007,0.999897127712211,0.00013085589809302175
-0.40354512554269845,-0.40354512554269845,1.0000663206760574,0.00013087405310264366
-0.40313837164713745,-0.40313837164713745,0.9998866932394392,0.0001308817680122008
-0.4027316177589455,-0.4027316177589455,1.0001155878172292,0.00013092163628441658
-0.4023248638781688,-0.4023248638781688,0.9998564037286783,0.00013090935551066864
-0.4019181100044825,-0.4019181100044825,1.0000510959808093,0.00013094127635369024
-0.40151135613838135,-0.40151135613838135,1.0000032328998274,0.00013094173997476628
-0.4011046022796414,-0.4011046022796414,0.9999548198961492,0.0001310288280645912
-0.40069784842832307,-0.40069784842832307,0.9999457796868318,0.00013114009929759924
-0.4002910945845343,-0.4002910945845343,1.00008309178953,0.00013124473610537309
-0.39988434074837614,-0.39988434074837614,1.0000034884607245,0.00013138514878333372
-0.3994775869196438,-0.3994775869196438,0.9999085055229499,0.0001315507856850924
-0.39907083309854274,-0.39907083309854274,0.999801463671932,0.00013168782052135487
-0.39866407928519365,-0.39866407928519365,0.9993732123656474,0.00013176425171901822
-0.39825732547920367,-0.39825732547920367,0.9990761866902849,0.00013173093332275804
-0.39785057168090815,-0.39785057168090815,0.9994085805551791,0.00013173775537352175
-0.3974438178905203,-0.3974438178905203,1.0000855512596032,0.00013167884168340863
-0.3970370641077722,-0.3970370641077722,0.9997993341489131,0.00013152122652631323
-0.39663031033255153,-0.39663031033255153,0.9999657851130573,0.0001313544050247764
-0.3962235565652918,-0.3962235565652918,1.0000908657367293,0.0001311850377210268
-0.3958168028058381,-0.3958168028058381,0.9999305905244489,0.00013105242221806448
-0.39541004905417837,-0.39541004905417837,1.000100214684366,0.00013097173147687366
-0.3950032953105989,-0.3950032953105989,1.0000479113452154,0.0001309226843536796
-0.39459654157465207,-0.39459654157465207,1.0001528091950465,0.00013092668458114694
-0.3941897878467813,-0.3941897878467813,0.9998940365221081,0.00013092124309118768
-0.393783034126762,-0.393783034126762,1.0000841831034883,0.00013091913463769066
-0.3933762804147122,-0.3933762804147122,0.9998505166822514,0.00013089329251218628
-0.39296952671073127,-0.39296952671073127,1.000099824857409,0.00013093648017869326
-0.3925627730147738,-0.3925627730147738,0.9999992493782877,0.00013095281407785273
-0.3921560193268846,-0.3921560193268846,1.0001942987404457,0.00013100138386776088
-0.3917492656470202,-0.3917492656470202,0.9998900545582604,0.0001310755125055569
-0.3913425119753867,-0.3913425119753867,1.0001855346699762,0.0001312117023860308
-0.39093575831188543,-0.39093575831188543,0.9998762431030336,0.0001313637959447923
-0.3905290046563451,-0.3905290046563451,1.0000645313118857,0.0001315238453933409
-0.39012225100915715,-0.39012225100915715,0.9997035499193878,0.00013163300650272425
-0.3897154973701447,-0.3897154973701447,0.999627885894623,0.0001317057109166787
-0.38930874373931845,-0.38930874373931845,0.999194993021241,0.00013170667199801766
-0.3889019901168368,-0.3889019901168368,0.9994615803626719,0.00013171401943235433
-0.3884952365026457,-0.3884952365026457,0.999757507742219,0.00013163147699411524
-0.38808848289680353,-0.38808848289680353,0.9998691498720745,0.00013149772399592897
-0.3876817292992527,-0.3876817292992527,1.0000412813429258,0.000131328028724176
-0.3872749757101019,-0.3872749757101019,0.9999671440147571,0.00013114241287345813
-0.3868682221294044,-0.3868682221294044,1.0000692303987972,0.00013102521823574504
-0.38646146855700253,-0.38646146855700253,1.0000399565508737,0.00013092283725511277
-0.3860547149931065,-0.3860547149931065,0.9999163353238865,0.00013088053969060166
-0.385647961437671,-0.385647961437671,0.9999367128319345,0.00013085234425757615
-0.3851956514944071,-0.3851956514944071,1.0001440876040182,0.00013085061018652962
-0.3847205633631809,-0.3847205633631809,0.999912557336376,0.00013083516686195572
-0.38431380983583596,-0.38431380983583596,1.0000818800144482,0.00013083365059253014
-0.38390705631705585,-0.38390705631705585,0.9998899955924561,0.00013085233743218857
-0.3835003028067817,-0.3835003028067817,0.9999537311628167,0.00013089883930972936
-0.3830935493052941,-0.3830935493052941,1.0000566261015602,0.00013090917923341074
-0.3826867958125355,-0.3826867958125355,1.0001059062717237,0.00013097357907441943
-0.3822800423283361,-0.3822800423283361,0.9998525399943905,0.00013113546226010847
-0.3818732888530342,-0.3818732888530342,1.000131021615216,0.0001312589617098511
-0.3814619797474343,-0.3814619797474343,0.9999969441661742,0.00013141143268627185
-0.3810435117902081,-0.3810435117902081,0.999606112527716,0.00013150545237511946
-0.3806367583414719,-0.3806367583414719,0.9996446988842009,0.00013155436053226472
-0.3802300049016786,-0.3802300049016786,0.9988071588247773,0.00013155298673475988
-0.37982325147050416,-0.37982325147050416,0.9995684308452223,0.00013161214090101614
-0.3794164980484972,-0.3794164980484972,0.9997465507653043,0.00013149892148383793
-0.3790097446351055,-0.3790097446351055,1.0000738402048115,0.0001313458684383839
-0.37860299123109725,-0.37860299123109725,0.9999220913639167,0.00013116047778010748
-0.37819623783571077,-0.37819623783571077,1.0000497342543397,0.00013100521222742927
-0.3777784207574591,-0.3777784207574591,1.0000048697307071,0.000130914839536012
-0.3773664609372453,-0.3773664609372453,0.9999377194742669,0.00013079920482633357
-0.3769597075695145,-0.3769597075695145,1.0000900768951406,0.0001307745186147076
-0.37655295421067336,-0.37655295421067336,0.9999634440690729,0.00013073650773891418
-0.37614620086115946,-0.37614620086115946,1.0001046425110782,0.00013073983334220646
-0.37573944752070576,-0.37573944752070576,0.9999148725329527,0.00013072404986365788
-0.37533269418941445,-0.37533269418941445,1.0000399157482565,0.0001307612578054735
-0.374925940867395,-0.374925940867395,0.9998814664815496,0.0001307644080380082
-0.37451918755464886,-0.37451918755464886,1.0001207980719664,0.00013082222910672649
