time,time,flux,flux_err
-0.4995106507534122,-0.4995106507534122,0.9999780911357,7.685593344581548e-05
-0.4978498423891627,-0.4978498423891627,0.9999827218680974,7.686824384930713e-05
-0.4962656455160565,-0.4962656455160565,1.000058285463994,7.688733900604415e-05
-0.4951851666191942,-0.4951851666191942,1.0000154474429839,7.01465993307977e-05
-0.4934655074743205,-0.4934655074743205,1.0000341073782695,7.022810091598212e-05
-0.4921109732793411,-0.4921109732793411,1.0001290172299586,7.014433486589053e-05
-0.490263746472192,-0.490263746472192,1.0000997824738667,7.017905869400836e-05
-0.48874114417994863,-0.48874114417994863,0.9999439139626937,7.019791649191638e-05
-0.4872938518747105,-0.4872938518747105,1.0000285322979134,7.01753468791378e-05
-0.4854837525723269,-0.4854837525723269,1.000021021133215,7.013056478550875e-05
-0.4832960015774006,-0.4832960015774006,1.0000140581081465,7.02009117895125e-05
-0.48201713108719557,-0.48201713108719557,1.000000134888697,7.012809725555176e-05
-0.48109311407461064,-0.48109311407461064,0.9999055947693225,7.029652139233636e-05
-0.47954987785051345,-0.47954987785051345,1.0000471469417795,7.024274387657852e-05
-0.4782146185141755,-0.4782146185141755,1.0000546370767653,7.027233593598291e-05
-0.4772536360513186,-0.4772536360513186,0.9999938769484341,7.034703745572866e-05
-0.4753727250325028,-0.4753727250325028,0.9999218360100665,7.024374654670294e-05
-0.47451156355091373,-0.47451156355091373,1.000095997970554,7.022399087302033e-05
-0.47341458680311915,-0.47341458680311915,1.0001557633107396,7.018327109027398e-05
-0.4713548795145471,-0.4713548795145471,1.0000851171189233,7.018353396057865e-05
-0.4701223258205573,-0.4701223258205573,0.9999263728510108,7.017206038574872e-05
-0.4690541398245841,-0.4690541398245841,0.9998586190175835,7.016969325870313e-05
-0.4677754948672373,-0.4677754948672373,1.0000731415390267,7.012929555577188e-05
-0.46695969141001115,-0.46695969141001115,1.000041515108792,7.032788288785348e-05
-0.46539881627832075,-0.46539881627832075,0.9998963050696343,7.025927406586723e-05
-0.46388307349407115,-0.46388307349407115,1.0000098250183984,7.015635273800918e-05
-0.46305078324949134,-0.46305078324949134,0.9999905190205659,7.019629383441098e-05
-0.4618019796573208,-0.4618019796573208,0.9999780046349145,7.021868682230001e-05
-0.46082227701845113,-0.46082227701845113,1.000028125008253,7.017964944855286e-05
-0.4593258259745198,-0.4593258259745198,1.0000078769585086,7.013769621318076e-05
-0.45750173162086866,-0.45750173162086866,1.0001178093292418,7.023471479391483e-05
-0.4562579462712165,-0.4562579462712165,1.0001286111686076,7.017745771366081e-05
-0.45540619084058565,-0.45540619084058565,1.0000871316058506,7.015661464120952e-05
-0.45388768133707347,-0.45388768133707347,0.9999036712656896,7.018030058757357e-05
-0.4530018140154425,-0.4530018140154425,0.9999229032249373,7.040773776059901e-05
-0.4512971041505807,-0.4512971041505807,1.0001946796259529,7.021323308015117e-05
-0.4497342350630788,-0.4497342350630788,0.9999509867037689,7.015715490688472e-05
-0.44870185688050696,-0.44870185688050696,0.9998682160117385,7.012909324056545e-05
-0.4476993134871009,-0.4476993134871009,0.999971302208178,7.018984653156898e-05
-0.4466359028039733,-0.4466359028039733,0.9999654019229667,7.015533295734675e-05
-0.4450317151116906,-0.4450317151116906,1.0000039487917798,7.016328571143911e-05
-0.4431523838124122,-0.4431523838124122,1.0000218580397304,7.017102905892859e-05
-0.44208216081751744,-0.44208216081751744,1.0000371560738834,7.024909327436147e-05
-0.4411222984112101,-0.4411222984112101,0.9999324874083351,7.014577269610946e-05
-0.43959949650743513,-0.43959949650743513,1.0001813598346492,7.016874356418987e-05
-0.4385925050955848,-0.4385925050955848,1.0000055700255281,7.031950002973637e-05
-0.43674581586528805,-0.43674581586528805,0.9999562886716398,7.018661509357752e-05
-0.43537252927781084,-0.43537252927781084,0.9999517739269658,7.019615370597124e-05
-0.43453481062169885,-0.43453481062169885,1.0000229435461807,7.011618286243074e-05
-0.43336071053490743,-0.43336071053490743,0.9999078162166771,7.018247360251364e-05
-0.4320931955575361,-0.4320931955575361,0.9999978564754995,7.013917312900374e-05
-0.43095779073919405,-0.43095779073919405,0.9999942307517967,7.01236864449209e-05
-0.42923825235193364,-0.42923825235193364,1.0001335223048977,7.019285156657387e-05
-0.4281955865546479,-0.4281955865546479,0.9999770191089501,7.025768687133347e-05
-0.42717640032497,-0.42717640032497,0.9999588760219542,7.016947793210285e-05
-0.42595061456086114,-0.42595061456086114,1.0001050698475402,7.016718024262071e-05
-0.42469241071958097,-0.42469241071958097,1.0000472627042611,7.0323054826398e-05
-0.42293662010342814,-0.42293662010342814,0.999917569574872,7.020048592759342e-05
-0.42138263954693683,-0.42138263954693683,1.0000478193249305,7.016096650988289e-05
-0.42060319537413304,-0.42060319537413304,1.000033665989846,7.016138894911338e-05
-0.4187566162509029,-0.4187566162509029,0.9999648726246082,7.01489676783064e-05
-0.4175612384118722,-0.4175612384118722,0.9999485521908371,7.02275634693375e-05
-0.4167921718355501,-0.4167921718355501,1.0001371386910425,7.012754574747331e-05
-0.41527604785514993,-0.41527604785514993,1.000046467324513,7.017330292283283e-05
-0.41437805330351696,-0.41437805330351696,1.000084817220038,7.029079811661249e-05
-0.4134096018911805,-0.4134096018911805,0.9999583690707767,7.01768314094205e-05
-0.4123778411259991,-0.4123778411259991,1.0000345848027539,7.028888453250308e-05
-0.4108980016229907,-0.4108980016229907,0.9999987655105411,7.038908432302558e-05
-0.4092748125520302,-0.4092748125520302,1.0000876924570048,7.019764650087759e-05
-0.40736037483147813,-0.40736037483147813,1.0000670639755354,7.01484412823808e-05
-0.4064078562354553,-0.4064078562354553,0.9998825165594287,7.016398600219006e-05
-0.40496596348966707,-0.40496596348966707,1.0000592621716216,7.017390770986637e-05
-0.4031020821581478,-0.4031020821581478,0.9999714490853531,7.02278613664664e-05
-0.4012432730742148,-0.4012432730742148,1.0000444637652008,7.012993167713817e-05
-0.40042884398862955,-0.40042884398862955,0.9998919697200431,7.023951632064572e-05
-0.39982685169379695,-0.39982685169379695,0.9999707881231688,7.014473820264745e-05
-0.39868503189936744,-0.39868503189936744,0.9999565402269142,7.01828147907675e-05
-0.3978504070735653,-0.3978504070735653,1.0000065334143542,7.028731212148258e-05
-0.3961401745516923,-0.3961401745516923,1.0000715503558144,7.017625528502511e-05
-0.39460793089383517,-0.39460793089383517,0.9999790805425522,7.017075043731673e-05
-0.39344576288567623,-0.39344576288567623,1.0000560477685734,7.013533500988079e-05
-0.39216586056136293,-0.39216586056136293,0.9999974882835948,7.013145429949497e-05
-0.39028239322360603,-0.39028239322360603,1.0000344260065606,7.018660736481717e-05
-0.38875763604883107,-0.38875763604883107,0.9999955502503269,7.015175751451367e-05
-0.3870769903296605,-0.3870769903296605,1.0000691495757377,7.025402519761686e-05
-0.3858687411324354,-0.3858687411324354,0.9999895986160352,7.021334009802419e-05
-0.38430303906206975,-0.38430303906206975,1.000040242538319,7.018175824343482e-05
-0.38246507073927205,-0.38246507073927205,1.000161860256319,7.012444821608768e-05
-0.3811897242427221,-0.3811897242427221,1.0000284136396616,7.023484021121261e-05
-0.3796450769586954,-0.3796450769586954,0.9999569517280097,7.019645564091408e-05
-0.37864168336673176,-0.37864168336673176,1.0000064735218788,7.010640155365877e-05
-0.37692319219640924,-0.37692319219640924,1.0000179955397708,7.03300152222354e-05
-0.3754380541402497,-0.3754380541402497,1.00002331314692,7.014638634790534e-05
-0.37364010643650547,-0.37364010643650547,0.9998946478280748,7.015663452933607e-05
-0.3717318033624906,-0.3717318033624906,0.9999511198636926,7.028752639924043e-05
-0.3703278923363541,-0.3703278923363541,1.0000492317028211,7.018411123509479e-05
-0.3685914047426195,-0.3685914047426195,1.000007149588204,7.016251309888034e-05
-0.3667063569329912,-0.3667063569329912,1.0000000294779747,7.018191034455909e-05
-0.36550610249396415,-0.36550610249396415,1.0000171321880074,7.01964763951037e-05
-0.3643775082178763,-0.3643775082178763,1.000054178150497,7.022966828671161e-05
-0.3629283101836336,-0.3629283101836336,1.0000746663811437,7.020368756394227e-05
-0.3611377515917411,-0.3611377515917411,1.0001477349859857,7.023387102426449e-05
-0.36027291923528537,-0.36027291923528537,1.0000496290854954,7.025072789791086e-05
-0.35903768673742886,-0.35903768673742886,1.0000859124765655,7.01889717611007e-05
-0.35771985711180604,-0.35771985711180604,1.000011171545552,7.022213538646993e-05
-0.35664589870139024,-0.35664589870139024,1.0000530063148383,7.027579073229484e-05
-0.35509602111415006,-0.35509602111415006,0.9999987575160365,7.029259236183397e-05
-0.35393347365316,-0.35393347365316,1.0000298331147643,7.012619866586388e-05
-0.35266348581790224,-0.35266348581790224,0.9999311635556996,7.015865975561763e-05
-0.3516331896025804,-0.3516331896025804,1.000044550193628,7.022475669944494e-05
-0.35021616096491925,-0.35021616096491925,1.0000197903435468,7.023205194315937e-05
-0.34883434380899414,-0.34883434380899414,0.9999209170904143,7.026537657437866e-05
-0.347303328140697,-0.347303328140697,1.0001093627584883,7.021903679779193e-05
-0.3460062366415514,-0.3460062366415514,1.0000338779256392,7.013804945356815e-05
-0.34473909598746105,-0.34473909598746105,0.999929575575712,7.017060813569992e-05
-0.3437920362019213,-0.3437920362019213,1.0001162955482068,7.023542658473323e-05
-0.34237212791340427,-0.34237212791340427,1.0000496892988617,7.01616810709793e-05
-0.3407086897175759,-0.3407086897175759,1.0000523472106932,7.021487351158323e-05
-0.3395426483781193,-0.3395426483781193,0.9999566469300717,7.017675762744597e-05
-0.3384512040531263,-0.3384512040531263,1.0000360318706463,7.016615711848006e-05
-0.3377864368856535,-0.3377864368856535,1.0000067007405007,7.034012281938644e-05
-0.3362256515596528,-0.3362256515596528,1.000112187246191,7.012827433708913e-05
-0.33550821210083087,-0.33550821210083087,1.0000799321453169,7.031596875021456e-05
-0.3336558416238404,-0.3336558416238404,1.0001305551107114,7.020673066287532e-05
-0.3325333521264838,-0.3325333521264838,1.0002064608611152,7.021974044573177e-05
-0.3314414096850669,-0.3314414096850669,1.0000936499159905,7.012296147568247e-05
-0.3299848784779897,-0.3299848784779897,1.0001012470679767,7.018986572894517e-05
-0.32883605540991995,-0.32883605540991995,1.00005944299226,7.01390045154579e-05
-0.3277248745143879,-0.3277248745143879,1.0000790172747593,7.014015235738951e-05
-0.32606878881779267,-0.32606878881779267,0.9999402704030615,7.012332048515438e-05
-0.32507211442134576,-0.32507211442134576,1.0000987365683456,7.018894252525847e-05
-0.32393239456723677,-0.32393239456723677,1.0001463629321214,7.017640458485924e-05
-0.3226811802509474,-0.3226811802509474,0.9999705974282607,7.01662866870419e-05
-0.32168649126397214,-0.32168649126397214,1.0000042838771277,7.02567661614774e-05
-0.31944414122699527,-0.31944414122699527,0.999932061470553,7.023049174153991e-05
-0.3176706942991586,-0.3176706942991586,0.9999655635098463,7.015215479257821e-05
-0.3164273631191463,-0.3164273631191463,1.0000423847833655,7.015685950454704e-05
-0.31405273992277216,-0.31405273992277216,1.0000699900428989,7.016300302728769e-05
-0.3126219486279297,-0.3126219486279297,1.000046074399216,7.013732702802168e-05
-0.31094593324232844,-0.31094593324232844,1.0000368383295253,7.018450215687166e-05
-0.31010749754059364,-0.31010749754059364,0.9999888655735812,7.018970943091431e-05
-0.3087933754854021,-0.3087933754854021,1.0000857203213374,7.030369582110677e-05
-0.3075774473458296,-0.3075774473458296,1.0001246563161508,7.025563491642588e-05
-0.30646307987481125,-0.30646307987481125,1.0000828368532815,7.029078412770779e-05
-0.3047749335659319,-0.3047749335659319,0.9999536884944096,7.018416828874941e-05
-0.30371924132632555,-0.30371924132632555,0.9999731441601508,7.012734665549548e-05
-0.3028407320409315,-0.3028407320409315,1.000064725206392,7.017796618369307e-05
-0.30102255806996253,-0.30102255806996253,1.000067071433234,7.01562757870346e-05
-0.29966423180303536,-0.29966423180303536,0.9999679577654812,7.013917020606227e-05
-0.29773167238745374,-0.29773167238745374,1.0000121291785422,7.01757189809923e-05
-0.29697269319294717,-0.29697269319294717,0.9999615501882083,7.028930760859863e-05
-0.29600120392715323,-0.29600120392715323,0.9999933151286932,7.01753255720415e-05
-0.2949820413676207,-0.2949820413676207,1.0000799189927296,7.02888631075421e-05
-0.29321026956458807,-0.29321026956458807,1.0000319263371449,7.024146650083699e-05
-0.29094193159398857,-0.29094193159398857,1.0001030199703518,7.019020092872161e-05
-0.2896715781709645,-0.2896715781709645,0.9999602515446986,7.013928158602667e-05
-0.28824975204770453,-0.28824975204770453,0.9999645562029457,7.015412761605984e-05
-0.28634410044178366,-0.28634410044178366,1.000175563895171,7.025319584210499e-05
-0.2842417110587121,-0.2842417110587121,1.0000000762201213,7.0256581540698e-05
-0.28284683868987487,-0.28284683868987487,1.00018597304088,7.020071834116395e-05
-0.28161180231254546,-0.28161180231254546,1.0000033984145111,7.016714952119781e-05
-0.2804477203724673,-0.2804477203724673,1.000131588072754,7.027903074409063e-05
-0.2789686959789833,-0.2789686959789833,0.9999457602770303,7.012897179292328e-05
-0.2771670575981261,-0.2771670575981261,1.0000340204444698,7.019435627505744e-05
-0.2758015352024813,-0.2758015352024813,0.9999495179005897,7.013347508648347e-05
-0.27436570905701957,-0.27436570905701957,0.9999875030696612,7.014405470856141e-05
-0.2725550909468438,-0.2725550909468438,1.0000361069541746,7.021532653074669e-05
-0.27112295273982456,-0.27112295273982456,1.0001746738608246,7.014718007068295e-05
-0.2694152113021119,-0.2694152113021119,1.000036350203002,7.02585411726173e-05
-0.26809096335200594,-0.26809096335200594,0.9999955612036997,7.020170175369445e-05
-0.2665221288698376,-0.2665221288698376,1.0000500530053278,7.018320961598264e-05
-0.26449887100316116,-0.26449887100316116,0.9999930052223174,7.014985993849388e-05
-0.2624340113630751,-0.2624340113630751,0.9999000149418189,7.017431849390689e-05
-0.26136633536661974,-0.26136633536661974,1.0000082966033608,7.012996487003206e-05
-0.26067084131354934,-0.26067084131354934,1.000044346511047,7.024719990392732e-05
-0.2589023842709139,-0.2589023842709139,0.9999776173445596,7.026806240563142e-05
-0.25726504355989166,-0.25726504355989166,1.0002708480093419,7.028344436634434e-05
-0.2558961939328583,-0.2558961939328583,0.9999591378413776,7.022594785610036e-05
-0.25446549794723977,-0.25446549794723977,0.9998740420586181,7.021986689142534e-05
-0.2532391712724348,-0.2532391712724348,0.9999999559519466,7.023832257707291e-05
-0.25225612046342577,-0.25225612046342577,0.999935750971431,7.015293161001552e-05
-0.2503538456992828,-0.2503538456992828,0.9998487136953568,7.014745423522244e-05
-0.24886439193796833,-0.24886439193796833,1.0000278567374177,7.013413044858728e-05
-0.24776055408874526,-0.24776055408874526,1.0000150406630057,7.021333440891419e-05
-0.24677131666539937,-0.24677131666539937,0.9999971624842743,7.023882937932864e-05
-0.24543917615956162,-0.24543917615956162,0.9999963295774531,7.026267142877759e-05
-0.2437784813460894,-0.2437784813460894,1.0000602434339065,7.023225849788885e-05
-0.24295219358173198,-0.24295219358173198,0.9998816975370308,7.026519015910655e-05
-0.2422930828834069,-0.2422930828834069,0.9999085418042691,7.010575274179147e-05
-0.24115245102875632,-0.24115245102875632,0.999925003450653,7.021880996585145e-05
-0.2400831384511548,-0.2400831384511548,0.9999467684021479,7.026915889584977e-05
-0.23867579666984967,-0.23867579666984967,1.0000779687677808,7.014136373580438e-05
-0.23685188933595783,-0.23685188933595783,0.9999965123995965,7.023012474876572e-05
-0.23560783470456953,-0.23560783470456953,1.000005034926002,7.017443897036248e-05
-0.23455940326239216,-0.23455940326239216,0.9999402178257073,7.020550365147137e-05
-0.23297553816519212,-0.23297553816519212,1.0000032728774253,7.012340197652919e-05
-0.23198520786536392,-0.23198520786536392,1.0000338082417037,7.037430335245073e-05
-0.23023533299856352,-0.23023533299856352,0.9998927728980895,7.020197778730421e-05
-0.22886631309811492,-0.22886631309811492,0.9998577447497514,7.014669563153888e-05
-0.22767580523504877,-0.22767580523504877,1.0000775863429237,7.017999882174454e-05
-0.22647294500784482,-0.22647294500784482,1.0000611512659114,7.017403301660353e-05
-0.22527641476481222,-0.22527641476481222,0.9999593860378372,7.013912195680074e-05
-0.22395203461492202,-0.22395203461492202,1.0000447411566913,7.015338594847209e-05
-0.22250154074863532,-0.22250154074863532,1.0001062901776858,7.017115118473489e-05
-0.221424052680959,-0.221424052680959,0.9999756055965893,7.015991012399231e-05
-0.22045144810253986,-0.22045144810253986,0.999929541024669,7.029379380495085e-05
-0.2190904807750485,-0.2190904807750485,1.0000252573123307,7.018294405960898e-05
-0.21828122728911695,-0.21828122728911695,0.9999715754335273,7.025984399272614e-05
-0.21686018494947348,-0.21686018494947348,0.9999243876818266,7.025377791079339e-05
-0.21498630339774535,-0.21498630339774535,1.0001308585388475,7.015629554185986e-05
-0.21372772212489508,-0.21372772212489508,0.9999403694219632,7.011890398791329e-05
-0.21224340156622928,-0.21224340156622928,1.0000096246649357,7.016716501852142e-05
-0.21080806718819076,-0.21080806718819076,0.9999969589731765,7.016082015735035e-05
-0.20943375661590835,-0.20943375661590835,1.0000099445087371,7.011584438227944e-05
-0.2078604884300148,-0.2078604884300148,1.0000948001732914,7.01923156478915e-05
-0.206943663203856,-0.206943663203856,1.0000976049682013,7.030686973827512e-05
-0.20583339775621426,-0.20583339775621426,1.0000646495381413,7.016601681659448e-05
-0.20448759247228737,-0.20448759247228737,1.0000286567348344,7.024843724047161e-05
-0.20297470885998337,-0.20297470885998337,0.9999131110705559,7.021174169357999e-05
-0.20084520454256563,-0.20084520454256563,1.0000339104080873,7.014696840004756e-05
-0.19995216114621145,-0.19995216114621145,0.9999212441344174,7.015551478129137e-05
-0.19807484920165735,-0.19807484920165735,1.0000978466154684,7.025928222194168e-05
-0.1967957144821412,-0.1967957144821412,0.9999974415518424,7.023381273811062e-05
-0.19605978103209054,-0.19605978103209054,1.0000124692839243,7.014243709925155e-05
-0.19446916944143594,-0.19446916944143594,0.9998698565523105,7.024650788181472e-05
-0.19343791521096138,-0.19343791521096138,0.9999472429229399,7.018803047595546e-05
-0.1922567992238328,-0.1922567992238328,0.9999175156718764,7.016659675175458e-05
-0.19139663993992145,-0.19139663993992145,0.9997874688544739,7.028599457210185e-05
-0.18983054259588245,-0.18983054259588245,1.0000218097195708,7.027182448607976e-05
-0.18813326796080218,-0.18813326796080218,0.9998909672536564,7.016502925644933e-05
-0.18664307274884778,-0.18664307274884778,1.000008139820843,7.014708194580422e-05
-0.18575809976173333,-0.18575809976173333,1.0000202194527652,7.016790107341789e-05
-0.18435386286582797,-0.18435386286582797,0.9998766557526698,7.015638993404822e-05
-0.18270192826603307,-0.18270192826603307,0.9999660521576645,7.023715627179552e-05
-0.1807469657098409,-0.1807469657098409,1.0001971416270485,7.016652354314835e-05
-0.1797081652650377,-0.1797081652650377,0.9999566294363375,7.019114514921573e-05
-0.1787555224043899,-0.1787555224043899,0.9999040319108096,7.013738888712936e-05
-0.17773490546969697,-0.17773490546969697,0.9999567164828989,7.018229003988298e-05
-0.17623244762653484,-0.17623244762653484,0.9999680644798292,7.029446754352596e-05
-0.1750743084703572,-0.1750743084703572,0.9999925167121541,7.017735359415205e-05
-0.17364542834402527,-0.17364542834402527,1.0000075971245095,7.017215151654594e-05
-0.172398856797372,-0.172398856797372,1.00001382683162,7.012968208559314e-05
-0.1706885834064451,-0.1706885834064451,1.0001714351887956,7.019256085566558e-05
-0.16904631393408637,-0.16904631393408637,0.9999107643466015,7.014350807860605e-05
