time,time,flux,flux_err
-0.4998749495833181,-0.4998749495833181,1.0001204258050553,7.029436420491719e-05
-0.4995697930906317,-0.4995697930906317,1.0000159491888516,6.695805036933367e-05
-0.499231064254127,-0.499231064254127,1.0000666316684648,6.652321713267999e-05
-0.4989952440329944,-0.4989952440329944,1.0000383773450263,6.56956766541388e-05
-0.4987832729180809,-0.4987832729180809,0.9999474185422302,6.881994607343588e-05
-0.4985717152711004,-0.4985717152711004,0.9998931431745934,6.88499214727059e-05
-0.4984328406120767,-0.4984328406120767,1.0000046399009517,6.546167126993092e-05
-0.4982171923547867,-0.4982171923547867,1.000103783381564,6.520701983481008e-05
-0.4979304255786701,-0.4979304255786701,0.9999842922035114,6.434523652624151e-05
-0.49749284213612555,-0.49749284213612555,1.000064707585119,6.509890473421305e-05
-0.49724266027624253,-0.49724266027624253,1.0000563110226364,6.464084636744228e-05
-0.497033116852981,-0.497033116852981,1.0001602177413143,6.637764674654044e-05
-0.4967731278564315,-0.4967731278564315,1.0000043149072109,6.488826925042026e-05
-0.4963834035137552,-0.4963834035137552,0.9999906323250386,6.58773540730039e-05
-0.4961284082644852,-0.4961284082644852,1.0001307559040584,7.109171790078389e-05
-0.495876903522003,-0.495876903522003,0.9998859226610264,6.837446907768043e-05
-0.4956709822945413,-0.4956709822945413,1.0000401534724601,6.527649312364813e-05
-0.4953498613554984,-0.4953498613554984,1.0000663191264194,6.705878206028278e-05
-0.4951032962839236,-0.4951032962839236,1.0000291837486706,6.570202766170603e-05
-0.4949121789832134,-0.4949121789832134,1.0000780953579416,6.819729404980389e-05
-0.4947186118151876,-0.4947186118151876,1.000090313087407,7.036846246857762e-05
-0.4945426914418931,-0.4945426914418931,0.9999796859649864,6.546337287436743e-05
-0.49432696221774675,-0.49432696221774675,0.9999670333242909,6.520972377831557e-05
-0.49403644659469137,-0.49403644659469137,1.0000515962211023,6.473467021969636e-05
-0.49373604999273085,-0.49373604999273085,1.0000188601319944,6.491412462038341e-05
-0.4934735079339589,-0.4934735079339589,0.9999766586717929,6.472380637854264e-05
-0.4932877794635715,-0.4932877794635715,0.9999965981599741,6.463591243922702e-05
-0.49304409905016655,-0.49304409905016655,0.9999739823216437,6.685942765022181e-05
-0.49255894869274924,-0.49255894869274924,0.9999061132584839,6.397507905779297e-05
-0.49234901373565665,-0.49234901373565665,1.0000658237518458,7.129207468248747e-05
-0.49209306762350025,-0.49209306762350025,1.000053476659367,6.840341470911665e-05
-0.4918566314750933,-0.4918566314750933,0.9999452676359024,6.702189065983688e-05
-0.4914590117899934,-0.4914590117899934,0.9999718089103226,6.666091239962729e-05
-0.4912113521582796,-0.4912113521582796,1.0000639855561455,6.572471446550524e-05
-0.4910362853508559,-0.4910362853508559,1.0000010023177845,6.80869072710138e-05
-0.49084642925881783,-0.49084642925881783,0.9999175421783102,7.036716686053891e-05
-0.49067909686709754,-0.49067909686709754,1.0001386531681131,6.506135160767161e-05
-0.49048688212496927,-0.49048688212496927,1.0000549492192987,6.51933506223453e-05
-0.49030472535960146,-0.49030472535960146,0.9998586186698992,6.469123731926604e-05
-0.49005324670142725,-0.49005324670142725,0.9999740511602621,6.455959475596201e-05
-0.48969515367934946,-0.48969515367934946,1.0000461552918551,6.474131838386134e-05
-0.48948036593501454,-0.48948036593501454,0.9999961316302756,6.500195477149365e-05
-0.4892847409515525,-0.4892847409515525,0.999995349231547,6.637767268016213e-05
-0.4889335851446958,-0.4889335851446958,0.9998387167607543,6.478247231443702e-05
-0.4886207246716367,-0.4886207246716367,1.0000520395920671,6.60710106410606e-05
-0.4883815094828606,-0.4883815094828606,1.000005061594997,7.052034152936841e-05
-0.4881101409497205,-0.4881101409497205,0.9998965292153678,6.683633867293133e-05
-0.4879048889662954,-0.4879048889662954,1.0000665089703937,6.695717117858092e-05
-0.4875065425047069,-0.4875065425047069,1.0000678448079807,6.673963494807835e-05
-0.48732211822207316,-0.48732211822207316,1.0000068237997315,6.515776907143636e-05
-0.4871689337029238,-0.4871689337029238,1.0000258706388596,6.738372438404605e-05
-0.48700861522665945,-0.48700861522665945,0.999867584011867,6.956852626706201e-05
-0.4868052324454766,-0.4868052324454766,1.0000016955683335,6.712159702968299e-05
-0.4866064362417092,-0.4866064362417092,0.9999170234699359,6.559318812673012e-05
-0.4864088277914561,-0.4864088277914561,1.00008731626014,6.470509649977674e-05
-0.48618893552629744,-0.48618893552629744,1.0000882827803577,6.460321841777228e-05
-0.4859186911256984,-0.4859186911256984,0.9999533995186578,6.468661330686376e-05
-0.48564333439280744,-0.48564333439280744,1.0000223866313465,6.481318895616249e-05
-0.4854961355231353,-0.4854961355231353,0.9999621918206951,6.664175422686576e-05
-0.48521153530600714,-0.48521153530600714,1.0000227428947324,6.481009003006474e-05
-0.48472905806702327,-0.48472905806702327,0.9999890698715509,6.669248796223658e-05
-0.4845038944316912,-0.4845038944316912,0.9999978763766759,7.054202721783166e-05
-0.4842192762705963,-0.4842192762705963,1.0000194634821729,6.838555254818813e-05
-0.48388731155719145,-0.48388731155719145,1.0000877968184667,6.65586909881153e-05
-0.48354711495776426,-0.48354711495776426,0.9999417747554382,6.701409077504879e-05
-0.4834139119993779,-0.4834139119993779,0.9998445868221781,6.529145645011343e-05
-0.48323505856387783,-0.48323505856387783,1.0001045343760822,6.833266748062711e-05
-0.4830633189412765,-0.4830633189412765,0.9998946887087143,7.048597233357572e-05
-0.4828271657141158,-0.4828271657141158,1.0000823631434637,6.52677339211547e-05
-0.48267878471378933,-0.48267878471378933,0.9999322030998252,6.562032702194641e-05
-0.4824779299888178,-0.4824779299888178,1.000056695452549,6.436761901547504e-05
-0.48232729116716655,-0.48232729116716655,0.9999049649697905,6.430239112663623e-05
-0.48205305643496105,-0.48205305643496105,1.000074346735333,6.49177480470151e-05
-0.4817527524573961,-0.4817527524573961,1.000056702378581,6.481188528203668e-05
-0.4816400975571014,-0.4816400975571014,1.0000688453969122,6.661452581034977e-05
-0.48136426247656344,-0.48136426247656344,0.999957213726724,6.484311572002131e-05
-0.4808674073123257,-0.4808674073123257,0.9999625599421265,6.624500880316909e-05
-0.4806268821557751,-0.4806268821557751,1.0000558922544887,7.081219866028855e-05
-0.48037749888317194,-0.48037749888317194,1.0000504654097595,6.643428124315102e-05
-0.48006335059762933,-0.48006335059762933,1.000040551356285,6.674487498631598e-05
-0.479660620582581,-0.479660620582581,1.0000251970174712,6.701726212036423e-05
-0.47952340445917796,-0.47952340445917796,1.0000614660292457,6.529733282379972e-05
-0.47935026406339604,-0.47935026406339604,1.0000437138725595,6.927693909593078e-05
-0.47915001162327825,-0.47915001162327825,0.9999748710904889,6.861969494561275e-05
-0.47889985668589363,-0.47889985668589363,0.9999593460726451,6.547586924980466e-05
-0.47878495947661576,-0.47878495947661576,0.9999924052162926,6.541715006757749e-05
-0.47856985914695543,-0.47856985914695543,0.9999642695121518,6.4366963822729e-05
-0.47838819273893024,-0.47838819273893024,1.000039128560099,6.450834916693222e-05
-0.4780779317516135,-0.4780779317516135,0.9999350355771895,6.477120657032224e-05
-0.47784550526557723,-0.47784550526557723,1.000005857667502,6.479740877461203e-05
-0.4777209677340579,-0.4777209677340579,1.000066672897463,6.657507408336933e-05
-0.4773576029911055,-0.4773576029911055,1.0000858093846812,6.480907533426828e-05
-0.47687138486508046,-0.47687138486508046,0.9999989311741431,6.848557895411815e-05
-0.4766353983388399,-0.4766353983388399,0.999965549104901,6.875704566601325e-05
-0.4764152045492665,-0.4764152045492665,0.9999579692916768,6.842847210352931e-05
-0.47600484252761815,-0.47600484252761815,1.000113462894117,6.528842475121101e-05
-0.47569939977984177,-0.47569939977984177,1.0000292039900258,6.65927746635043e-05
-0.4756133140370366,-0.4756133140370366,1.000073536763416,6.595694477181885e-05
-0.4754332483615144,-0.4754332483615144,1.0001014787243032,6.849688740355445e-05
-0.4752279983862536,-0.4752279983862536,0.9999720248181145,6.870828080171492e-05
-0.4749737901307526,-0.4749737901307526,0.9999579243282021,6.538934513656483e-05
-0.474842507710855,-0.474842507710855,0.9999705463446962,6.530269847024103e-05
-0.4746025204425678,-0.4746025204425678,0.9999748525890719,6.437691574272841e-05
-0.4744087334620417,-0.4744087334620417,0.9999453487580215,6.455031843133399e-05
-0.4740499722378445,-0.4740499722378445,0.9999654438604679,6.475617247684388e-05
-0.4739284678187687,-0.4739284678187687,1.00007826801377,6.498433193931138e-05
-0.4737076349803829,-0.4737076349803829,0.999993825450656,6.637723644034569e-05
-0.47323225857981016,-0.47323225857981016,1.0000140592762188,6.678442147529373e-05
-0.4728711648509488,-0.4728711648509488,0.9999979127949692,7.05528116197229e-05
-0.47256421580677854,-0.47256421580677854,0.9999553026415515,6.676966982389216e-05
-0.4723587210246478,-0.4723587210246478,0.999958405026662,6.471803374302557e-05
-0.47196316260669846,-0.47196316260669846,1.0000903878470582,6.688036529741651e-05
-0.47178382972051625,-0.47178382972051625,0.9999911078396989,6.480269869125249e-05
-0.47166797171375946,-0.47166797171375946,0.9999553842681099,6.782864981320612e-05
-0.47150061081629246,-0.47150061081629246,1.0000003112964344,6.863463041232639e-05
-0.47127616835496156,-0.47127616835496156,1.000080214604431,6.692581273800016e-05
-0.4710335048017441,-0.4710335048017441,0.9999933640118883,6.581459003232574e-05
-0.470790611373377,-0.470790611373377,1.000073982359011,6.486999110353543e-05
-0.4705614812017302,-0.4705614812017302,0.9999897483794935,6.447537223876733e-05
-0.4702583568679984,-0.4702583568679984,1.000030596395551,6.481467604383825e-05
-0.4700707596290158,-0.4700707596290158,0.999977261762905,6.44563724315019e-05
-0.4699885699475999,-0.4699885699475999,1.0000015712694936,6.689411723587627e-05
-0.4696799287601607,-0.4696799287601607,0.9999477928032394,6.48600750680115e-05
-0.4692961692417157,-0.4692961692417157,1.0001016341874518,6.63432423665649e-05
-0.469056841598649,-0.469056841598649,0.9999544402411928,7.042720859475748e-05
-0.46870789697422877,-0.46870789697422877,1.0001597030523377,6.479853926414668e-05
-0.4684995460731443,-0.4684995460731443,0.9998914622439223,6.680534325932173e-05
-0.46806343770440434,-0.46806343770440434,1.0001120456818628,6.694067105860065e-05
-0.4678655613519368,-0.4678655613519368,1.0000175045929602,6.494362570874887e-05
-0.46775366432557347,-0.46775366432557347,1.0000388708279047,6.769127366313153e-05
-0.46758951926603914,-0.46758951926603914,0.9999171362800642,7.047036317279259e-05
-0.46732900508213787,-0.46732900508213787,0.9998914120515318,6.512517740794592e-05
-0.46709976244455903,-0.46709976244455903,1.0001033646287012,6.602186131353713e-05
-0.46690127724723424,-0.46690127724723424,0.9999449834462535,6.639200496190437e-05
-0.4666759756451938,-0.4666759756451938,0.9998843594398921,6.468803147542004e-05
-0.4664226499124197,-0.4664226499124197,1.00002595913638,6.478873065199551e-05
-0.46620761976373615,-0.46620761976373615,1.0000901511360722,6.448969082770452e-05
-0.46612332720978883,-0.46612332720978883,1.000301425772328,6.693719587447624e-05
-0.46587963228666923,-0.46587963228666923,0.9999716728896306,6.430541089517452e-05
-0.46551590893795947,-0.46551590893795947,0.9999485545469889,6.48368148365418e-05
-0.46521412520669403,-0.46521412520669403,0.9998249277415067,6.88731585556005e-05
-0.46496229237236547,-0.46496229237236547,0.9999317910110779,6.676092051043215e-05
-0.46472136231313926,-0.46472136231313926,0.9998778359093144,6.647211715804239e-05
-0.46431422190507876,-0.46431422190507876,1.0000054810332517,6.711870436073917e-05
-0.46404913125297753,-0.46404913125297753,1.000023338506084,6.501116634944097e-05
-0.46391207514388955,-0.46391207514388955,0.9999583977247347,6.696258697682918e-05
-0.46378376100183233,-0.46378376100183233,1.000121599582777,6.92838326965693e-05
-0.4635901870788075,-0.4635901870788075,1.0000357577320391,6.692368343159014e-05
-0.46327851858804936,-0.46327851858804936,1.0000034500979447,6.565991460262397e-05
-0.4630933889071457,-0.4630933889071457,1.0000109088594908,6.70786969626397e-05
-0.4628623150172643,-0.4628623150172643,0.999892377127783,6.432392579303593e-05
-0.4626621334798983,-0.4626621334798983,0.999981659122739,6.525448803694877e-05
-0.4624246007413603,-0.4624246007413603,0.9999585619355198,6.482351104584713e-05
-0.462289802149462,-0.462289802149462,1.0000375270840378,6.460594827034443e-05
-0.4621146809950005,-0.4621146809950005,1.0000275296245225,6.679695691852456e-05
-0.46177991764852777,-0.46177991764852777,1.0000257851169958,6.524582386790062e-05
-0.4614479317475343,-0.4614479317475343,0.9999901109345526,6.67472128573366e-05
-0.46126862384408013,-0.46126862384408013,0.9999975046226315,6.847040910894078e-05
-0.46097288416494847,-0.46097288416494847,0.9999957983269903,6.610222454579633e-05
-0.4608103711871081,-0.4608103711871081,0.9999755786291116,6.646831708527796e-05
-0.4604615435237065,-0.4604615435237065,0.9999363332457779,6.858077460138e-05
-0.4601807808081503,-0.4601807808081503,0.9999437068580139,6.529844104907257e-05
-0.46004625656350984,-0.46004625656350984,1.0000981125511565,6.494423599653008e-05
-0.4599166539250291,-0.4599166539250291,1.0000396027584357,7.03847259437298e-05
-0.4597103058302309,-0.4597103058302309,1.0000150981831968,6.693241960240813e-05
-0.4593859073400381,-0.4593859073400381,0.9999203139331183,6.566326396974324e-05
-0.4592090046411613,-0.4592090046411613,0.9999140233090479,6.704786344072904e-05
-0.4590193810712663,-0.4590193810712663,1.0001311451568018,6.43290913381974e-05
-0.4588125845810282,-0.4588125845810282,1.0000744475235588,6.478787144325782e-05
-0.4585842006810708,-0.4585842006810708,1.0000676304648297,6.5226787262007e-05
-0.4584374642872717,-0.4584374642872717,1.0000896501735,6.44234543746583e-05
-0.4582503646219266,-0.4582503646219266,1.00001760174175,6.663295981287217e-05
-0.4578880697255954,-0.4578880697255954,1.0001111787119377,6.531891685029485e-05
-0.4575523156076088,-0.4575523156076088,0.9999287991163935,6.6749775971359e-05
-0.45738147554075115,-0.45738147554075115,1.000113772391054,6.84887614858171e-05
-0.45708270975010235,-0.45708270975010235,1.0000302468648754,6.619888054026962e-05
-0.4569507164269453,-0.4569507164269453,1.0000248821499682,6.686336766857321e-05
-0.4566898914112244,-0.4566898914112244,0.9999415240264978,6.793030020349624e-05
-0.45643844932201316,-0.45643844932201316,1.000042849876805,6.69074117039772e-05
-0.45620392880809957,-0.45620392880809957,0.9998749609241996,6.501313450512279e-05
-0.45611477940547046,-0.45611477940547046,0.9999449441949235,6.672235892792252e-05
-0.45600139392190614,-0.45600139392190614,0.9999231576721359,6.850517683607204e-05
-0.4557890703174053,-0.4557890703174053,1.000045332606599,6.679254549631458e-05
-0.4554933137027547,-0.4554933137027547,1.000109063246788,6.569108911175109e-05
-0.45531061868096,-0.45531061868096,1.0000911911231078,6.695749090541747e-05
-0.45507968579477165,-0.45507968579477165,0.9998797215367988,6.454709189573769e-05
-0.4548339981745812,-0.4548339981745812,1.000021487330435,6.464955169242452e-05
-0.45466083515639183,-0.45466083515639183,0.9999994668200225,6.521122894118464e-05
-0.45451717066025593,-0.45451717066025593,0.9999979776274367,6.460631485026409e-05
-0.45420359375857516,-0.45420359375857516,0.9999621456346789,6.640055193606258e-05
-0.45393759114376736,-0.45393759114376736,1.000062017536852,6.58313178915816e-05
-0.4536566403665347,-0.4536566403665347,0.9999963309298254,6.878607982138509e-05
-0.45344083995296386,-0.45344083995296386,1.0000336495141255,6.700504329758351e-05
-0.45312340071541257,-0.45312340071541257,0.9999659236492509,6.672149490497815e-05
-0.45290633817057824,-0.45290633817057824,1.0000232162143878,6.568340747512078e-05
-0.4526537308571278,-0.4526537308571278,0.9999919277169887,6.837253371618749e-05
-0.4523994416755158,-0.4523994416755158,0.9999045059132282,6.526815510518538e-05
-0.45226942715089535,-0.45226942715089535,1.0000598858391652,6.668249209968352e-05
-0.452148434749688,-0.452148434749688,0.9999645047959854,6.869425213002511e-05
-0.45195058708195573,-0.45195058708195573,0.9999909301095119,6.694691910459272e-05
-0.45160073784791166,-0.45160073784791166,0.999978639332714,6.569505847349295e-05
-0.45145192104246235,-0.45145192104246235,0.9999319280687139,6.695730760949826e-05
-0.45126155987381933,-0.45126155987381933,1.0000203178154567,6.434337896942614e-05
-0.4509985998956836,-0.4509985998956836,0.9999821790568924,6.488371094073792e-05
-0.45077294404472923,-0.45077294404472923,1.0001068907789592,6.521141058445081e-05
-0.45063089048053373,-0.45063089048053373,1.0000471646206628,6.460687153755477e-05
-0.45038899291830603,-0.45038899291830603,1.0000237950251654,6.719870989744685e-05
-0.4501331758365268,-0.4501331758365268,1.0000685397471543,6.532068672293967e-05
-0.4498771919927094,-0.4498771919927094,1.0000440378706097,6.732326679035057e-05
-0.44966296593484,-0.44966296593484,1.0000500948209377,6.888057932334063e-05
-0.4493208744272124,-0.4493208744272124,1.0001643144472023,6.643564247874544e-05
-0.4491321908368263,-0.4491321908368263,0.9998904527570737,6.476598507123111e-05
-0.4488233291063807,-0.4488233291063807,0.9999268406684783,6.795298140928696e-05
-0.44859757673693823,-0.44859757673693823,1.0000421221093596,6.706070968954214e-05
-0.44841187496203927,-0.44841187496203927,1.0000936937784606,6.687912214088704e-05
-0.4482843675898039,-0.4482843675898039,1.0000419471331872,6.877153085581801e-05
-0.44809946379391474,-0.44809946379391474,1.0000306552999079,6.711771388439543e-05
-0.4478211831476074,-0.4478211831476074,1.0001036800471534,6.536958074000424e-05
-0.4476042639682419,-0.4476042639682419,0.9999972100266519,6.692484090500473e-05
-0.44745355205523085,-0.44745355205523085,1.00001350345233,6.51055920827018e-05
-0.4472186404891545,-0.4472186404891545,0.9999758713520344,6.482942892997127e-05
-0.4469639314993401,-0.4469639314993401,1.0001065300902385,6.495200717415508e-05
-0.4468029159121215,-0.4468029159121215,0.9999981223164947,6.471026401326662e-05
-0.4466880057792878,-0.4466880057792878,1.000018831960195,6.698078362202819e-05
-0.4463922636379721,-0.4463922636379721,1.0000128954351726,6.433568821752455e-05
-0.446149045835773,-0.446149045835773,0.9998932233410974,6.575381364896718e-05
-0.4458754165796563,-0.4458754165796563,0.9999343099112306,6.877205616929008e-05
-0.44565118009777505,-0.44565118009777505,1.0000199007117367,6.695500640841058e-05
-0.4453377397847362,-0.4453377397847362,0.9999355732049244,6.671178511864454e-05
-0.4451414642564487,-0.4451414642564487,1.0001288161612272,6.43645791415341e-05
-0.44489512871368786,-0.44489512871368786,0.9999298704590348,6.980033033814364e-05
-0.4446597143614781,-0.4446597143614781,0.9999574538498731,6.527450031655431e-05
-0.4445124817051692,-0.4445124817051692,0.999994928351309,6.669172681165672e-05
-0.4443566137852031,-0.4443566137852031,1.0000110749936504,7.057382063887812e-05
-0.44416588053136363,-0.44416588053136363,1.0000250905299723,6.537539410872702e-05
-0.4438818224647548,-0.4438818224647548,1.000086138509585,6.553896860220267e-05
-0.44368773984751897,-0.44368773984751897,1.0000436151662702,6.689824537080798e-05
-0.4435083443109761,-0.4435083443109761,0.9998669582057605,6.49186339575263e-05
-0.4432288189593237,-0.4432288189593237,1.0000118216749583,6.472102578600268e-05
-0.4430283084322582,-0.4430283084322582,0.9999684158278654,6.48699127116038e-05
-0.4428851009433856,-0.4428851009433856,0.9998949945001027,6.469087101552568e-05
-0.4427644778421381,-0.4427644778421381,1.0000898743021678,6.704368746636517e-05
-0.4424371026456356,-0.4424371026456356,1.0000423869585124,6.433762069884596e-05
-0.4421558413363528,-0.4421558413363528,0.9999593380964849,6.821901181713407e-05
-0.44191413478256436,-0.44191413478256436,0.9999414112465672,6.853009077335321e-05
