time,time,flux,flux_err
-0.4999061995622469,-0.4999061995622469,1.0000391292869222,0.00038015954538572153
-0.4995726299741364,-0.4995726299741364,0.9999791207035313,0.0003746033037220673
-0.49929125583876155,-0.49929125583876155,0.9999801019795896,0.00037601414368453365
-0.4988757881837955,-0.4988757881837955,0.9999628487224006,0.000376339244272512
-0.49865123624476837,-0.49865123624476837,1.000369212644834,0.0003759023219879054
-0.49823593638284364,-0.49823593638284364,1.0000070172724684,0.00038729923600756453
-0.4979618376033613,-0.4979618376033613,1.0005075683164613,0.00037935102717189055
-0.4976140753577056,-0.4976140753577056,1.000096472021785,0.0003855720435283179
-0.4973725129297236,-0.4973725129297236,0.9995733452955303,0.00037493161504165113
-0.49702839842721,-0.49702839842721,0.9994319315504857,0.00037494097720931763
-0.4966631891904399,-0.4966631891904399,0.9998638608482835,0.00037871699672263235
-0.49630750393625933,-0.49630750393625933,0.999952486270996,0.0003744320825743046
-0.4958432271821948,-0.4958432271821948,1.0004511278268269,0.0003760246773931213
-0.49564354493049906,-0.49564354493049906,1.0002661185930002,0.00037566288242392974
-0.4952275582756556,-0.4952275582756556,1.000064891454722,0.0003868262460988597
-0.4950355918896093,-0.4950355918896093,1.0000449898181611,0.00038380588775983567
-0.4947116720941267,-0.4947116720941267,0.9994983583900889,0.00038921528917772256
-0.494365528155322,-0.494365528155322,1.000208073055421,0.0003748143617164742
-0.4940191023371881,-0.4940191023371881,0.9998834719994523,0.0003749061869817325
-0.49365038496325725,-0.49365038496325725,0.9998128545771081,0.00037803432726384636
-0.4933649753889767,-0.4933649753889767,0.9993672340198414,0.0003748467357764396
-0.4928288931514544,-0.4928288931514544,1.0001577717272363,0.00037476181173063544
-0.4924908637374756,-0.4924908637374756,1.0002260833876042,0.00038989469441628864
-0.4920986636985617,-0.4920986636985617,0.9997506797333277,0.0003833872008983428
-0.49187355448739256,-0.49187355448739256,1.0001118584902937,0.00037915586048286644
-0.4914843791237217,-0.4914843791237217,1.0000589567146552,0.0003849273479125249
-0.4910823366190016,-0.4910823366190016,0.9994415043070604,0.00037260839733774666
-0.4905305011874589,-0.4905305011874589,0.9999125081194702,0.00037495184024114245
-0.4899306002575031,-0.4899306002575031,1.0002749609310626,0.00037671414300789925
-0.4895702204245026,-0.4895702204245026,1.0000702877523728,0.0003766839578045225
-0.48913580924563577,-0.48913580924563577,1.0003751607590117,0.00038612010884681074
-0.48887192654437966,-0.48887192654437966,1.0000838907033962,0.0003855334813719381
-0.4885170280074817,-0.4885170280074817,1.000144735283763,0.0003839625493373889
-0.48823775490309346,-0.48823775490309346,0.9997439238790135,0.0003788529211045273
-0.4878014521091245,-0.4878014521091245,0.9997740591339621,0.00037598258411332094
-0.4873675481932878,-0.4873675481932878,1.0000027302786516,0.00037002645323254505
-0.48681246478518003,-0.48681246478518003,1.0002293827467053,0.0003747864185328863
-0.486477716734953,-0.486477716734953,1.0003011026824538,0.00038747375185715823
-0.4861094747589959,-0.4861094747589959,1.0001456197633032,0.00037702223146797377
-0.4857879957453406,-0.4857879957453406,0.9997310135045041,0.00038138835605204134
-0.4853941278626735,-0.4853941278626735,0.9999710605936329,0.0003835925141056361
-0.484996669836255,-0.484996669836255,1.00017597052575,0.00036918302007806446
-0.4845122436636302,-0.4845122436636302,0.9995196886600723,0.0003741467992406754
-0.48415853819824406,-0.48415853819824406,1.000575405825849,0.00037645455543856095
-0.4836290123021172,-0.4836290123021172,1.0001026230073544,0.00037671403448415576
-0.4832560805429239,-0.4832560805429239,0.9998333603632839,0.00039495790529968237
-0.4830557387402223,-0.4830557387402223,1.0004305103150215,0.0003756068548338369
-0.4827819013138651,-0.4827819013138651,1.0000230319189882,0.000384447622960641
-0.48235151857588787,-0.48235151857588787,1.0000579019747864,0.0003808089184250547
-0.48195176876179174,-0.48195176876179174,0.9997272331427183,0.0003726937660208849
-0.48145282094264985,-0.48145282094264985,1.0003318368085086,0.000380458991873531
-0.481144942548417,-0.481144942548417,1.0006199021018602,0.00037477921473236334
-0.48057698078846445,-0.48057698078846445,0.9997152452965826,0.0003777114856589945
-0.4800932437916344,-0.4800932437916344,1.0001485088246134,0.0003819279452172668
-0.47959527525163137,-0.47959527525163137,1.000055202346838,0.0003825700357303403
-0.47921681355292095,-0.47921681355292095,1.000614311346575,0.00037835355229244756
-0.47889420083592993,-0.47889420083592993,1.0007650089813471,0.000376787013220134
-0.4784071228634275,-0.4784071228634275,1.0001235156167407,0.0003692438951662615
-0.47788469080405777,-0.47788469080405777,0.999902859073797,0.0003806953006041982
-0.4773683259489189,-0.4773683259489189,0.9996490501031154,0.0003812256496383053
-0.4769066636399657,-0.4769066636399657,1.0005044441529625,0.0003827572713461336
-0.4764187139990099,-0.4764187139990099,0.999940549859607,0.00038388764993270305
-0.4760159296987695,-0.4760159296987695,0.9998977900249914,0.0003677135219708332
-0.47548505729282625,-0.47548505729282625,1.0002982736112984,0.00037339772940015635
-0.47512372284472804,-0.47512372284472804,0.9998109623053921,0.0003861418359367196
-0.4746580596838612,-0.4746580596838612,1.000050879548572,0.00037826167801538696
-0.4741813215609,-0.4741813215609,0.9990565845499602,0.0003846515233333982
-0.47384228606533724,-0.47384228606533724,0.9999225321392954,0.0003851723657276669
-0.47341095361480257,-0.47341095361480257,0.9993155272010018,0.0003836157573732865
-0.4730645385599928,-0.4730645385599928,0.999741931896341,0.00037223390944786546
-0.4726851758394332,-0.4726851758394332,1.0001076575580563,0.0003717507881253223
-0.47234865744394483,-0.47234865744394483,0.9999320048159314,0.00037443171384103256
-0.47187176044099033,-0.47187176044099033,1.0003011142057763,0.0003805659633898219
-0.47143405098177027,-0.47143405098177027,0.9996536998481267,0.0003828187354239272
-0.471040294777049,-0.471040294777049,0.9998532192355765,0.0003728385261673506
-0.470590885738784,-0.470590885738784,1.0002404273674956,0.0003837532147420331
-0.4702553100803925,-0.4702553100803925,1.000109627035331,0.00037414983065130707
-0.4698487428300723,-0.4698487428300723,1.0005590962292759,0.0003727967820479611
-0.4694409451512911,-0.4694409451512911,1.000131788003408,0.0003808595672660225
-0.4691701342941087,-0.4691701342941087,1.000114452829518,0.0003761772807638459
-0.46880154426544324,-0.46880154426544324,1.0001336113750616,0.00039216167316806955
-0.4684735945826105,-0.4684735945826105,0.9996918067354297,0.0003770458691634357
-0.46813906682727974,-0.46813906682727974,1.0002258287088146,0.0003844812972747929
-0.46793245284061413,-0.46793245284061413,1.0009112704811538,0.00037731750419942847
-0.4675166209388408,-0.4675166209388408,1.0003872993206104,0.000379823710166194
-0.46716524707589996,-0.46716524707589996,1.0002511372880292,0.00037254770783983333
-0.4666468421819445,-0.4666468421819445,0.9998645098885246,0.00037301001095645884
-0.46622645013412695,-0.46622645013412695,1.0003343698477212,0.0003742710430886586
-0.4658750169874111,-0.4658750169874111,1.000288411077428,0.000387758109732795
-0.46557187129656086,-0.46557187129656086,1.0000708097940225,0.0003786683504954811
-0.4652582867740421,-0.4652582867740421,1.0001752503673509,0.00038527451546690604
-0.4650476587121375,-0.4650476587121375,0.9998573360418032,0.00037491364414955655
-0.4645093455190363,-0.4645093455190363,1.000015210112028,0.0003795186268769861
-0.4641583529431955,-0.4641583529431955,1.0002450539520842,0.0003723260403353678
-0.46369860342747415,-0.46369860342747415,1.0001342163963094,0.0003824239222914522
-0.4632741246336082,-0.4632741246336082,1.0002903834753272,0.0003729462612184362
-0.4629538506953395,-0.4629538506953395,1.0004473297787329,0.0003871649759675142
-0.4626861182085122,-0.4626861182085122,0.9995347500104577,0.00037791004187510974
-0.46237798790680246,-0.46237798790680246,0.9995283330677719,0.00037830362986982565
-0.46210042267557583,-0.46210042267557583,1.000274931958961,0.0003828893079171894
-0.4616286773409229,-0.4616286773409229,0.9997670451649178,0.0003763083296658721
-0.46129630230134355,-0.46129630230134355,0.9997714678859435,0.0003785712042465904
-0.460936415768083,-0.460936415768083,0.9999182683264884,0.00037437917998609405
-0.46041457421233645,-0.46041457421233645,1.000179293426794,0.00037716567074482725
-0.46006294100370726,-0.46006294100370726,1.0001806814181216,0.0003778008745374733
-0.45973804638051663,-0.45973804638051663,1.0000449348049354,0.0003900262828952912
-0.4594386924538412,-0.4594386924538412,1.000198598288807,0.0003767174386511393
-0.4591007005481515,-0.4591007005481515,1.0006713484741796,0.0003823230519049773
-0.4586215346585959,-0.4586215346585959,0.9997536831640638,0.00037620270955900467
-0.45828854091960236,-0.45828854091960236,1.0003515142197805,0.00037850783405356416
-0.4579277147859102,-0.4579277147859102,0.9996332411259816,0.0003743580689402312
-0.4574996002455009,-0.4574996002455009,0.9997580899468211,0.0003817598981959927
-0.45719483747816414,-0.45719483747816414,1.0000849441316217,0.0003731622982394014
-0.4568587925998145,-0.4568587925998145,0.9995975659178573,0.0003861066234661852
-0.4566079188858566,-0.4566079188858566,1.000717356568447,0.00037858172048978037
-0.45629243279763615,-0.45629243279763615,0.9997738711403464,0.00038308246570190155
-0.45602801118147906,-0.45602801118147906,0.9995732306473265,0.0003762852027661753
-0.45549616707430685,-0.45549616707430685,0.9999036062403374,0.000379705378758676
-0.45521898852166487,-0.45521898852166487,1.000123671794047,0.00037345673577215906
-0.45473301666570476,-0.45473301666570476,1.0003806728950455,0.00037968179109423454
-0.45431127630436097,-0.45431127630436097,1.0000412778747456,0.0003721269258000153
-0.45396135066112037,-0.45396135066112037,0.9997290080851841,0.00038639450928539324
-0.4537146086404391,-0.4537146086404391,0.9999186979485559,0.00037971441531033193
-0.45343513999541757,-0.45343513999541757,1.0005326067229539,0.00037549567701287745
-0.4530837138707284,-0.4530837138707284,0.9997336550392161,0.00038171471969709197
-0.4526072983477206,-0.4526072983477206,1.0002903321319612,0.0003763183512349929
-0.4522786944973632,-0.4522786944973632,1.000189240790334,0.000379718361856621
-0.4519223976589274,-0.4519223976589274,1.000149228389813,0.0003696192111761657
-0.4514450573551585,-0.4514450573551585,1.00002399953209,0.0003787626984300119
-0.4511135556807858,-0.4511135556807858,0.9996819335206787,0.0003754035308580038
-0.4507857534015784,-0.4507857534015784,0.9999455101741924,0.0003859217307568919
-0.4504679964760726,-0.4504679964760726,1.000247610146844,0.0003773872736304145
-0.450075251742237,-0.450075251742237,1.0001757978218215,0.0003811122672397345
-0.44966655779790016,-0.44966655779790016,0.999943069838346,0.0003771079994192649
-0.4492654284011223,-0.4492654284011223,1.0000377670615,0.0003782481310460073
-0.448905932832713,-0.448905932832713,0.9996468260020894,0.00037355172751484076
-0.44862072041869394,-0.44862072041869394,1.0003062814994312,0.0003907876741291493
-0.4483391524219769,-0.4483391524219769,1.0000180409191215,0.0003710730730529358
-0.44803689854015827,-0.44803689854015827,0.9999460394229311,0.0003777275512965175
-0.4477093201916432,-0.4477093201916432,0.9995102203287564,0.0003887643833560253
-0.4473396294604754,-0.4473396294604754,0.9995294338414269,0.00037956193518879147
-0.44697429592488336,-0.44697429592488336,1.000458633592889,0.00037524911645623737
-0.4463709221163299,-0.4463709221163299,0.9996256407111617,0.00038055922040850735
-0.4459651169549034,-0.4459651169549034,1.0000103692805857,0.00037121090659589196
-0.445468301474466,-0.445468301474466,1.0002016335129522,0.0003799327381882482
-0.44520090292862735,-0.44520090292862735,1.000032735074868,0.00037148962293798615
-0.4448722259679926,-0.4448722259679926,1.0005046800608821,0.00038525265332921033
-0.4446265850761847,-0.4446265850761847,1.0002797083062078,0.00037710079297189323
-0.44430010580690577,-0.44430010580690577,0.9998538675330254,0.00039059144405977477
-0.4439649510903109,-0.4439649510903109,1.0004278636424815,0.0003752574658371094
-0.4434724234859459,-0.4434724234859459,0.9995284544200427,0.00039239869374622146
-0.4430668644607067,-0.4430668644607067,1.0001063253714673,0.0003733815745879935
-0.44255836159863976,-0.44255836159863976,1.0001091385411562,0.0003817037876326006
-0.442276318117365,-0.442276318117365,1.0003029353713788,0.0003722610417302361
-0.4420651779859327,-0.4420651779859327,0.9999800248686027,0.00038806802738386697
-0.4417942137362843,-0.4417942137362843,1.0000764508059825,0.0003871733261034197
-0.44156754372161233,-0.44156754372161233,1.0002561212876493,0.00037652376587544913
-0.44119373192370404,-0.44119373192370404,1.0000966051578892,0.00038448972332550595
-0.44090531664915034,-0.44090531664915034,0.9999734358734225,0.00038655434512159704
-0.44031017853922094,-0.44031017853922094,0.9993900133350463,0.00037907094685928847
-0.43983973532740495,-0.43983973532740495,0.9996892104053622,0.00037513990366369897
-0.43949296728533227,-0.43949296728533227,1.0002603482883536,0.00038243612880750703
-0.43921766065541307,-0.43921766065541307,1.0000674476015077,0.0003870912065331046
-0.4389615845000662,-0.4389615845000662,0.999679269599181,0.00037712726763573876
-0.43868795795206095,-0.43868795795206095,1.000339832264093,0.00038727480866785214
-0.43835753332459715,-0.43835753332459715,1.000039473513917,0.0003821129074162789
-0.43799489871380504,-0.43799489871380504,1.0002080417146586,0.00037482207769078856
-0.437741690382245,-0.437741690382245,1.0001683728267274,0.00038808629489470886
-0.4372423008811893,-0.4372423008811893,0.9997936537325858,0.00037758929974780476
-0.4368745448620757,-0.4368745448620757,0.9999324004035675,0.0003767996866714868
-0.43653697660265606,-0.43653697660265606,1.0003314432992285,0.0003798400530841175
-0.4362090775401157,-0.4362090775401157,1.0003417393838834,0.00038744420835031354
-0.43598434322848334,-0.43598434322848334,0.9997144764491663,0.0003726314330004365
-0.43568087453604676,-0.43568087453604676,1.0003970735029792,0.0003864143886383879
-0.4353503411381098,-0.4353503411381098,0.9999570681531005,0.00038195062390669653
-0.43494729574231317,-0.43494729574231317,0.999689953485684,0.0003756612379380633
-0.4346263248567993,-0.4346263248567993,1.000138656673959,0.0003863684306727488
-0.43421010639649466,-0.43421010639649466,0.9999350607894655,0.0003876844183208664
-0.433935200257838,-0.433935200257838,0.999949853255349,0.00038565913882259405
-0.4335875206590572,-0.4335875206590572,1.0001340412198423,0.0003802272942703445
-0.4332504614445497,-0.4332504614445497,0.9999589756092775,0.0003719336211452776
-0.4329171235192916,-0.4329171235192916,1.0000502486811615,0.0003809541195442214
-0.4326133469956403,-0.4326133469956403,1.000109651116039,0.000377194395390346
-0.43226690507362947,-0.43226690507362947,1.000392774395729,0.0003753300337986428
-0.43185181966400704,-0.43185181966400704,0.9999160231497148,0.00038341892486273203
-0.43141092005753306,-0.43141092005753306,1.000046506271382,0.00037706297552252393
-0.43093151910579763,-0.43093151910579763,0.9999770775905356,0.0003775180224984875
-0.43051969288353575,-0.43051969288353575,0.9995708801565758,0.00037909523104383963
-0.43018040826282233,-0.43018040826282233,0.9996171590600108,0.0003704226502335937
-0.42983810999430716,-0.42983810999430716,1.0003139930295508,0.0003827772123434543
-0.429499191819923,-0.429499191819923,1.0005244215858569,0.00037784427449174195
-0.42921445946631137,-0.42921445946631137,1.000425448513805,0.0003753522541009474
-0.4288426223101851,-0.4288426223101851,0.9993081712616403,0.00038271618697020035
-0.42848280141988654,-0.42848280141988654,0.9995061275402405,0.00037782283323560295
-0.4281054032217071,-0.4281054032217071,1.0002217580534591,0.00037859906379745665
-0.4277091817952169,-0.4277091817952169,1.000343626079768,0.00037606376601297906
-0.42717133701080456,-0.42717133701080456,0.9998769369588502,0.0003704880005630855
-0.42685609344625847,-0.42685609344625847,1.0002968784042552,0.00038442539638547065
-0.42655568639384,-0.42655568639384,1.0000534964172534,0.0003744906447566436
-0.4262075383179763,-0.4262075383179763,1.0000747426865497,0.00037526071499508986
-0.42583343700607657,-0.42583343700607657,0.9996267184904545,0.00038232903742979683
-0.4254207289362967,-0.4254207289362967,1.0003451836204078,0.00037927860158765234
-0.4250206276032259,-0.4250206276032259,1.0001890315558404,0.00037703300111579727
-0.4244316492076905,-0.4244316492076905,0.9997580750602083,0.0003802167515926715
-0.4241648741925019,-0.4241648741925019,0.9996091769181312,0.00037198054379472285
-0.42386730334546885,-0.42386730334546885,1.0005168314952786,0.00038000872021344177
-0.4234287663806754,-0.4234287663806754,1.0001479854854298,0.0003804396205730915
-0.4231079558914644,-0.4231079558914644,0.9996524604699362,0.00037667692201246567
-0.4227770212091855,-0.4227770212091855,1.0001778257078608,0.0003809046703441515
-0.4223111417457403,-0.4223111417457403,1.000520193789933,0.0003770147250629333
-0.42199779910297364,-0.42199779910297364,0.9995208743860562,0.00037482253311083
-0.4215470872652077,-0.4215470872652077,1.0002106885678574,0.00037666996205956883
-0.42115575495918167,-0.42115575495918167,0.9998677654918572,0.0003718061334063482
-0.42084235831935074,-0.42084235831935074,1.0005420443716029,0.0003747051250770954
-0.42040361174804275,-0.42040361174804275,1.0004863140810776,0.0003723898111210474
-0.42017547942159583,-0.42017547942159583,0.9997790953355958,0.00038317368068002526
-0.4198151048534783,-0.4198151048534783,0.9996207151200407,0.0003815064011549041
-0.41937908136460467,-0.41937908136460467,0.9993638564808867,0.0003757369794364075
-0.41891848931263664,-0.41891848931263664,0.9998228067101337,0.0003807220545570464
-0.4184123461956915,-0.4184123461956915,1.0000406471566223,0.00037396634624550296
-0.41812313218979397,-0.41812313218979397,0.9993788575231379,0.00037184105843457666
-0.41777157671385795,-0.41777157671385795,1.0000487638892879,0.0003775352317263919
-0.4173903499766311,-0.4173903499766311,1.00069604979781,0.0003709284518955973
-0.41716955791926014,-0.41716955791926014,1.000398101012412,0.00038302246127839147
-0.41679392422447564,-0.41679392422447564,1.0004341850554455,0.0003750148515631017
-0.4163391133370169,-0.4163391133370169,0.999862012473401,0.00037456775613896694
-0.4160185872708098,-0.4160185872708098,1.0000118239020457,0.00038487628962650836
-0.415620092406607,-0.415620092406607,0.9997747736279192,0.0003834219909715131
-0.4151145355623157,-0.4151145355623157,1.000025173696864,0.00037039633493428316
-0.4147679858026095,-0.4147679858026095,1.000280532389856,0.0003747103526802044
-0.4144069950496487,-0.4144069950496487,1.0001032092659248,0.00037114520039651495
-0.4141809929707961,-0.4141809929707961,0.9999668766626166,0.00038285354031894795
-0.41386796014703575,-0.41386796014703575,0.999863807280206,0.00037580013315347775
-0.41341680267069025,-0.41341680267069025,1.0001835258277247,0.00037373954706939585
-0.4131572818871064,-0.4131572818871064,1.000122326073575,0.0003878909572975201
-0.412747770545684,-0.412747770545684,1.0003837189219336,0.00038100798946671054
-0.41228397953891543,-0.41228397953891543,0.9999254339853685,0.0003748033648921034
-0.4118760493140144,-0.4118760493140144,1.0003655953635568,0.000372300855004127
-0.4115127189339546,-0.4115127189339546,0.999915696072607,0.00037713500693372325
-0.41123779159825063,-0.41123779159825063,1.0002072961171655,0.0003788982794489085
-0.41095251064980404,-0.41095251064980404,1.0002937628681543,0.000389906872220591
-0.41062451866746413,-0.41062451866746413,0.9999017747558696,0.0003785136358199769
-0.4102591039329127,-0.4102591039329127,1.000028194347868,0.0003830207175771436
-0.4099471709283534,-0.4099471709283534,1.0000946199719716,0.000378993896689189
