time,time,flux,flux_err
-0.4997892119160194,-0.4997892119160194,0.9999964036274337,0.00018236422509217376
-0.49959325877134686,-0.49959325877134686,0.9999853775032455,0.00015922217090904705
-0.4994945030281087,-0.4994945030281087,0.9997986394446583,0.00017620259274692707
-0.49932714353199115,-0.49932714353199115,0.9999040294121816,0.00016826469035144027
-0.499075330235064,-0.499075330235064,0.9999913960340215,0.0001682976156202113
-0.4989080118248239,-0.4989080118248239,1.0000780162877247,0.00015726014300997972
-0.49877995119895785,-0.49877995119895785,1.000077901543734,0.00016712336341993063
-0.498469659301918,-0.498469659301918,1.0001090519521463,0.00017518839299054517
-0.4983410776767414,-0.4983410776767414,1.00020828209245,0.00016075018363563275
-0.49806277481256983,-0.49806277481256983,1.0000943392875967,0.00015418222382712664
-0.4978865759097971,-0.4978865759097971,1.0001374803558014,0.00016066382875647313
-0.4977559577149805,-0.4977559577149805,1.0001156321473608,0.00015466117540916728
-0.49752526413940357,-0.49752526413940357,1.0001954727980242,0.0001665256208755564
-0.4973805763904238,-0.4973805763904238,0.999866001910554,0.00017500211135929386
-0.4972309303790098,-0.4972309303790098,0.9998331418693912,0.00015797381018068868
-0.4970919036393752,-0.4970919036393752,0.9999632995192247,0.00017029656476333772
-0.4968853584694443,-0.4968853584694443,0.9999100786761078,0.0001666399461853453
-0.49665920879342595,-0.49665920879342595,1.0002905304215455,0.00015647897291913836
-0.49644382466503884,-0.49644382466503884,1.0000212045396235,0.00016969212672840025
-0.4963243523467099,-0.4963243523467099,0.9999924115165604,0.00015284923909987316
-0.4961612512648571,-0.4961612512648571,1.0000651154000937,0.00015835700295336455
-0.49611019366129766,-0.49611019366129766,0.9999272663070862,0.00015882578290475635
-0.4958518065541284,-0.4958518065541284,1.0000463678035505,0.0001555811688709989
-0.49564984075841495,-0.49564984075841495,1.0001956323165195,0.00016581067119819537
-0.49546895977982786,-0.49546895977982786,1.000157629252788,0.00015497669754795782
-0.4953364127635723,-0.4953364127635723,1.0003056836143194,0.00015484992886085537
-0.49520380794710944,-0.49520380794710944,0.9999318734653873,0.00016685674564899522
-0.4950180776795605,-0.4950180776795605,1.0000940755685224,0.0001690211257379144
-0.4946854110370623,-0.4946854110370623,1.0001880068045552,0.00016001398455956292
-0.4944685229304014,-0.4944685229304014,0.999817830774297,0.00015631438740532636
-0.4943963183788583,-0.4943963183788583,0.9998732548262416,0.0001600260231125773
-0.49434256738459226,-0.49434256738459226,1.0001443383452806,0.0001662638544940013
-0.4941266596171772,-0.4941266596171772,1.000151732039763,0.0001657145339368236
-0.49395558624528346,-0.49395558624528346,0.9998271902505966,0.00015718839243811906
-0.49377629451919347,-0.49377629451919347,1.0000753283282853,0.00015631662624606405
-0.4935386638302589,-0.4935386638302589,1.0001068490633607,0.00015643177462625182
-0.49340241906757,-0.49340241906757,1.0001490837627405,0.0001579858280569917
-0.49326999525073917,-0.49326999525073917,0.9997652362766084,0.00015426513624982333
-0.49306332728010605,-0.49306332728010605,0.9998115653171815,0.00016655300466753318
-0.4927797063719481,-0.4927797063719481,1.0000361295664446,0.00016963118263125937
-0.4926588562782854,-0.4926588562782854,0.9998250021639088,0.00016122272659640932
-0.49242640618176664,-0.49242640618176664,1.0001131643259102,0.00015791836374792339
-0.4922075473208679,-0.4922075473208679,1.0001766674820727,0.0001752364425369694
-0.49207146051630846,-0.49207146051630846,0.9999584392195588,0.00016619057737948687
-0.49183996755746195,-0.49183996755746195,1.0000585999798748,0.00016069508784260586
-0.4917029973148601,-0.4917029973148601,0.9997442957501781,0.00015659324076514047
-0.49157684499514287,-0.49157684499514287,0.9998324470485727,0.0001549828805553732
-0.4913845207192935,-0.4913845207192935,1.0000842037620423,0.0001588381431260283
-0.4912180238752626,-0.4912180238752626,1.0000925925129098,0.00015595093539090568
-0.49106939783960113,-0.49106939783960113,0.9999754932616813,0.00015585482330648205
-0.49089398930664174,-0.49089398930664174,1.0001182295005169,0.00015462335192475892
-0.4907278517523082,-0.4907278517523082,1.0001151693069423,0.0001706463721648473
-0.4904954368364997,-0.4904954368364997,1.000165525906716,0.0001705844034506813
-0.49018883414682934,-0.49018883414682934,0.9998217379681069,0.00016914817710755867
-0.4899294887378346,-0.4899294887378346,1.0000855135831483,0.00017170947480316077
-0.48971723902213854,-0.48971723902213854,1.000175060016269,0.00015898779114236898
-0.4895406000840012,-0.4895406000840012,0.9999780993202247,0.00015615295661282588
-0.48945029776659793,-0.48945029776659793,0.9999593341708171,0.0001551593941370478
-0.48926415088644715,-0.48926415088644715,1.0001105159587298,0.00015563983097848506
-0.48912436041864565,-0.48912436041864565,1.0002714717160566,0.00015875527413965505
-0.48903731110622173,-0.48903731110622173,1.0001277911464264,0.0001535441669845586
-0.48887884368305096,-0.48887884368305096,0.9998986934915619,0.00015928923573663758
-0.4886382421624148,-0.4886382421624148,0.9999747507747573,0.00016888583257671357
-0.4883044029993471,-0.4883044029993471,1.0002522476329592,0.00015884950792117595
-0.48807451195025353,-0.48807451195025353,1.000044641058794,0.0001737552548977013
-0.48788532461039724,-0.48788532461039724,0.9998823102064558,0.00015853404614092075
-0.48772665483993477,-0.48772665483993477,1.0000523141454767,0.0001677727807909626
-0.4874781607359182,-0.4874781607359182,1.0000936768851245,0.00015714084488339301
-0.48734794736956244,-0.48734794736956244,0.9999974293493279,0.0001695394219450745
-0.48719280747754967,-0.48719280747754967,1.0001854017721787,0.00015320724315217042
-0.4870131319883512,-0.4870131319883512,1.0000328204189288,0.00016109783344772335
-0.4868602041911799,-0.4868602041911799,0.9999630366513454,0.0001527907539996165
-0.4867362164397491,-0.4867362164397491,1.0002316300577507,0.0001608221877733319
-0.4863370036764536,-0.4863370036764536,1.0003052861021402,0.00016185373396695405
-0.48609174859884663,-0.48609174859884663,0.9999472836914289,0.00017183234936303337
-0.4858764851320302,-0.4858764851320302,0.9999307133022484,0.00016613206476193552
-0.4856675065122545,-0.4856675065122545,0.9999797256776357,0.00017109191467008068
-0.48546742915350477,-0.48546742915350477,1.0001082153747767,0.00015842439592843145
-0.48522459996456746,-0.48522459996456746,0.9997614381737371,0.00016946271775164642
-0.485145013127476,-0.485145013127476,0.999849040092378,0.00015804892528932768
-0.4849989142792765,-0.4849989142792765,1.0001555759375047,0.00015937206085202672
-0.4848085947858635,-0.4848085947858635,1.0000065111446534,0.00015658329606026627
-0.48469997306820006,-0.48469997306820006,1.0002830204026985,0.0001549143503162561
-0.4843776672147214,-0.4843776672147214,1.0000551697167162,0.0001572776321265624
-0.484108348787413,-0.484108348787413,1.0001222219393484,0.00015597101339871413
-0.4839908586785896,-0.4839908586785896,1.000036267640045,0.00017187083801774745
-0.4837255397462286,-0.4837255397462286,1.0000149127350575,0.00015869109808578329
-0.4835612506547477,-0.4835612506547477,0.9999289643223992,0.00016939707321088254
-0.48330072989629114,-0.48330072989629114,1.0000411078018803,0.00016789576528905402
-0.48309542472707107,-0.48309542472707107,1.0000225169639603,0.00016979357267675246
-0.48295680664014073,-0.48295680664014073,0.9997947697311007,0.00015688976773609774
-0.48287054501415694,-0.48287054501415694,1.0001705218309802,0.0001681286871017496
-0.48273459120828194,-0.48273459120828194,1.0000186888819065,0.00015591860900751147
-0.4825735537393484,-0.4825735537393484,0.9999126719287947,0.00015359546554839004
-0.4823271786968689,-0.4823271786968689,0.9998896727684944,0.0001587499197542493
-0.4820280147687299,-0.4820280147687299,0.9999300940478012,0.00016771872096657824
-0.48178102830424907,-0.48178102830424907,0.9999669637956604,0.00016203624338732487
-0.4816546472662594,-0.4816546472662594,0.9998794130234574,0.00015754247172498835
-0.48138755971740466,-0.48138755971740466,0.9999434536926028,0.00016866629006968267
-0.48119233653706034,-0.48119233653706034,0.9998247108765052,0.00016741889850410647
-0.4810355831170455,-0.4810355831170455,1.0001185217313773,0.0001759451488640148
-0.48083716798573733,-0.48083716798573733,1.000111360865186,0.0001708037381463529
-0.4807579749292927,-0.4807579749292927,0.9997640072059342,0.00015769145601040246
-0.48065616711683107,-0.48065616711683107,0.9999684703032166,0.00016680509699232415
-0.4804563446465181,-0.4804563446465181,0.999705211684697,0.00014993512492252368
-0.48021519009780606,-0.48021519009780606,0.9999202337437498,0.0001581941899022584
-0.4800219750177348,-0.4800219750177348,1.0001260936620118,0.0001547853711431069
-0.4798905928706517,-0.4798905928706517,1.000005957208268,0.00016839276166178465
-0.4796568513091188,-0.4796568513091188,1.0001032498149756,0.00016399286025301684
-0.47936020053748507,-0.47936020053748507,0.9998816660000882,0.00015646607544997918
-0.4791385737946257,-0.4791385737946257,1.0001278303769057,0.00017081338968672673
-0.47895982616464605,-0.47895982616464605,0.9999354100745098,0.00018963194524095848
-0.478734112996608,-0.478734112996608,1.0002141433167773,0.00015531597676982068
-0.4785409345815424,-0.4785409345815424,1.0000484734164243,0.0001690385959691389
-0.47840368618199136,-0.47840368618199136,1.0001059322120531,0.00015497236904976554
-0.47822538351174443,-0.47822538351174443,0.9999797928779955,0.0001603497455584672
-0.47795354115078226,-0.47795354115078226,0.9998198917635864,0.00017076435100062232
-0.47766721518710253,-0.47766721518710253,0.9998798357633859,0.00017036221588442524
-0.4774612156616058,-0.4774612156616058,0.9998936772680416,0.00015632005117265758
-0.4772843890124932,-0.4772843890124932,0.9999796512847517,0.00016071036848240336
-0.4770104953437112,-0.4770104953437112,0.9998507452246169,0.0001567624525586078
-0.47684116174932567,-0.47684116174932567,1.0000205633381376,0.00018880179504622557
-0.47662113911355847,-0.47662113911355847,1.0002929165625452,0.00015710473652832664
-0.4764263944118284,-0.4764263944118284,1.0000368891774338,0.00015404041988860835
-0.47635802180448084,-0.47635802180448084,1.0000000457455225,0.00016787881937150825
-0.476271926908521,-0.476271926908521,1.0001611347878057,0.00016039706856943467
-0.47606315050215925,-0.47606315050215925,0.9998863803496738,0.0001713941573228828
-0.4758240452647442,-0.4758240452647442,0.9999055612575269,0.00016978435048488658
-0.47565549627470316,-0.47565549627470316,0.9997005331665101,0.00015781334264856098
-0.4754663876170525,-0.4754663876170525,0.9998578782539372,0.00017041107626785415
-0.47538466679980046,-0.47538466679980046,1.0001664833523012,0.00015622746686119764
-0.47523300590983125,-0.47523300590983125,1.0001913525632478,0.00015557121154989752
-0.4749805437779287,-0.4749805437779287,1.000029295497885,0.00015548634251603478
-0.47484499830170535,-0.47484499830170535,0.9999506566931572,0.00018979938021017255
-0.4746768951357808,-0.4746768951357808,1.0000448796116532,0.0001587832253346295
-0.4743603905488271,-0.4743603905488271,0.9997083942775704,0.00017376031503923688
-0.4741683038766496,-0.4741683038766496,1.0000962266175244,0.00017026982579891058
-0.4740348740684567,-0.4740348740684567,0.9999421405312466,0.00015490738789609922
-0.47376757886086124,-0.47376757886086124,0.9999236853291018,0.00016861887661472622
-0.4736792092997348,-0.4736792092997348,0.9999449533878794,0.00015976630794027643
-0.4734361553681083,-0.4734361553681083,0.9998775378554685,0.00016799232385372357
-0.4732056395208929,-0.4732056395208929,1.0000127841484066,0.0001552351768483098
-0.4730617943074321,-0.4730617943074321,1.000329492616862,0.00015708421856811032
-0.4728838117880514,-0.4728838117880514,0.9998969170216905,0.00018031210360053724
-0.472757752504549,-0.472757752504549,1.0000513750459585,0.00017809780679746087
-0.4725831757299602,-0.4725831757299602,1.000281042930212,0.00016107796047196246
-0.47222227457677945,-0.47222227457677945,1.0001090680976303,0.00016535780998578426
-0.471984498918755,-0.471984498918755,1.0000629736502593,0.0001702751828696312
-0.4718788077472709,-0.4718788077472709,1.000078801416048,0.00015516525157532234
-0.47158638807886744,-0.47158638807886744,0.9998339120727602,0.0001695685206166118
-0.47140002756204924,-0.47140002756204924,1.0001290034955739,0.00016624478650778516
-0.47108760388509835,-0.47108760388509835,1.0000230814199156,0.00015672506258002078
-0.47093087577086407,-0.47093087577086407,1.00006222944728,0.00016780653490743833
-0.4708340985205723,-0.4708340985205723,1.0000436035417473,0.00017198766745603585
-0.4706895697512664,-0.4706895697512664,1.000045876040202,0.0001789105253518
-0.4703808098071022,-0.4703808098071022,1.0000602976049298,0.00015703252029336377
-0.4702589995431481,-0.4702589995431481,1.0002991703878361,0.00016744177635844606
-0.4699685964296805,-0.4699685964296805,1.0002336488461643,0.00016650889935653396
-0.4697783477255143,-0.4697783477255143,1.0000925860570695,0.00016694274202896776
-0.4696277134498814,-0.4696277134498814,0.9998738221666168,0.00015774720489493513
-0.4693589493690524,-0.4693589493690524,0.9996621088477473,0.00015406472176965113
-0.4691042129619746,-0.4691042129619746,1.0003385046099011,0.00015801616112721858
-0.4689749938726891,-0.4689749938726891,1.0002522914710992,0.0001558871805753647
-0.46882867958920543,-0.46882867958920543,1.0001351479479867,0.00016255727957522912
-0.4686252146173501,-0.4686252146173501,1.0003133118533127,0.00017990611832742473
-0.4684448889340274,-0.4684448889340274,1.0000472260059237,0.0001698043478112313
-0.46815097936196254,-0.46815097936196254,0.9999928518208765,0.00016600701040401833
-0.4679904023418203,-0.4679904023418203,0.9999556944830446,0.0001677930416305919
-0.46771917810838204,-0.46771917810838204,0.9999428719576866,0.00016708783728310546
-0.46762288362078835,-0.46762288362078835,1.0002428872237845,0.000158255549202267
-0.46748124960868154,-0.46748124960868154,1.0000526409177848,0.0001574401240140545
-0.4673344308132073,-0.4673344308132073,0.9999307748807166,0.0001576445710067551
-0.4671530148159945,-0.4671530148159945,0.9999843155797841,0.000161844500400347
-0.46694889981299637,-0.46694889981299637,1.000043473991596,0.00017060433307364758
-0.46678766489203555,-0.46678766489203555,0.9998145001174145,0.00015489668055401396
-0.4666962535615312,-0.4666962535615312,0.9996877079748309,0.00017012812035810588
-0.4666012528876308,-0.4666012528876308,1.0001290293933485,0.00016849969164257217
-0.4664392523380229,-0.4664392523380229,1.0002525276099195,0.00016957744395911133
-0.46614195255970114,-0.46614195255970114,1.0002770833615002,0.000167900804851149
-0.46588607312296515,-0.46588607312296515,1.000248017694843,0.0001578864263577642
-0.46572295990772544,-0.46572295990772544,0.9997912966760321,0.00016949111595672206
-0.4656265899160644,-0.4656265899160644,1.0002546195983413,0.00015382836675229236
-0.46549034370982556,-0.46549034370982556,1.0000931159732007,0.0001579201314046183
-0.46534281872445715,-0.46534281872445715,1.0001600242660764,0.00015584753107720026
-0.46520435193378945,-0.46520435193378945,0.99996723398401,0.00015917262806241334
-0.4650470872555161,-0.4650470872555161,1.000066425688987,0.00015281023511908774
-0.46483807272452393,-0.46483807272452393,0.9999497255130448,0.00017139862877717344
-0.46469200449064374,-0.46469200449064374,0.9999066036134694,0.0001569151877009129
-0.46461164526990617,-0.46461164526990617,0.999990997426045,0.0001508263728127765
-0.4644224185700295,-0.4644224185700295,0.9999344365894711,0.00017173139440690435
-0.4640816442901269,-0.4640816442901269,1.0001325160772392,0.00016342767216236893
-0.46391251850000115,-0.46391251850000115,1.0002155688842722,0.00015767902676311235
-0.46374058577639515,-0.46374058577639515,0.9999204531840281,0.00015794703631279082
-0.46353508543397764,-0.46353508543397764,1.000127994710414,0.00017630778670077593
-0.46336780190467836,-0.46336780190467836,1.0002387340486938,0.00016700169430790502
-0.4632502392923925,-0.4632502392923925,0.9997741430663449,0.00015832072271145252
-0.46302355047664606,-0.46302355047664606,1.000219811964752,0.0001606728925542753
-0.46286250605771784,-0.46286250605771784,0.9999154022917282,0.00015636061137311118
-0.46269248494063503,-0.46269248494063503,1.0001245613865855,0.0001569038191280252
-0.46251615688961467,-0.46251615688961467,1.000189003538746,0.00015603021818978076
-0.46235512594284955,-0.46235512594284955,0.9999638652044391,0.00016686861571489246
-0.46213835337548514,-0.46213835337548514,0.9998561640741992,0.00016006642199262893
-0.4619567578629358,-0.4619567578629358,1.0001771013318046,0.00017190479966405173
-0.46168719134875574,-0.46168719134875574,1.0000261254717164,0.00016548873343541682
-0.4615147240430815,-0.4615147240430815,1.0001640798650455,0.00016878928833422065
-0.4612415067269467,-0.4612415067269467,1.0000483523021537,0.00017052188685027806
-0.46105898278474344,-0.46105898278474344,0.999911919365313,0.00015733367173740556
-0.46092505093256475,-0.46092505093256475,1.0001875126071131,0.00015799383471272672
-0.4607456331170397,-0.4607456331170397,0.9999355758210324,0.00015264932044724215
-0.46056611493695526,-0.46056611493695526,0.9999828943863399,0.00015858926896788716
-0.4604250067437533,-0.4604250067437533,0.9998075662962307,0.00015548664033720512
-0.4603501789853908,-0.4603501789853908,0.9999692225560188,0.00015464858070610247
-0.46010801078809893,-0.46010801078809893,1.0003838480719662,0.0001580664195868634
-0.4598642439406831,-0.4598642439406831,1.0000603158326136,0.0001698836308432964
-0.45955254481814334,-0.45955254481814334,0.9996506286917268,0.00018679021503093372
-0.4593310262745945,-0.4593310262745945,0.9999189365941042,0.00016258406890903013
-0.45909468322934116,-0.45909468322934116,1.0000199540239145,0.00016818786196367465
-0.4588672007870628,-0.4588672007870628,0.9998829937967306,0.00016008220785010025
-0.4587443763448391,-0.4587443763448391,1.000014721405115,0.0001664110338269561
-0.4585876981029287,-0.4585876981029287,1.000165368480992,0.00015392540130532948
-0.45840841446770353,-0.45840841446770353,1.0000251356139613,0.00016226960132651092
-0.4582621604000451,-0.4582621604000451,1.0000612411865968,0.0001548356923179995
-0.4580802840413526,-0.4580802840413526,0.9998952666678615,0.0001574021549917386
-0.4576434137416072,-0.4576434137416072,1.00003745562685,0.00015995517637394828
-0.4573387345531955,-0.4573387345531955,0.9998343803504925,0.00016957252789865412
-0.4571379698027158,-0.4571379698027158,1.0003597364466323,0.00015919141154306893
-0.4569067969598109,-0.4569067969598109,0.9997554170515238,0.00017173089063233924
-0.45675318742578386,-0.45675318742578386,1.0000524364845425,0.00016786860923688823
-0.45654831154679415,-0.45654831154679415,1.0000899071988953,0.00015904629896441972
-0.4564499699277803,-0.4564499699277803,1.0001300796635733,0.0001557867229435239
-0.45623386253719217,-0.45623386253719217,1.0001145092786081,0.00015475892068335265
-0.4561235907982336,-0.4561235907982336,1.0000551312539792,0.00015606165962245728
-0.45585417370020875,-0.45585417370020875,1.000196316348577,0.00015593804917444506
-0.45540081696235574,-0.45540081696235574,1.0001316601977228,0.00017122606634622494
-0.4553246243565809,-0.4553246243565809,1.0002437998952456,0.0001651133772034611
-0.4550623840128537,-0.4550623840128537,0.9999903308070157,0.00015837689458323364
-0.4549686576472595,-0.4549686576472595,0.9998942614903527,0.000169557550167528
-0.4546575387270423,-0.4546575387270423,1.0000825487511331,0.00015553403076330876
-0.4544955648336327,-0.4544955648336327,1.0000367663254335,0.00017991202828382855
-0.45438883918395734,-0.45438883918395734,1.000131024908545,0.0001579035082385364
-0.4542654381948523,-0.4542654381948523,0.9999902900962979,0.0001696783756732425
-0.4541687292425195,-0.4541687292425195,1.0000385747387053,0.00015455517682637742
