time,time,flux,flux_err
-0.4989350006862878,-0.4989350006862878,0.9994167780801428,4.617639089160936e-05
-0.4970715573498438,-0.4970715573498438,0.999558646054094,4.616688352755871e-05
-0.4953325148322222,-0.4953325148322222,0.9989682721341111,4.616470411247095e-05
-0.49371314230598673,-0.49371314230598673,0.9989689450267191,4.616599260943112e-05
-0.4920988219753866,-0.4920988219753866,0.9993184357562273,4.616260443567027e-05
-0.4904993065861419,-0.4904993065861419,0.998994943748988,4.616554197865709e-05
-0.48891985810866173,-0.48891985810866173,0.9992464559928044,4.615916846400853e-05
-0.4873352981974136,-0.4873352981974136,0.9989128660614573,4.616039129917013e-05
-0.48577079067285356,-0.48577079067285356,0.9993266779929403,4.616104170058508e-05
-0.48422111714147603,-0.48422111714147603,0.9992749260143402,4.617305667863257e-05
-0.48259680970470525,-0.48259680970470525,0.9996441061092269,4.618013459234459e-05
-0.4810571089256598,-0.4810571089256598,0.999657619336182,4.619221521495053e-05
-0.47946767333864954,-0.47946767333864954,0.9997588869736029,4.618195216480655e-05
-0.47794292803676514,-0.47794292803676514,0.9997648582079549,4.617830390870509e-05
-0.4763186061609332,-0.4763186061609332,1.0000208564544184,4.618000694097856e-05
-0.4747540063696448,-0.4747540063696448,1.0000312303751655,4.6183875437738836e-05
-0.4731097205048485,-0.4731097205048485,1.0000304122482873,4.6182116113845446e-05
-0.4715950070131072,-0.4715950070131072,0.9999022483617417,4.6177916490349034e-05
-0.4699955398306315,-0.4699955398306315,1.0000721246691597,4.618410602155851e-05
-0.46844095732855634,-0.46844095732855634,1.0000159313613,4.617759914481592e-05
-0.4668315320015409,-0.4668315320015409,0.9999195674583857,4.617944620746931e-05
-0.46529189045489827,-0.46529189045489827,0.9999834671158391,4.617580541851669e-05
-0.4636376279169525,-0.4636376279169525,1.0000115637449782,4.617915846451677e-05
-0.461843861144348,-0.461843861144348,1.0000201916970035,4.617659702689122e-05
-0.4597461542072665,-0.4597461542072665,0.9999956824282729,4.618087765493774e-05
-0.4577680134128201,-0.4577680134128201,1.0000151062881233,4.617997600552051e-05
-0.45616857863843735,-0.45616857863843735,0.9999689883306424,4.617749218690952e-05
-0.4546538258962102,-0.4546538258962102,1.0000440199115654,4.617628538417079e-05
-0.4530543984194509,-0.4530543984194509,0.9999423965780199,4.617497306378402e-05
-0.45153963846813666,-0.45153963846813666,1.0000000806852576,4.617445746359643e-05
-0.4499402182823246,-0.4499402182823246,1.0000371577672307,4.617840327670621e-05
-0.44842545112276755,-0.44842545112276755,0.9999473193259616,4.6173702390820135e-05
-0.44682603823208356,-0.44682603823208356,0.9999910605696666,4.617761610571605e-05
-0.4453112638651078,-0.4453112638651078,0.9999854994508264,4.617396453553367e-05
-0.44371185826201154,-0.44371185826201154,1.000059923650253,4.617611070192898e-05
-0.4421970766909567,-0.4421970766909567,0.9999690510916313,4.6173581187473446e-05
-0.44059767837964614,-0.44059767837964614,1.0000351758978365,4.617532040556453e-05
-0.4390828896036936,-0.4390828896036936,0.9999934994976203,4.6173818698949597e-05
-0.4374834985799453,-0.4374834985799453,1.0000125810106255,4.617650944335904e-05
-0.43595873726842455,-0.43595873726842455,0.9999657266444064,4.6175444370024194e-05
-0.43425465303254496,-0.43425465303254496,1.0000656697267964,4.6175586358366074e-05
-0.4326453083416567,-0.4326453083416567,0.9999145863433692,4.6171607151994725e-05
-0.43103583021539577,-0.43103583021539577,1.00004473527285,4.617519653539917e-05
-0.4294613714627985,-0.4294613714627985,1.0000861437961404,4.617617948249762e-05
-0.4279216434363235,-0.4279216434363235,0.9999403482548695,4.617380839320618e-05
-0.42634719196882714,-0.42634719196882714,0.9999794985957016,4.617359908074917e-05
-0.4248074568380872,-0.4248074568380872,1.0000287091930509,4.6173275190665204e-05
-0.42320810093579836,-0.42320810093579836,1.0000068488979443,4.6172194806187374e-05
-0.4216235193641268,-0.4216235193641268,1.0000230304861386,4.617283473113163e-05
-0.419974249416785,-0.419974249416785,1.0001033717401024,4.617533175131955e-05
-0.4184496424040276,-0.4184496424040276,0.999950158840752,4.617232995754635e-05
-0.41681024426289637,-0.41681024426289637,0.9999713843639096,4.6172290370261165e-05
-0.415285641879575,-0.415285641879575,0.9999629153003472,4.617368392224469e-05
-0.4136960658325819,-0.4136960658325819,1.0001382678706239,4.617437989547033e-05
-0.4121615027479919,-0.4121615027479919,0.9999229461958519,4.617192674795627e-05
-0.41052209545603374,-0.41052209545603374,0.9999833836006733,4.616992235011518e-05
-0.40887293530458635,-0.40887293530458635,0.9999505706964446,4.6174163261378675e-05
-0.4071687483430537,-0.4071687483430537,1.0000759468939013,4.617331786061647e-05
-0.40561924689253315,-0.40561924689253315,1.00002485873962,4.6175406748738705e-05
-0.4040545701800028,-0.4040545701800028,0.9999079745101588,4.6169026524816006e-05
-0.4025050733530833,-0.4025050733530833,1.0000198489004961,4.6178296443120855e-05
-0.40093042677565904,-0.40093042677565904,0.9999869910276505,4.61745910086461e-05
-0.3993161599571636,-0.3993161599571636,1.0000343164145662,4.617905194665066e-05
-0.39751716209821664,-0.39751716209821664,0.9999811105744214,4.61700333023976e-05
-0.39565389187215205,-0.39565389187215205,0.9999988122952088,4.618145373152273e-05
-0.39408920064315967,-0.39408920064315967,1.0000233007621926,4.6178795685102744e-05
-0.39253971860919706,-0.39253971860919706,0.9999753409826713,4.618379392580284e-05
-0.390975022847644,-0.390975022847644,0.9999020057072625,4.617889861028044e-05
-0.38942554543139635,-0.38942554543139635,1.0000388325673062,4.6185545297908145e-05
-0.3878608451373339,-0.3878608451373339,0.9999756717492627,4.618276025950368e-05
-0.38631137234133917,-0.38631137234133917,1.0000927738310952,4.618861039288551e-05
-0.3847466675147132,-0.3847466675147132,0.9999855009004059,4.618298041550185e-05
-0.3831971993356206,-0.3831971993356206,0.9999364627819658,4.618564980328207e-05
-0.38163248998233146,-0.38163248998233146,0.9999705908687908,4.618182350888204e-05
-0.38008302641763125,-0.38008302641763125,1.0000748124354633,4.6187269886477e-05
-0.3785183125317843,-0.3785183125317843,1.0000060800883481,4.618084980602135e-05
-0.37696885358648446,-0.37696885358648446,1.0000141316229194,4.618512185712966e-05
-0.3754041351731246,-0.3754041351731246,0.999921767774906,4.618088986931802e-05
-0.3738546808422399,-0.3738546808422399,1.0000240624138343,4.6186646471939885e-05
-0.3722899578996731,-0.3722899578996731,1.0000143840980313,4.618095863128435e-05
-0.3707405081831496,-0.3707405081831496,0.9999723704519619,4.618099202590381e-05
-0.3691757807164322,-0.3691757807164322,1.0000329924154703,4.6179663600252934e-05
-0.36762633561298513,-0.36762633561298513,1.0000841624773629,4.6180502303995105e-05
-0.36606160361414763,-0.36606160361414763,0.9999059006569355,4.617661952118311e-05
-0.3645121631058913,-0.3645121631058913,1.0001037048001893,4.618108164095805e-05
-0.3629474265887097,-0.3629474265887097,1.0000245390483504,4.6177615047020795e-05
-0.36138304259314113,-0.36138304259314113,1.000062619882431,4.618157792488934e-05
-0.3597585091892512,-0.3597585091892512,0.9999594493348283,4.6176764361763004e-05
-0.3582339913719096,-0.3582339913719096,0.9999663214019359,4.6180088324346584e-05
-0.3566443323408947,-0.3566443323408947,1.0000294576512712,4.6178785036147176e-05
-0.3551198191270856,-0.3551198191270856,1.0000263684615351,4.618123251611682e-05
-0.35353015558359,-0.35353015558359,0.9999557309981173,4.6175118077245976e-05
-0.3520056469665832,-0.3520056469665832,1.0000188131227428,4.61801881150104e-05
-0.3504159789148019,-0.3504159789148019,1.0000551705623624,4.617681524131021e-05
-0.3488914748938157,-0.3488914748938157,0.9999402827625969,4.617823247775661e-05
-0.3473018023345958,-0.3473018023345958,1.0000178280679726,4.617403786664268e-05
-0.3457773029070722,-0.3457773029070722,1.0000254216314435,4.617777113026925e-05
-0.3441876258403994,-0.3441876258403994,1.0000228915621578,4.6175121759376084e-05
-0.3426631310163799,-0.3426631310163799,0.9999524409882294,4.617650135952177e-05
-0.34107344943557505,-0.34107344943557505,1.000095695717674,4.617566341781086e-05
-0.33954895920422246,-0.33954895920422246,0.9999397366441247,4.61737776215455e-05
-0.337959273120137,-0.337959273120137,0.99995761913097,4.617378232558191e-05
-0.33643478748140865,-0.33643478748140865,1.0001255973295353,4.617801315719311e-05
-0.3348450968940512,-0.3348450968940512,0.9999332879633569,4.617348921694384e-05
-0.3333206158479925,-0.3333206158479925,0.9999858384321556,4.617447268442559e-05
-0.33173092075569743,-0.33173092075569743,0.9999641967066861,4.617375058091192e-05
-0.3302064443014814,-0.3302064443014814,1.0000656368116125,4.6176674555697615e-05
-0.32855219734982766,-0.32855219734982766,1.000013647040586,4.6175775156970314e-05
-0.3268977200016394,-0.3268977200016394,0.9999910079991782,4.6173849214792406e-05
-0.32532342392965174,-0.32532342392965174,0.9999813810623468,4.617763315721142e-05
-0.32371876904852004,-0.32371876904852004,1.0000141640317655,4.6174195714428126e-05
-0.322159425651671,-0.322159425651671,1.00004132546168,4.618000339179197e-05
-0.32059462783533377,-0.32059462783533377,0.9999936263199324,4.617099290840167e-05
-0.31904525442171805,-0.31904525442171805,0.9999913231946511,4.617829701834985e-05
-0.3174804521062697,-0.3174804521062697,0.999979989348631,4.617023286572886e-05
-0.3159310832794233,-0.3159310832794233,1.0000394807837631,4.618009938750625e-05
-0.3143662764665578,-0.3143662764665578,0.9999951371433629,4.6170482033209314e-05
-0.31281691222484936,-0.31281691222484936,0.999939575007377,4.617693289001313e-05
-0.3112521009153909,-0.3112521009153909,1.0000178007083655,4.6169786976691006e-05
-0.3097027412579962,-0.3097027412579962,1.0000473989535477,4.617842945874345e-05
-0.30813792545611707,-0.30813792545611707,1.0000350920221266,4.617335629457296e-05
-0.306588570383019,-0.306588570383019,0.9999321413279374,4.617683423843324e-05
-0.3050237500853683,-0.3050237500853683,0.9999918381175515,4.617308431231104e-05
-0.30347439959489575,-0.30347439959489575,0.999994398742723,4.617700538739752e-05
-0.3018746959387414,-0.3018746959387414,1.000105960252577,4.617624920038974e-05
-0.3003104019475643,-0.3003104019475643,0.9999573860072752,4.617789839263986e-05
-0.29872065919204543,-0.29872065919204543,1.0000011301185305,4.617268737098808e-05
-0.29719623133987055,-0.29719623133987055,0.9999631839956438,4.6177858603789746e-05
-0.29559153600943944,-0.29559153600943944,1.0000292655579117,4.6174005237362914e-05
-0.2940322338754754,-0.2940322338754754,0.9999559953948453,4.6177316294082405e-05
-0.2924175686645668,-0.2924175686645668,1.0000475979422456,4.617152140355052e-05
-0.2909180634448546,-0.2909180634448546,1.0000389592617729,4.6176459935757773e-05
-0.28930339375322944,-0.28930339375322944,0.9999500400208909,4.616731559105695e-05
-0.28780389310445004,-0.28780389310445004,1.0000063716892957,4.617630009742133e-05
-0.2861892189254235,-0.2861892189254235,1.0000166833976452,4.617068163870725e-05
-0.28468972285342886,-0.28468972285342886,0.9999624310507388,4.6174302657882326e-05
-0.2830750441928359,-0.2830750441928359,0.9999789073471955,4.6167504284958674e-05
-0.2815755526917627,-0.2815755526917627,1.0000435309565745,4.617352783091359e-05
-0.27996086954711075,-0.27996086954711075,1.0000209947708205,4.616683485956674e-05
-0.27846138262115405,-0.27846138262115405,1.0000159181815267,4.6170888848033526e-05
-0.27684669499328435,-0.27684669499328435,0.9999684044812719,4.616359300260043e-05
-0.27534721263992595,-0.27534721263992595,1.0000406101699073,4.6172063653812226e-05
-0.2737278453679721,-0.2737278453679721,0.9999972304607988,4.616967372416698e-05
-0.27217294289205823,-0.27217294289205823,0.9999955772705281,4.616313281435641e-05
-0.2705638485876648,-0.2705638485876648,1.0000908876711367,4.6172747331088816e-05
-0.2689989762463171,-0.2689989762463171,1.0000013132822456,4.616302028611834e-05
-0.26693179621592267,-0.26693179621592267,0.9999322820543035,4.617745284857097e-05
-0.2647341219034359,-0.2647341219034359,1.0000207647269403,4.617146758206301e-05
-0.2629303951484303,-0.2629303951484303,1.0000024069565225,4.6172238762116175e-05
-0.2612758235923366,-0.2612758235923366,1.0000090476412162,4.6161170377816924e-05
-0.2597763640702226,-0.2597763640702226,0.9999687398787962,4.617138219476899e-05
-0.2581616495847783,-0.2581616495847783,0.999998774792411,4.615943411871545e-05
-0.256662194628592,-0.256662194628592,1.000003034629407,4.616943739951758e-05
-0.2550474756690875,-0.2550474756690875,1.0000456754214768,4.615883391169811e-05
-0.2535280945035737,-0.2535280945035737,0.9999573799475261,4.616457639524909e-05
-0.251829004479697,-0.251829004479697,0.9999531273022232,4.616483205313997e-05
-0.25028901875380427,-0.25028901875380427,1.0000870039245,4.6157431600784794e-05
-0.24871483527193164,-0.24871483527193164,0.9999995038007693,4.6163324739337544e-05
-0.2471748450703501,-0.2471748450703501,0.9999694364136976,4.615249242730589e-05
-0.2456006661451994,-0.2456006661451994,0.9999755369904222,4.6160645489287975e-05
-0.24406067147792215,-0.24406067147792215,1.0000109387324372,4.6152440901053976e-05
-0.242486497112003,-0.242486497112003,1.000066621068743,4.616173566928169e-05
-0.24094649798322224,-0.24094649798322224,0.9999122476482338,4.6148832622332706e-05
-0.23937232817238224,-0.23937232817238224,0.9999625999818,4.615855094793973e-05
-0.2378323245720509,-0.2378323245720509,0.9999752852769067,4.6147051282198374e-05
-0.2357353393359091,-0.2357353393359091,1.0001073493397714,4.617344558504885e-05
-0.23371699738987955,-0.23371699738987955,0.9999807403871566,4.616211325630118e-05
-0.23215207229898455,-0.23215207229898455,0.9999006340858523,4.614883207955164e-05
-0.23060282870249865,-0.23060282870249865,1.0000259631603348,4.616468417620798e-05
-0.2290030203123763,-0.2290030203123763,1.000030347724719,4.615126691905826e-05
-0.2274388331976553,-0.2274388331976553,1.0000014233505605,4.6165910544908965e-05
-0.22584898573074383,-0.22584898573074383,1.0000055917989126,4.6151995196923005e-05
-0.22431469931518108,-0.22431469931518108,0.9999488329612112,4.616579334356434e-05
-0.22266007240912983,-0.22266007240912983,0.9999749398047737,4.6152666557147003e-05
-0.2211108428266499,-0.2211108428266499,1.0001251583186128,4.616978903666681e-05
-0.2194362811366773,-0.2194362811366773,0.9998738622066752,4.6147152400886565e-05
-0.21782228159346176,-0.21782228159346176,1.0000776935274993,4.616601488541483e-05
-0.2162822471322869,-0.2162822471322869,1.000047194370076,4.61499815263816e-05
-0.2146433388647381,-0.2146433388647381,0.9999887415876169,4.616436291267836e-05
-0.21305845562834805,-0.21305845562834805,0.9999420279284766,4.6147694561359284e-05
-0.21146937852775807,-0.21146937852775807,1.0000360007618494,4.6164066285010196e-05
-0.20992933498082778,-0.20992933498082778,1.0000452155714679,4.61493441017712e-05
-0.2083302970405782,-0.2083302970405782,0.9999993360779218,4.616239601965661e-05
-0.20674042214366467,-0.20674042214366467,0.9999334016719539,4.6145988595993465e-05
-0.20517626768830724,-0.20517626768830724,1.0000141113086962,4.616503729050763e-05
-0.2035764232186125,-0.2035764232186125,0.9999896933066419,4.6147166533054115e-05
-0.2020023079950107,-0.2020023079950107,0.9999647154426023,4.6163211501348795e-05
-0.20046225092923464,-0.20046225092923464,1.000067163654212,4.6147247614411435e-05
-0.19888814024230328,-0.19888814024230328,0.9999801215280975,4.616471116707409e-05
-0.19734807873421972,-0.19734807873421972,0.9999914981537131,4.614811695314279e-05
-0.19572912869807624,-0.19572912869807624,0.9999794475776967,4.616493387471638e-05
-0.19418408009899793,-0.19418408009899793,0.9999941015737053,4.614736127231261e-05
-0.19258506521523203,-0.19258506521523203,1.0000624276523353,4.6166725102699256e-05
-0.1910699080911229,-0.1910699080911229,0.9999998162199507,4.6145635218926395e-05
-0.1894708977406907,-0.1894708977406907,0.9999498208776103,4.6163062843267663e-05
-0.18795573618095318,-0.18795573618095318,0.999988069183247,4.614595538271933e-05
-0.18635673036303899,-0.18635673036303899,1.0000100928971762,4.616348128343286e-05
-0.1847867551768445,-0.1847867551768445,1.0000414452092263,4.6146543275448515e-05
-0.18308267969260897,-0.18308267969260897,0.999969089881508,4.614364666713807e-05
-0.1815235423441976,-0.1815235423441976,0.9999763839818241,4.6160390167731204e-05
-0.17995854271975986,-0.17995854271975986,1.0000088485411183,4.6146102052449e-05
-0.17840937520208514,-0.17840937520208514,1.000067176793755,4.616380640204254e-05
-0.1768443711487322,-0.1768443711487322,1.000033666824756,4.6147169933358926e-05
-0.17529520816023308,-0.17529520816023308,0.9999464411731811,4.616345478952096e-05
-0.1735354234189316,-0.1735354234189316,1.0001047046698912,4.612998787157536e-05
-0.17163294761119516,-0.17163294761119516,1.000005017947094,4.617050984435732e-05
-0.17004302055597975,-0.17004302055597975,0.9999703158054756,4.6148865483239e-05
-0.16851878076813592,-0.16851878076813592,0.9999654492838372,4.6168402979544234e-05
-0.16692884929065882,-0.16692884929065882,1.0000739079460867,4.615199469580494e-05
-0.16540461402028087,-0.16540461402028087,0.9999552647481119,4.616704720670181e-05
-0.16381467811972356,-0.16381467811972356,1.0000037566486946,4.614765319970665e-05
-0.16228048205938422,-0.16228048205938422,0.9999786221551112,4.6164415004883405e-05
-0.16065068052527068,-0.16065068052527068,1.000065988521314,4.614904206533627e-05
-0.15910154101975138,-0.15910154101975138,0.9999156632930959,4.61635406120042e-05
-0.15745678712225414,-0.15745678712225414,1.0000062381416386,4.614141354523071e-05
-0.15567298969141916,-0.15567298969141916,1.0000272963006451,4.613968144692875e-05
-0.15379950455531458,-0.15379950455531458,0.9999912643749511,4.614214511257332e-05
-0.15225037501215297,-0.15225037501215297,1.0000206939486704,4.615656152085607e-05
-0.15068533382409158,-0.15068533382409158,1.0000882975520535,4.613958294154403e-05
-0.14872665514581057,-0.14872665514581057,1.000003513621017,4.6120017683730435e-05
-0.1461854885915841,-0.1461854885915841,1.0000235976164,4.612177434318808e-05
-0.1439736727983103,-0.1439736727983103,0.9999730089184569,4.612587499285737e-05
-0.14235978324303744,-0.14235978324303744,0.9999150560587433,4.614958357380111e-05
-0.14071500544679622,-0.14071500544679622,0.9999082765367902,4.61356558294113e-05
-0.1387518309387616,-0.1387518309387616,1.0000904692621473,4.614572415374877e-05
-0.1371224930995794,-0.1371224930995794,0.9999793903077464,4.6134293370810706e-05
-0.13581993886340626,-0.13581993886340626,0.9999287603476288,4.797472246179223e-05
-0.13456035815909786,-0.13456035815909786,1.0000764819812813,4.707992120953049e-05
-0.13352489645835988,-0.13352489645835988,0.9999316548342536,4.70818222516615e-05
-0.13241177537325655,-0.13241177537325655,1.0000296286843116,4.619388843681714e-05
-0.13140880789754875,-0.13140880789754875,1.0000097890842778,4.617396703335349e-05
-0.13037831848245957,-0.13037831848245957,1.000111977510866,4.618592966138034e-05
-0.12920239939591624,-0.12920239939591624,0.9999636867170448,4.618360662338338e-05
-0.128091778389512,-0.128091778389512,1.0000210227331632,4.6204738943770614e-05
-0.12702495644751935,-0.12702495644751935,0.9998941756828218,4.6189948513661184e-05
-0.1260025905945355,-0.1260025905945355,1.000054882522839,4.61822644452886e-05
-0.12489235929316464,-0.12489235929316464,0.9999903803798944,4.619156116546338e-05
-0.1233984507843445,-0.1233984507843445,1.000025889757318,4.621331767642221e-05
-0.12183244402734487,-0.12183244402734487,1.0000311165925755,4.618162193100404e-05
-0.12055740556775732,-0.12055740556775732,0.9999698153083487,4.6194547307831954e-05
-0.11945676715472472,-0.11945676715472472,0.9998911325274464,4.621102278120667e-05
-0.11816570876736705,-0.11816570876736705,0.9999981937386411,4.620020159542755e-05
-0.11692003266758774,-0.11692003266758774,0.9999389767911635,4.6203781898127846e-05
