time,time,flux,flux_err
-0.4980074668207332,-0.4980074668207332,0.9998915344324554,0.00012342327652127262
-0.49634527024827546,-0.49634527024827546,0.9997256201295915,0.00011265085508227385
-0.4943605865060817,-0.4943605865060817,0.999972702666273,0.00011267563690396957
-0.4929306050915329,-0.4929306050915329,1.0000502606853765,0.0001126690109983228
-0.4911307295747974,-0.4911307295747974,1.0000360023674717,0.00011266727579308891
-0.48964677650365046,-0.48964677650365046,0.9998892096841002,0.00011269352943547197
-0.48754570108940243,-0.48754570108940243,0.9999620611669527,0.00011267013301396504
-0.485578978540434,-0.485578978540434,0.999835271720249,0.0001132111575935545
-0.4840656859021692,-0.4840656859021692,0.9999317584310272,0.0001126655311278027
-0.4820391919478425,-0.4820391919478425,1.0000573377131035,0.0001126942661265083
-0.4808399441106303,-0.4808399441106303,1.0001246796279273,0.00011267643082395644
-0.47917191203887344,-0.47917191203887344,0.9999824148173687,0.00011269137430909566
-0.47757102613832103,-0.47757102613832103,1.0000898360176778,0.00011267215813431134
-0.47599458480181056,-0.47599458480181056,0.9998884832935323,0.00011267039672238886
-0.47436622983586857,-0.47436622983586857,1.0001527010476252,0.00011268144929342904
-0.47297838564481937,-0.47297838564481937,1.0001798156442177,0.00011290912578810729
-0.4710514983009489,-0.4710514983009489,1.0001015138581608,0.00011266297350385091
-0.46982378877655717,-0.46982378877655717,1.0000130277892698,0.00011275709341285521
-0.468069831244793,-0.468069831244793,1.0000296514224423,0.0001126912298098536
-0.4666465272726782,-0.4666465272726782,1.0000220585956807,0.00011266072480288733
-0.4648444187529094,-0.4648444187529094,1.0000311781603892,0.0001126672231850877
-0.46393310989587916,-0.46393310989587916,1.0001283554819846,0.00011268262978366657
-0.4621253117766173,-0.4621253117766173,0.9999649732181106,0.0001127201339131124
-0.4604248690251552,-0.4604248690251552,1.0000308569108327,0.00011266254187555567
-0.45832544797231095,-0.45832544797231095,1.0000800488700423,0.0001126856654932168
-0.4567615545805893,-0.4567615545805893,1.0000364237442174,0.00011266114886159437
-0.4547906379935739,-0.4547906379935739,1.000089799793392,0.00011266043545044504
-0.4537394687133201,-0.4537394687133201,0.9999241195819651,0.00011267255901442181
-0.4517562124361575,-0.4517562124361575,0.9998756261240777,0.00011268517544282832
-0.45041898069539454,-0.45041898069539454,0.9999090733841897,0.00011264104879892534
-0.44858438252922495,-0.44858438252922495,1.0002199835305738,0.00011267495500970463
-0.4473190852040716,-0.4473190852040716,0.9999670320597887,0.00011266557533967643
-0.4450323895493057,-0.4450323895493057,0.9998771516029192,0.00011271346188218487
-0.44420544329259426,-0.44420544329259426,1.0000959613244977,0.00011266864764796782
-0.4424203492242668,-0.4424203492242668,0.9998434131848658,0.00011284295598317632
-0.4409672462294111,-0.4409672462294111,1.0000272269765735,0.00011265376458874932
-0.4391267839797365,-0.4391267839797365,1.0002002096277551,0.00011266443651349637
-0.4378690610246849,-0.4378690610246849,0.9999387488219258,0.00011266357376812522
-0.436206164406758,-0.436206164406758,0.9999011198044826,0.0001127013508248129
-0.43462986834783807,-0.43462986834783807,1.0001916492810543,0.00011266583668356568
-0.4323063938303676,-0.4323063938303676,0.9997652731996176,0.00011265845738606848
-0.4308486094101681,-0.4308486094101681,0.9999302936913349,0.00011264855716844045
-0.4285456996200082,-0.4285456996200082,1.0000700656595183,0.00011266513442654693
-0.4276767743896926,-0.4276767743896926,1.00001054741996,0.00011265481247760899
-0.4254678465353209,-0.4254678465353209,1.0000092766491864,0.00011270371869600514
-0.4241314844832232,-0.4241314844832232,1.0000807612498743,0.00011265130206549809
-0.4222938309627352,-0.4222938309627352,1.0000618745974332,0.00011266399439156798
-0.421029492780508,-0.421029492780508,1.0000683091688656,0.00011267149784011828
-0.4186940879197209,-0.4186940879197209,1.000142933828864,0.0001126930093396285
-0.41764144662956826,-0.41764144662956826,0.9999399584093969,0.00011289644070907397
-0.41574192405678334,-0.41574192405678334,0.9999650966771119,0.00011267941963308415
-0.41431110185658326,-0.41431110185658326,1.0000016097446014,0.00011265818046100956
-0.41226083760993787,-0.41226083760993787,0.9999969158317537,0.00011267206693216117
-0.41127227232573205,-0.41127227232573205,0.9999812171042697,0.00011267157151246423
-0.40927311731138616,-0.40927311731138616,1.0000282328401402,0.00011270613215120064
-0.4073299570562085,-0.4073299570562085,1.0000085488904056,0.0001126692428880687
-0.40546439703102805,-0.40546439703102805,0.9998403680195859,0.00011266056643418701
-0.4039268978020118,-0.4039268978020118,1.0001018296041861,0.00011268599992647744
-0.4017684377802652,-0.4017684377802652,0.9999166069611187,0.00011264332986686749
-0.40005715013758164,-0.40005715013758164,1.000021207297526,0.00011270696047109983
-0.3984037337599148,-0.3984037337599148,0.9999612743422077,0.00011265398191920092
-0.3962684084290231,-0.3962684084290231,0.9999665047026245,0.00011266474780930301
-0.3951069447080954,-0.3951069447080954,1.0000040370813177,0.00011267732050991102
-0.3927026308236236,-0.3927026308236236,0.9998516969015367,0.00011268614790034899
-0.39095520966584446,-0.39095520966584446,1.000165339548298,0.00011298468705969646
-0.389194667396805,-0.389194667396805,0.9998795606791031,0.00011266789269877236
-0.38763208769451013,-0.38763208769451013,0.9999331823923521,0.00011264934404990777
-0.3855008244609053,-0.3855008244609053,0.9999707648957606,0.00011266766450361192
-0.3842128590469656,-0.3842128590469656,1.0003333808063037,0.00011271598428447431
-0.38238021756988017,-0.38238021756988017,1.0001170082690918,0.00011269056839226225
-0.38060237744502956,-0.38060237744502956,0.999973033985196,0.00011266730400800074
-0.3789453508230508,-0.3789453508230508,1.0000185143423217,0.00011265346836421885
-0.3770797564524401,-0.3770797564524401,1.0001734120839885,0.00011269408536195396
-0.37533306963086943,-0.37533306963086943,1.00008246649458,0.00011265468863984503
-0.3733252545753203,-0.3733252545753203,0.9999569409324384,0.00011269543863594292
-0.3718775091430871,-0.3718775091430871,0.9998625321057879,0.00011265668601046794
-0.3699840354915068,-0.3699840354915068,0.9999872205786762,0.00011266147388190989
-0.36881563476563317,-0.36881563476563317,0.9999158596888851,0.00011266746968608172
-0.36641650380479407,-0.36641650380479407,0.9998714549545431,0.00011268618284807511
-0.36466589179763104,-0.36466589179763104,1.0001112544442698,0.00011317179881789661
-0.36290319879044547,-0.36290319879044547,1.0000613753109406,0.00011267403088936612
-0.3613399961977848,-0.3613399961977848,1.0000274245993208,0.00011264676194225052
-0.35921101102067043,-0.35921101102067043,0.9999526131100792,0.00011265513079386485
-0.35829008239379617,-0.35829008239379617,1.0000302742883729,0.00011266341853844577
-0.35633077404781943,-0.35633077404781943,0.9999707712052818,0.00011270552701939512
-0.354715365813172,-0.354715365813172,0.9999591767970489,0.00011267050480663627
-0.3528865438231151,-0.3528865438231151,0.9998478724724158,0.00011267111146064412
-0.35175238205265486,-0.35175238205265486,0.9999425381677197,0.00011267633686413506
-0.34949518953289954,-0.34949518953289954,0.999856092106078,0.0001126939866609977
-0.348511434224929,-0.348511434224929,1.0000078646779358,0.00011274325880871235
-0.3466034918521473,-0.3466034918521473,0.9998834194773251,0.0001126871709573289
-0.3452647894861002,-0.3452647894861002,0.9999570011227916,0.00011266483125272528
-0.3433951483377314,-0.3433951483377314,1.0001718261162558,0.00011267847730456091
-0.3424430958548328,-0.3424430958548328,1.0000126205209576,0.00011267036079044382
-0.34049460088353956,-0.34049460088353956,0.9996852000153208,0.00011269732842869797
-0.3387112495103793,-0.3387112495103793,0.9999361772466914,0.00011266620035173066
-0.3366118565340003,-0.3366118565340003,0.9998764113784873,0.0001126651733638555
-0.33539775148165063,-0.33539775148165063,1.0000098953282512,0.00011263615027165989
-0.3333480227971449,-0.3333480227971449,0.9997007899616724,0.00011265912406119129
-0.33231942659331254,-0.33231942659331254,0.9999020735924716,0.0001126506273441357
-0.3304165944668057,-0.3304165944668057,1.0000090004670619,0.00011269768692015465
-0.32904737557764746,-0.32904737557764746,1.0002271994710645,0.00011267152829605754
-0.3271588502895611,-0.3271588502895611,0.9998510985741736,0.00011265572850870181
-0.32597637732105794,-0.32597637732105794,0.9999573498972314,0.00011266984316384793
-0.3235610172436282,-0.3235610172436282,0.9998129533208825,0.00011272478183982797
-0.32249242120451527,-0.32249242120451527,1.0000928622811087,0.00011265390115263142
-0.32070593640455625,-0.32070593640455625,1.0000607648245166,0.00011283288056536075
-0.3190129945767694,-0.3190129945767694,0.9998768079521785,0.00011264504614536912
-0.3166301177283458,-0.3166301177283458,1.0001208510433153,0.000112682259616111
-0.31567345696457777,-0.31567345696457777,0.9998466211248098,0.00011267842091317695
-0.3138446000499243,-0.3138446000499243,1.000125888256393,0.00011271098657803656
-0.31239972666298854,-0.31239972666298854,0.9999734737356004,0.00011265828914735674
-0.31032063995589854,-0.31032063995589854,0.9999014471013575,0.0001126738057144487
-0.3087562147586141,-0.3087562147586141,1.0000604795697603,0.00011265826360309117
-0.3065555425680941,-0.3065555425680941,0.9999409293245913,0.00011265184039251067
-0.3055057938705431,-0.3055057938705431,0.9999106443348357,0.00011267762206455551
-0.303511458257708,-0.303511458257708,1.0000373019572717,0.0001126661173807276
-0.30207988524925894,-0.30207988524925894,0.9998930425713264,0.0001126540427946376
-0.3003091701932135,-0.3003091701932135,0.9999124574617261,0.00011266167575201802
-0.2988037380957394,-0.2988037380957394,0.9998426032532164,0.00011268069914051085
-0.2968007690709783,-0.2968007690709783,1.0000058822389537,0.00011264532420284033
-0.29553939519100825,-0.29553939519100825,0.999867243667692,0.00011287486109694462
-0.2940278830785246,-0.2940278830785246,1.0001443249690716,0.00011268491442641672
-0.29259787768896783,-0.29259787768896783,0.9998596560852777,0.00011263029348724195
-0.29033909572317496,-0.29033909572317496,1.0001185823232766,0.00011267361493724716
-0.2892517472500913,-0.2892517472500913,0.9998744599089049,0.0001126802250809565
-0.2871942552461405,-0.2871942552461405,1.0000891721038812,0.00011270433586001872
-0.28517598839825953,-0.28517598839825953,1.0000120665187548,0.0001126638231734347
-0.28352462459588423,-0.28352462459588423,0.9999618921585416,0.00011265738778297311
-0.2816528414761706,-0.2816528414761706,0.9998517063825076,0.00011267703550314965
-0.27991354217665504,-0.27991354217665504,0.9997931130422929,0.00011264059355262867
-0.2778963011638552,-0.2778963011638552,0.999987307824212,0.00011268777855693492
-0.27646264804716336,-0.27646264804716336,1.0001141601005101,0.00011266924896264361
-0.27455396361547174,-0.27455396361547174,0.9999984565751362,0.00011266712507654038
-0.27339336665390873,-0.27339336665390873,0.9998236889887118,0.00011265737236585277
-0.2709884044161299,-0.2709884044161299,1.0000550795692857,0.00011269773776879143
-0.2692413802345982,-0.2692413802345982,0.9998785148887611,0.00011296721275438456
-0.26748111056294877,-0.26748111056294877,0.9999803296191375,0.00011266768704902032
-0.2659186082310043,-0.2659186082310043,0.9997323640167297,0.00011263493191478015
-0.2637870606500655,-0.2637870606500655,0.99999946464703,0.00011266755642161692
-0.26249862741387914,-0.26249862741387914,0.9999258376718755,0.00011268719786708845
-0.2606664387400087,-0.2606664387400087,1.000111046181878,0.00011268068367414173
-0.25888832406271833,-0.25888832406271833,1.0000283194319608,0.00011267525283455376
-0.2572319291444728,-0.2572319291444728,0.999978488101935,0.00011266039126423535
-0.25536564691938113,-0.25536564691938113,0.9999847953579983,0.00011267079842697809
-0.2536197811481543,-0.2536197811481543,0.9999776331970113,0.00011263835818797799
-0.2516109174946905,-0.2516109174946905,1.0000081197091923,0.00011268222079938671
-0.2501638360896322,-0.2501638360896322,0.9997839067225349,0.00011264486631008903
-0.24826957598997978,-0.24826957598997978,0.9999622878723133,0.00011266125179062417
-0.24710204201837768,-0.24710204201837768,0.999940879860101,0.00011266001915085342
-0.24470226368357545,-0.24470226368357545,1.0002018621991453,0.0001127147354431152
-0.24295205126691144,-0.24295205126691144,0.9999183045020074,0.00011314102096544999
-0.2411896253062878,-0.2411896253062878,0.9999853818182471,0.00011267479095636406
-0.23962650041357847,-0.23962650041357847,0.9999716299837751,0.00011265704584291071
-0.23749722957873018,-0.23749722957873018,0.9998522843792219,0.00011266023738547832
-0.23621253434030223,-0.23621253434030223,1.0001108124144507,0.00011269128065973003
-0.23437671997744475,-0.23437671997744475,0.9999060190934376,0.00011268263544681321
-0.23263105318692395,-0.23263105318692395,0.999980714759111,0.00011266878818181684
-0.23117264518368758,-0.23117264518368758,0.9999949010837949,0.00011267740452713022
-0.23003871356850142,-0.23003871356850142,0.9998736059394722,0.0001126561202464504
-0.22762294493441004,-0.22762294493441004,1.0000395191890676,0.00011266600901172822
-0.22639621512280428,-0.22639621512280428,0.9999923284845919,0.00011272691858598693
-0.22464281225111335,-0.22464281225111335,0.9998320365016928,0.00011268487150872556
-0.22321753481010093,-0.22321753481010093,1.0000434867632484,0.0001126721168034613
-0.22141598519228864,-0.22141598519228864,0.9999750103956184,0.00011267238484346884
-0.22050495578878326,-0.22050495578878326,0.9999740642483929,0.00011267198151784384
-0.21841623753571185,-0.21841623753571185,0.9999327857200095,0.00011269840725232476
-0.2166628163169662,-0.2166628163169662,0.9999438940678183,0.00011342728596081932
-0.21489826705001178,-0.21489826705001178,0.999846851770388,0.00011266693178093679
-0.21368408919952345,-0.21368408919952345,0.9999273056579312,0.00011264743752957608
-0.21163333999065798,-0.21163333999065798,0.9999341098382561,0.00011267767462586191
-0.21060614104790149,-0.21060614104790149,1.000218352295389,0.00011268579288788196
-0.20870226228435057,-0.20870226228435057,1.0002369339300172,0.0001127168713277824
-0.20733393822665674,-0.20733393822665674,0.9998342834540764,0.00011264097801233634
-0.20549548996350495,-0.20549548996350495,0.9998190911264079,0.00011266911143099432
-0.2043918704279349,-0.2043918704279349,0.9999401061400045,0.00011267079274637603
-0.20277007404583855,-0.20277007404583855,0.9998249621954451,0.00011276853889027083
-0.20122213924696553,-0.20122213924696553,1.000027159963331,0.00011265333520396098
-0.1997141972904501,-0.1997141972904501,0.9997425135504562,0.00011281305626123683
-0.19808499632999882,-0.19808499632999882,0.9999847868096576,0.00011265686627698797
-0.195731492669438,-0.195731492669438,1.0000282533511284,0.00011267518105018644
-0.19444158889673419,-0.19444158889673419,1.0001095307119914,0.00011267466179757623
-0.19277683046748278,-0.19277683046748278,0.9999119304105649,0.00011271206583349828
-0.19146788400321385,-0.19146788400321385,1.0000180675243486,0.0001126724063344363
-0.18933126837218878,-0.18933126837218878,0.9998984797842413,0.00011267800362641137
-0.18777347407449269,-0.18777347407449269,0.9999664963896914,0.00011265434247918018
-0.18544307923657471,-0.18544307923657471,0.9999250996202835,0.00011265348119130374
-0.18449417729716516,-0.18449417729716516,0.999990061547497,0.00011264924487911185
-0.1825904095028818,-0.1825904095028818,0.9999974775735645,0.00011269308764950323
-0.1813185158302076,-0.1813185158302076,1.0000655966803873,0.00011265100878834939
-0.17962538188148755,-0.17962538188148755,1.0000964334756153,0.00011268014139788941
-0.17810117880435428,-0.17810117880435428,0.9998387976575994,0.00011266717843046842
-0.17604838301704148,-0.17604838301704148,1.0000779167098384,0.00011270258214387485
-0.17477457314817002,-0.17477457314817002,0.9999702699068169,0.00011264856239828527
-0.17307986791056465,-0.17307986791056465,0.9999191296265846,0.00011289568149444831
-0.1717899320690776,-0.1717899320690776,1.0000489280168516,0.00011266305617414749
-0.16994599382232992,-0.16994599382232992,1.000010001547779,0.00011266455767164896
-0.16826745438520446,-0.16826745438520446,1.0001250626151639,0.00011266383711663879
-0.16660287432387122,-0.16660287432387122,0.9998555690114097,0.00011271497904219514
-0.16490959369257324,-0.16490959369257324,1.000147633421931,0.00011266651907140429
-0.16259107455261984,-0.16259107455261984,0.9999270083088561,0.00011268088078950627
-0.16107285636389862,-0.16107285636389862,0.9999937960178589,0.00011264907017293384
-0.15848055502865463,-0.15848055502865463,0.9999994212426774,0.00011266433455356401
-0.15709250770305516,-0.15709250770305516,1.0000888935870216,0.00011267916465753656
-0.15525787773367483,-0.15525787773367483,1.0001742120579005,0.00011265350510430118
-0.1536968611231714,-0.1536968611231714,1.0000062634284788,0.00011267230567056638
-0.15203023844078417,-0.15203023844078417,1.0001809605922696,0.00011267270410939168
-0.1502857782295905,-0.1502857782295905,1.000060609092897,0.00011270125892557733
-0.14837198623645237,-0.14837198623645237,1.0000004793526802,0.00011264616244205792
-0.14642231576290216,-0.14642231576290216,0.9999127329633986,0.00011296252825049241
-0.14494863027503016,-0.14494863027503016,0.9999914393123113,0.00011266020313085729
-0.14265487189550186,-0.14265487189550186,0.9998344215684032,0.00011266890376532416
-0.14155603437829994,-0.14155603437829994,1.0001649140993614,0.000112666978952615
-0.13955888189011603,-0.13955888189011603,1.0000527243073074,0.00011271481485988762
-0.13761236657737755,-0.13761236657737755,0.9999686291021146,0.0001126791883842193
-0.13574764555669389,-0.13574764555669389,1.0001877942264568,0.00011267362025493987
-0.13420963933458552,-0.13420963933458552,0.9999086801467996,0.00011265999754816214
-0.13205050679825944,-0.13205050679825944,1.0002543260821273,0.00011267147525362441
-0.13034046950633638,-0.13034046950633638,1.0001082633062357,0.00011268863253641444
-0.12872389788681177,-0.12872389788681177,0.99995840132712,0.0001126669257856079
-0.1270279545460653,-0.1270279545460653,1.0001561253385076,0.00011268512424740937
-0.12552015433757333,-0.12552015433757333,0.9998794635851572,0.0001126678282288061
-0.12347113616924617,-0.12347113616924617,0.9999399434229256,0.00011267725464445787
-0.12174091104461696,-0.12174091104461696,1.0002033650786633,0.00011310521798688536
-0.11973870865112986,-0.11973870865112986,0.9999324003155105,0.00011267213204191003
-0.11829644360914245,-0.11829644360914245,1.0001081922801023,0.00011264343579576132
-0.11605043566014502,-0.11605043566014502,0.9998873004850962,0.00011266843417818719
-0.1149622651086247,-0.1149622651086247,0.9999400950100759,0.00011265696674316909
-0.11290291931072716,-0.11290291931072716,1.0001962112907306,0.00011269664864512128
-0.11128769944116357,-0.11128769944116357,1.0001247015981098,0.00011267081198257497
-0.10945874849858228,-0.10945874849858228,0.9999998662387559,0.00011267454794122707
-0.10832504769641674,-0.10832504769641674,0.9999048571696859,0.00011266379375302703
-0.10590867216596962,-0.10590867216596962,0.9999829947169756,0.00011265454493831421
-0.10468243139766856,-0.10468243139766856,1.000144181888111,0.00011274266720842189
-0.10292930536452331,-0.10292930536452331,0.9998254495944539,0.00011266544197270706
-0.10150304168128059,-0.10150304168128059,0.9999023957594142,0.00011266019958248159
-0.09970177184368367,-0.09970177184368367,0.999998497967626,0.00011266566850839763
-0.09865459202919738,-0.09865459202919738,0.9999737437182722,0.00011267114678959198
-0.09634440943336813,-0.09634440943336813,0.9999316616978178,0.00011271234174033343
-0.09456481085799169,-0.09456481085799169,0.9999417659757508,0.00011340534398338647
-0.09325639790113201,-0.09325639790113201,1.0001217993372054,0.0001126826233663107
