time,time,flux,flux_err
-0.49932970912268504,-0.49932970912268504,1.0000029866297386,8.513199327091292e-06
-0.4974733501432638,-0.4974733501432638,1.0000168167195842,8.557021542968625e-06
-0.4955578970882925,-0.4955578970882925,1.0000203823551572,8.512510471365393e-06
-0.4943268800707301,-0.4943268800707301,1.0000068624358787,8.496801762393216e-06
-0.49277304546631057,-0.49277304546631057,1.0000049135115474,8.529824195675097e-06
-0.49131588348172955,-0.49131588348172955,1.0000010549548166,8.51112415069648e-06
-0.48981363064449396,-0.48981363064449396,0.9999808403712755,8.531755304302311e-06
-0.48795488015312005,-0.48795488015312005,1.000020145154507,8.524287983967812e-06
-0.48620007887584504,-0.48620007887584504,0.9999928208898666,8.51632252622929e-06
-0.4838942204019986,-0.4838942204019986,0.9999685538072386,8.518569193913941e-06
-0.4818308441746922,-0.4818308441746922,0.9999878767200336,8.537264680852413e-06
-0.47991636400329296,-0.47991636400329296,1.0000328047424183,8.499524946834802e-06
-0.47881554796622366,-0.47881554796622366,0.9999794647459022,8.507725087102532e-06
-0.4775256681619794,-0.4775256681619794,1.0000124394692294,8.539296975950537e-06
-0.47575851868678,-0.47575851868678,0.9999853040709302,8.525855225264376e-06
-0.47434760503529105,-0.47434760503529105,1.0000146770827771,8.514109717736478e-06
-0.4730653869220987,-0.4730653869220987,1.000014519075581,8.525726687963148e-06
-0.47171837449132,-0.47171837449132,1.0000166419785388,8.513385890356752e-06
-0.46970178995106837,-0.46970178995106837,0.9999786075971528,8.526541227828896e-06
-0.4674501358102134,-0.4674501358102134,0.9999751656142987,8.520757555605684e-06
-0.4654384761946858,-0.4654384761946858,1.000008345307418,8.523041810612951e-06
-0.463703892333433,-0.463703892333433,0.999964543416388,8.511096026708785e-06
-0.46279783041900374,-0.46279783041900374,1.0000340177384381,8.50934102942589e-06
-0.4615098949354433,-0.4615098949354433,1.000031349105965,8.528765606572194e-06
-0.4597447514664964,-0.4597447514664964,0.9999523265900635,8.512223767532208e-06
-0.45833401668278384,-0.45833401668278384,1.0000082207005563,8.509627093744498e-06
-0.45674322161212333,-0.45674322161212333,0.9999780375492977,8.542279028085719e-06
-0.45456134136911713,-0.45456134136911713,1.000012204831916,8.521045414749332e-06
-0.45235518405606856,-0.45235518405606856,0.9999985215532188,8.511119218948275e-06
-0.45060442718167903,-0.45060442718167903,0.9999852245118751,8.51063938710584e-06
-0.4484970766672632,-0.4484970766672632,1.0000149120198172,8.528315884701562e-06
-0.4471598042000551,-0.4471598042000551,1.0000222694663161,8.511072733610073e-06
-0.4457843840042187,-0.4457843840042187,0.9999853927010449,8.521875651077013e-06
-0.44408053128863684,-0.44408053128863684,1.0000128347652961,8.540812781788861e-06
-0.44262189441578814,-0.44262189441578814,1.0000271432329657,8.518252621177812e-06
-0.44106515577659594,-0.44106515577659594,1.0000014569481048,8.54952182097645e-06
-0.4393867961887736,-0.4393867961887736,0.9999553158772893,8.513651130108727e-06
-0.4376573873698362,-0.4376573873698362,1.000030806455975,8.522020806801219e-06
-0.4359344943026372,-0.4359344943026372,0.9999747317866412,8.511147800292652e-06
-0.43435964248274106,-0.43435964248274106,1.000009369211298,8.511011512633874e-06
-0.43232416448154254,-0.43232416448154254,0.9999901612515261,8.517047049135228e-06
-0.4311445906314475,-0.4311445906314475,0.9999794750252438,8.512335726918492e-06
-0.42977293767107766,-0.42977293767107766,0.9999755358290103,8.525209837596864e-06
-0.42822128597981646,-0.42822128597981646,0.9999777937177827,8.528404374106986e-06
-0.42653389702609273,-0.42653389702609273,1.000010536338914,8.501991350708313e-06
-0.4247194274059439,-0.4247194274059439,0.9999990596507773,8.52545953548954e-06
-0.42277325758113876,-0.42277325758113876,0.9999262325180689,8.524495948187803e-06
-0.42084094085294055,-0.42084094085294055,0.9999837655523542,8.517754053109678e-06
-0.418936414046766,-0.418936414046766,0.9999966523921865,8.50741980595717e-06
-0.4173178912853473,-0.4173178912853473,0.9999964602764694,8.522693519910857e-06
-0.41549102971184765,-0.41549102971184765,0.9999731191325006,8.51171699516984e-06
-0.4143084762697981,-0.4143084762697981,0.9999452363812642,8.509572601113612e-06
-0.4127639424215886,-0.4127639424215886,1.0000062860860144,8.552418897415608e-06
-0.4109318955015624,-0.4109318955015624,1.0000271376904106,8.506909962775572e-06
-0.40907317230230544,-0.40907317230230544,1.0000366944296075,8.517570734784394e-06
-0.4071227617263503,-0.4071227617263503,0.9999729011273715,8.5154870568158e-06
-0.40510811404383273,-0.40510811404383273,0.9999761696078581,8.549894235908828e-06
-0.40319254033238394,-0.40319254033238394,1.0000137543749485,8.513002342238213e-06
-0.4019614192606241,-0.4019614192606241,0.9999985510673739,8.493031229546713e-06
-0.40040860859153327,-0.40040860859153327,0.9999823653702864,8.526609420774915e-06
-0.39895073458756086,-0.39895073458756086,0.9999635299801932,8.505295329984823e-06
-0.39744863336818526,-0.39744863336818526,0.9999933411342926,8.540084647980736e-06
-0.39558968616620405,-0.39558968616620405,0.9999815873226966,8.516642701644523e-06
-0.39383547403194824,-0.39383547403194824,0.9999797680216714,8.514528480346453e-06
-0.3915287177216669,-0.3915287177216669,0.9999620048489412,8.523395759848073e-06
-0.3894660478210426,-0.3894660478210426,0.9999756513464242,8.536841110599252e-06
-0.38755079393304187,-0.38755079393304187,0.9999933361188639,8.502346881561243e-06
-0.3864502925389388,-0.3864502925389388,1.0000128865415472,8.514425292568462e-06
-0.38523417922260705,-0.38523417922260705,0.9999902493025168,8.522215495847026e-06
-0.3837578190614295,-0.3837578190614295,0.9999828873164928,8.538373937430923e-06
-0.38228250362080873,-0.38228250362080873,0.9999916792252993,8.529469287749315e-06
-0.38099448054563256,-0.38099448054563256,1.0000233091416189,8.525099414676602e-06
-0.37959978473663797,-0.37959978473663797,0.9999589448396693,8.530224757703129e-06
-0.37782493272097784,-0.37782493272097784,0.9999782825738969,8.508857091048476e-06
-0.3755082846211735,-0.3755082846211735,1.0000200092093279,8.523523111550213e-06
-0.37345338207960593,-0.37345338207960593,0.9999811521109618,8.527494263034934e-06
-0.37159975018148544,-0.37159975018148544,1.0000209827076445,8.513109856633413e-06
-0.37059550577396294,-0.37059550577396294,0.9999707161662105,8.50963876417258e-06
-0.36943131393272777,-0.36943131393272777,0.9999957312797705,8.524596567041635e-06
-0.36773630330499146,-0.36773630330499146,1.0000312644475904,8.527192745801489e-06
-0.36626974522077943,-0.36626974522077943,0.9999797242811818,8.508759524360283e-06
-0.364708176755812,-0.364708176755812,0.9999750576956867,8.538436450546936e-06
-0.36267226126001334,-0.36267226126001334,1.0000264056900627,8.501328730999069e-06
-0.36044891957062647,-0.36044891957062647,0.9999873139089491,8.525368406769223e-06
-0.3586057320499094,-0.3586057320499094,1.0000161984780576,8.51001912530983e-06
-0.3565254932756943,-0.3565254932756943,1.0000171010761192,8.517998196743172e-06
-0.3550105765636545,-0.3550105765636545,1.0000455141010793,8.521936052043265e-06
-0.3536737721893587,-0.3536737721893587,1.0000066714621503,8.50684058487614e-06
-0.3521144590951735,-0.3521144590951735,0.9999884386829416,8.536573474052551e-06
-0.3504864321461355,-0.3504864321461355,0.9999889720226071,8.515207023064978e-06
-0.34870086086375524,-0.34870086086375524,0.9999689287748778,8.555117115072421e-06
-0.34679604318152996,-0.34679604318152996,0.999950784229543,8.515344685449708e-06
-0.34471214509248965,-0.34471214509248965,0.999997952369624,8.511583267575338e-06
-0.3428653265385947,-0.3428653265385947,1.0000146441794482,8.515890523358694e-06
-0.3412127979529032,-0.3412127979529032,0.9999714592448162,8.512567137396488e-06
-0.33930190089085954,-0.33930190089085954,0.9999539056787736,8.504922796112587e-06
-0.33826575204875553,-0.33826575204875553,0.999981340205925,8.508906600713895e-06
-0.33675651203884627,-0.33675651203884627,0.9999850945952893,8.532551581423028e-06
-0.335259051489993,-0.335259051489993,0.9999802501345385,8.517298813017439e-06
-0.33349250007086084,-0.33349250007086084,1.000055890396957,8.511939323273242e-06
-0.33151107784724443,-0.33151107784724443,0.9999817211010791,8.518350886434234e-06
-0.3296228720297222,-0.3296228720297222,1.0000267330554427,8.513686127269199e-06
-0.3275505570956739,-0.3275505570956739,0.9999590091898833,8.513335610349625e-06
-0.32597844312840607,-0.32597844312840607,0.999992284894575,8.512827181576252e-06
-0.3240530385090096,-0.3240530385090096,0.9999846244897161,8.537017495188834e-06
-0.3228244880127022,-0.3228244880127022,1.000000289964267,8.50765413834788e-06
-0.3216454573375813,-0.3216454573375813,0.9999865149921596,8.517563098415549e-06
-0.3200863307538384,-0.3200863307538384,1.0000133538639278,8.55420964992554e-06
-0.31856675329618156,-0.31856675329618156,1.0000210689841178,8.516193584348797e-06
-0.3166475328318484,-0.3166475328318484,1.0000010177119707,8.51453140644383e-06
-0.3143470717302989,-0.3143470717302989,0.9999328038519663,8.516369026028466e-06
-0.31226633746773585,-0.31226633746773585,0.9999903645526513,8.551251884354311e-06
-0.3105564017278084,-0.3105564017278084,1.0000073670991343,8.513309925910176e-06
-0.3093526789198222,-0.3093526789198222,1.0000107103697033,8.505486670605839e-06
-0.3077508343187219,-0.3077508343187219,0.9999577687329516,8.53944205041899e-06
-0.3062358412156755,-0.3062358412156755,0.9999561735475563,8.509133992842901e-06
-0.3047053159396455,-0.3047053159396455,1.0000035324371255,8.537285196053947e-06
-0.30297873400559183,-0.30297873400559183,0.999973154250131,8.51027397393817e-06
-0.30098193981539223,-0.30098193981539223,0.9999767440449562,8.51903496243056e-06
-0.29873832332814343,-0.29873832332814343,1.0000012531402898,8.517506445421654e-06
-0.2967253855902527,-0.2967253855902527,0.9999956927363947,8.535467614725535e-06
-0.2948954762992798,-0.2948954762992798,1.0000060060412992,8.514384570005288e-06
-0.29395966271767976,-0.29395966271767976,0.9999743318228959,8.506698249397983e-06
-0.29279551331928816,-0.29279551331928816,1.000040991750212,8.539398743521185e-06
-0.2910287305108795,-0.2910287305108795,0.9999837712077682,8.541834993454034e-06
-0.2896178507951845,-0.2896178507951845,0.9999830910739533,8.512543746304241e-06
-0.2883349806150363,-0.2883349806150363,1.0000079441625638,8.527092161570718e-06
-0.28676202128626754,-0.28676202128626754,1.000001251144401,8.509065243027338e-06
-0.28461991563890476,-0.28461991563890476,1.0000077080509997,8.518328060007991e-06
-0.2823194741853513,-0.2823194741853513,1.0000055937828851,8.521941184796654e-06
-0.28070806864998304,-0.28070806864998304,1.000011034139343,8.530389741859413e-06
-0.27897325413505314,-0.27897325413505314,0.9999964944233936,8.50889824722228e-06
-0.2780673562272568,-0.2780673562272568,0.9999510745185336,8.515373651627723e-06
-0.2767797740321839,-0.2767797740321839,0.9999954313668633,8.534364640753544e-06
-0.27501499227291787,-0.27501499227291787,1.0000094952065464,8.516428523108717e-06
-0.2736042899436143,-0.2736042899436143,0.999997707697837,8.513527368586573e-06
-0.27208671403859624,-0.27208671403859624,0.9999883717058295,8.539983309655775e-06
-0.27030708486272487,-0.27030708486272487,1.0000165698513475,8.503564987149264e-06
-0.2680832935133367,-0.2680832935133367,1.000018170782407,8.529724198893451e-06
-0.26624051056132886,-0.26624051056132886,1.0000001946962889,8.5187164155083e-06
-0.26416019151874937,-0.26416019151874937,1.0000141890030407,8.519388410177737e-06
-0.26264572074869647,-0.26264572074869647,1.0000161470055586,8.520324675457318e-06
-0.2613088316436915,-0.2613088316436915,1.0000115300604104,8.500600557480826e-06
-0.25974938526560437,-0.25974938526560437,1.0000256804426522,8.537353818906634e-06
-0.25812138284309183,-0.25812138284309183,0.9999250571391913,8.495333449398765e-06
-0.25633656793143017,-0.25633656793143017,0.9999488339928819,8.537973941833791e-06
-0.2544306346469966,-0.2544306346469966,0.9999237597875943,8.518482907298027e-06
-0.2523468336723454,-0.2523468336723454,0.9999270493067707,8.512982670630716e-06
-0.2504999410448363,-0.2504999410448363,1.0000062072945153,8.515483974171717e-06
-0.24884777986808332,-0.24884777986808332,0.9999956883401747,8.521530866781427e-06
-0.246936613752041,-0.246936613752041,0.9999802015108784,8.507538344807994e-06
-0.24590074213847402,-0.24590074213847402,0.9999982577932045,8.510807645711534e-06
-0.2443912893118977,-0.2443912893118977,0.9999614932398163,8.53288257198313e-06
-0.24289382925853714,-0.24289382925853714,0.9999612861310233,8.515069313486571e-06
-0.24112786425612284,-0.24112786425612284,1.0000225119708432,8.511813526973707e-06
-0.2388390458167123,-0.2388390458167123,0.9999978020055691,8.527152057282901e-06
-0.2366094495584548,-0.2366094495584548,0.9999914657980922,8.515274256583959e-06
-0.23448079845838948,-0.23448079845838948,0.9999524162526894,8.517468957968815e-06
-0.23293394375941717,-0.23293394375941717,0.9999511813370251,8.5093092129019e-06
-0.23102072488109116,-0.23102072488109116,1.0000141972383616,8.516619922439489e-06
-0.2296871042737621,-0.2296871042737621,0.9999949981439709,8.507770388302896e-06
-0.2283537519222591,-0.2283537519222591,0.9999984960676993,8.536159029165151e-06
-0.22663187593934708,-0.22663187593934708,0.999937856256923,8.519231674705144e-06
-0.22462670121749398,-0.22462670121749398,1.0000418860257565,8.529975718565952e-06
-0.22239200758267544,-0.22239200758267544,0.9999970932365125,8.512413558489535e-06
-0.2203776453017781,-0.2203776453017781,0.9999960872545561,8.550782036839925e-06
-0.21878958162051276,-0.21878958162051276,0.9999716592645406,8.509629534143783e-06
-0.21748103413556236,-0.21748103413556236,0.9999840718302222,8.504164039180306e-06
-0.21582843321448308,-0.21582843321448308,0.9999797205729895,8.53546204793659e-06
-0.21422044125429238,-0.21422044125429238,1.000006048950587,8.509438061153201e-06
-0.2127186430276197,-0.2127186430276197,1.0000075071588015,8.533541727151366e-06
-0.2111769148868916,-0.2111769148868916,1.0000300639535322,8.523938250204553e-06
-0.209457973366807,-0.209457973366807,0.9999877064827775,8.507678152750267e-06
-0.2072736736277875,-0.2072736736277875,0.9999792679828999,8.51742252795531e-06
-0.20514466918466495,-0.20514466918466495,0.9999957558427359,8.531580608497119e-06
-0.2031485911749769,-0.2031485911749769,0.9999941190361261,8.51834755774768e-06
-0.20188353300254674,-0.20188353300254674,0.9999236874955724,8.506266681941591e-06
-0.20071368138305842,-0.20071368138305842,1.000015941173248,8.525222983123003e-06
-0.19902662194654114,-0.19902662194654114,0.9999834974275034,8.539077379898998e-06
-0.19755290025932482,-0.19755290025932482,0.9999908908610541,8.498795613259347e-06
-0.19626431356518878,-0.19626431356518878,0.9999821414853093,8.52363564399184e-06
-0.1948292698492878,-0.1948292698492878,0.9999844699340098,8.510277482386516e-06
-0.19260843573138117,-0.19260843573138117,0.999987042328091,8.521850239425528e-06
-0.19055590378193302,-0.19055590378193302,0.9999772737090582,8.506449382488325e-06
-0.18932830619014568,-0.18932830619014568,1.000000942692332,8.517036240838921e-06
-0.18771370675167418,-0.18771370675167418,0.999993398231166,8.531538474078469e-06
-0.1864520230148628,-0.1864520230148628,0.9999963298095853,8.511127290600263e-06
-0.18545187546042144,-0.18545187546042144,0.9999957946757508,8.5055438828133e-06
-0.1840298130242445,-0.1840298130242445,0.9999845139464035,8.53976101803225e-06
-0.18242492518329528,-0.18242492518329528,1.0000297785662624,8.516483312350656e-06
-0.18099965509027244,-0.18099965509027244,0.9999559562025281,8.536234363731792e-06
-0.17922188109878334,-0.17922188109878334,1.0000035501798847,8.519044241099256e-06
-0.17703321147855605,-0.17703321147855605,1.0000036380005106,8.511085498193354e-06
-0.1751466486377467,-0.1751466486377467,0.9999822986365065,8.520390536277067e-06
-0.17350927530860644,-0.17350927530860644,0.9999947147312056,8.513521224766708e-06
-0.1714016379053646,-0.1714016379053646,1.00003845659819,8.520451031996488e-06
-0.1700647283862054,-0.1700647283862054,1.000009909173548,8.515292977799792e-06
-0.16869033510010922,-0.16869033510010922,1.0000074343672196,8.517187050963953e-06
-0.16698382827235037,-0.16698382827235037,0.9999887247826102,8.524059529815087e-06
-0.16545197375671705,-0.16545197375671705,1.000000898765789,8.502137466995299e-06
-0.16363708967328422,-0.16363708967328422,1.000002847022624,8.538823988251905e-06
-0.16165373911499045,-0.16165373911499045,0.9999508461900659,8.518032491183977e-06
-0.15950816260519787,-0.15950816260519787,0.9999843353006603,8.517262482453467e-06
-0.15785797857461148,-0.15785797857461148,1.0000108469128879,8.51295463446381e-06
-0.15599896134008304,-0.15599896134008304,0.9999960283511037,8.518927303794656e-06
-0.1544138337194454,-0.1544138337194454,0.9999692046738753,8.520766306418028e-06
-0.15322717981616735,-0.15322717981616735,1.0000371429584458,8.50638994684159e-06
-0.15170922658144265,-0.15170922658144265,0.9999660640426891,8.530507831237966e-06
-0.15028516478996606,-0.15028516478996606,0.9999680401973879,8.506663572692396e-06
-0.14827162043220596,-0.14827162043220596,1.0000136982384173,8.524484041609927e-06
-0.1460458397399634,-0.1460458397399634,0.9999946507921527,8.515382620213447e-06
-0.14374498826364288,-0.14374498826364288,1.0000059542236863,8.51863257477579e-06
-0.1418408519042714,-0.1418408519042714,0.999994190208491,8.510220646877615e-06
-0.14022380447931937,-0.14022380447931937,0.999987081280534,8.519218269440439e-06
-0.1383268550824141,-0.1383268550824141,0.9999973251771281,8.518290488720062e-06
-0.1369156453765754,-0.1369156453765754,0.9999950742507918,8.50532146002536e-06
-0.1353530813496036,-0.1353530813496036,0.9999393351570296,8.546221149431842e-06
-0.13342256709875072,-0.13342256709875072,0.9999785033511948,8.514655756984124e-06
-0.13145106623778702,-0.13145106623778702,0.9999985840052746,8.524616835251983e-06
-0.1291916167952877,-0.1291916167952877,1.0000300439598881,8.507298151956854e-06
-0.12714885845489335,-0.12714885845489335,0.9999966019804208,8.553278198717292e-06
-0.12574807952260017,-0.12574807952260017,0.999953991911043,8.516970717786649e-06
-0.12462269873649348,-0.12462269873649348,0.9999976960548143,8.501874542106854e-06
-0.12306734686062555,-0.12306734686062555,0.9999603784187346,8.535327141384144e-06
-0.12150587986398023,-0.12150587986398023,1.0000127995645265,8.512685515120305e-06
-0.12014095360500505,-0.12014095360500505,0.9999627969214743,8.533416497103094e-06
-0.1188115789409494,-0.1188115789409494,1.0000292266682755,8.519912510582559e-06
-0.11709341980240424,-0.11709341980240424,1.0000355865318638,8.519429354635305e-06
-0.11490844396612374,-0.11490844396612374,0.9999990159603713,8.510748513187856e-06
-0.11277936296755797,-0.11277936296755797,1.0000313071748497,8.532676546702344e-06
-0.11078330527452636,-0.11078330527452636,0.9999960279695804,8.519177118411027e-06
-0.1095181903692719,-0.1095181903692719,0.9999928747604312,8.510384620176316e-06
-0.10834896752858185,-0.10834896752858185,0.999978839815558,8.520276826584276e-06
-0.10666102561735898,-0.10666102561735898,0.9999930324908963,8.53004416716038e-06
-0.10518810093344655,-0.10518810093344655,0.9999924749578517,8.509733797095311e-06
-0.10389923279508366,-0.10389923279508366,0.9999488664014213,8.522233710763853e-06
-0.10246414523062412,-0.10246414523062412,0.9999911659632904,8.523877492215049e-06
-0.10024398746172665,-0.10024398746172665,0.9999971984648044,8.53584564307868e-06
-0.09817954770842334,-0.09817954770842334,0.99999627650582,8.514601259209355e-06
-0.09664071223887731,-0.09664071223887731,0.9999808586615266,8.52554295972386e-06
-0.09476591673446819,-0.09476591673446819,0.9999993018180036,8.517032484175502e-06
-0.09371503485890571,-0.09371503485890571,1.0000109488208404,8.511766190105065e-06
-0.09233721845448599,-0.09233721845448599,0.999980119931072,8.523338573474415e-06
-0.09063955668752896,-0.09063955668752896,1.0000117373351365,8.53455061112311e-06
