time,time,flux,flux_err
-0.4996463124976647,-0.4996463124976647,0.9999954338870792,0.0008064608342547531
-0.49902845649303346,-0.49902845649303346,0.9987716122953346,0.0009728729630386164
-0.49847562425029535,-0.49847562425029535,0.9999687127303314,0.0007410445240319001
-0.49811697745540184,-0.49811697745540184,0.9997589659224417,0.0007905689877043594
-0.4975332846171113,-0.4975332846171113,1.0004560622575716,0.0006695087878106386
-0.49684223615472545,-0.49684223615472545,0.9994484272239837,0.0007259899138827351
-0.4961313735962449,-0.4961313735962449,0.9996011280962449,0.0006950234304192294
-0.49496929707979687,-0.49496929707979687,1.0005827573336439,0.0008979397701422479
-0.4941685966693058,-0.4941685966693058,1.0004183015426884,0.0008804761649452749
-0.49374609112433065,-0.49374609112433065,0.9987121651320134,0.0007111376497774803
-0.49304793393821456,-0.49304793393821456,1.0007758878571555,0.000751576054174746
-0.492457314777721,-0.492457314777721,0.9990861819269901,0.0009674240932438516
-0.49200583182941954,-0.49200583182941954,1.0003665818879721,0.0007758843106045923
-0.4916139375825878,-0.4916139375825878,1.0000376609613482,0.000773383968786484
-0.49111985306553835,-0.49111985306553835,0.9999066836851582,0.000669513038521674
-0.49033072439556236,-0.49033072439556236,1.0000644041714926,0.0007253196815054782
-0.4896620950734814,-0.4896620950734814,0.9991861223518269,0.0006947688133668379
-0.4885558498050159,-0.4885558498050159,0.9995884927113735,0.0008982718189891076
-0.4877551593194312,-0.4877551593194312,0.9998816891632618,0.0008797470856842007
-0.48733265167306855,-0.48733265167306855,1.0000738774759417,0.0007109761359929721
-0.4866345083681608,-0.4866345083681608,0.9998173926106834,0.0007514844214632716
-0.48604387618393047,-0.48604387618393047,0.999404955687778,0.0009668041897589139
-0.4855923912255548,-0.4855923912255548,1.0001042017926094,0.0007760582754190446
-0.48516375237427384,-0.48516375237427384,0.9996548772220933,0.0007551452789924557
-0.48459106428781523,-0.48459106428781523,1.0005557874625284,0.000673611468552135
-0.4837455461991794,-0.4837455461991794,1.000160186168197,0.0007280057653680392
-0.4831107367828736,-0.4831107367828736,1.0010340471900039,0.0007082712729825552
-0.4821424025214128,-0.4821424025214128,0.999648771565305,0.0008983811836347407
-0.4813417219804251,-0.4813417219804251,0.9977597189838564,0.000879272679148574
-0.4808094618107134,-0.4808094618107134,0.9997595120628038,0.000770448783744798
-0.480164546942251,-0.480164546942251,0.9983494044912359,0.0007998563759442539
-0.47948887835259485,-0.47948887835259485,1.0006117581893483,0.0008769299842933374
-0.47917895057971693,-0.47917895057971693,0.9998767708296947,0.000775273384550248
-0.47875030252571377,-0.47875030252571377,1.0001174654191696,0.0007546846440211189
-0.47817763054104034,-0.47817763054104034,0.998874355759515,0.0006729927105472878
-0.4773321070552356,-0.4773321070552356,0.9997677273071641,0.0007272133335781748
-0.4766973145133761,-0.4766973145133761,1.0004179623605995,0.0007082188683903835
-0.47572895525413517,-0.47572895525413517,1.0003456799050774,0.0008986193344658347
-0.474802283156032,-0.474802283156032,0.9995997883487414,0.0008414429247448132
-0.47401399120421955,-0.47401399120421955,1.0007175221956248,0.0008099104769847168
-0.47369477400211507,-0.47369477400211507,1.0006548774173982,0.0007983376297728327
-0.4730555448238647,-0.4730555448238647,0.9984930714798204,0.0008861431127741437
-0.4726453999786827,-0.4726453999786827,1.0001297942784824,0.0006858424033255629
-0.4721413916133315,-0.4721413916133315,1.0004316796681754,0.0007756776380190762
-0.47153876102838693,-0.47153876102838693,0.9998659065213225,0.0007056789707679295
-0.4706348257755053,-0.4706348257755053,1.0003609496272057,0.0007147074887118474
-0.4699486249981419,-0.4699486249981419,1.0001936715777724,0.0006741948038612364
-0.46903208378353156,-0.46903208378353156,1.0003027658707275,0.0009795483471146552
-0.4681500294937905,-0.4681500294937905,1.0004421791974365,0.0008661306020213262
-0.46733768660151326,-0.46733768660151326,0.9997489508419453,0.0007980196318150958
-0.4669575136652838,-0.4669575136652838,1.000018335719131,0.0009092745402830711
-0.4665484442624347,-0.4665484442624347,0.9995525447830496,0.0007227865441609854
-0.46613245351913973,-0.46613245351913973,0.9995396148185787,0.0006938260132358863
-0.46564270111789485,-0.46564270111789485,1.0006318067222764,0.0007727445605310397
-0.4649111717969845,-0.4649111717969845,0.999938032370992,0.0007248051072017551
-0.4641809920552987,-0.4641809920552987,0.9992742009186873,0.000689726317465679
-0.4635351893333791,-0.4635351893333791,0.9994751608838722,0.0006738822248119724
-0.4625060631813085,-0.4625060631813085,1.002339848198472,0.0010140437336322102
-0.46151867557832704,-0.46151867557832704,0.9993103163695858,0.000765318293918896
-0.46087146188224326,-0.46087146188224326,1.000072339710036,0.0008593224588698363
-0.4604563517388215,-0.4604563517388215,1.0014167993872136,0.0008956986855532024
-0.46006097526728806,-0.46006097526728806,1.0003014663577434,0.0006654056186984347
-0.4596362588858483,-0.4596362588858483,0.9996748136992573,0.000790429029904861
-0.45914313148377917,-0.45914313148377917,1.0005097499650386,0.0006631577141835112
-0.4582737350135176,-0.4582737350135176,1.0001431900721454,0.0007332423429093396
-0.45757597490437546,-0.45757597490437546,1.0005911675865502,0.0007721096302607545
-0.4568880384555086,-0.4568880384555086,1.0006350774016646,0.0007128480474718794
-0.4560192361893769,-0.4560192361893769,1.0004743306079547,0.0009713076483819619
-0.45510525505387706,-0.45510525505387706,1.0002349883987143,0.0007652441732556795
-0.45445802245531014,-0.45445802245531014,0.9995087544073314,0.0008593519875275981
-0.4540429168456285,-0.4540429168456285,1.0005507190803915,0.0008955018734118052
-0.4536475316039287,-0.4536475316039287,1.0001488402969931,0.0006658596033388809
-0.45322280583359315,-0.45322280583359315,0.9997075439435573,0.0007905320829087315
-0.45272969636093874,-0.45272969636093874,0.9999539235852595,0.0006633516694129746
-0.4518603022309435,-0.4518603022309435,1.0003882926813326,0.0007326371842421824
-0.4511625458606886,-0.4511625458606886,1.0001112282462556,0.000771821310507225
-0.4504745911923237,-0.4504745911923237,0.9996736371129596,0.0007132084632346601
-0.44960579805492673,-0.44960579805492673,0.9993465069800791,0.00097008565284935
-0.4486918345292906,-0.4486918345292906,1.0000609999106573,0.0007642329756205833
-0.4480445830370172,-0.4480445830370172,1.0001524495037615,0.0008586741625694908
-0.4476294819469331,-0.4476294819469331,0.9999174790018271,0.000895276754036144
-0.44723408790177926,-0.44723408790177926,0.9996618781503198,0.0006658122172953405
-0.4468093527898418,-0.4468093527898418,0.9998265999392876,0.0007905324011519263
-0.44631626127666096,-0.44631626127666096,0.9998370887940107,0.000663075089969814
-0.44544686942454065,-0.44544686942454065,0.9994295962312206,0.0007325261145969422
-0.4447423719954259,-0.4447423719954259,0.9993373835819813,0.000704251816660842
-0.4436617188946002,-0.4436617188946002,0.9991466488981375,0.0008967230969527129
-0.4429228923073879,-0.4429228923073879,0.9996701695697038,0.0008294090756145475
-0.44206032754923397,-0.44206032754923397,1.0005419508552258,0.0008030280171932606
-0.4416013359327735,-0.4416013359327735,0.9990573333711336,0.0008540931646840961
-0.4412160470699291,-0.4412160470699291,1.0001494898335208,0.0008949521245007639
-0.440820644166206,-0.440820644166206,1.0000866107921578,0.0006661560269163498
-0.4403958997619156,-0.4403958997619156,1.0008347507668798,0.0007900127583914214
-0.4399028261965213,-0.4399028261965213,0.9997629760272397,0.0006632101173618191
-0.43903343660958855,-0.43903343660958855,1.0002578306587142,0.0007321497177882926
-0.43817986540630044,-0.43817986540630044,1.0001796742943756,0.0006849808722186868
-0.4370902216943705,-0.4370902216943705,1.0002742477279822,0.0008952059384731486
-0.4364061223206136,-0.4364061223206136,0.9992064095250306,0.0008449027565130961
-0.43545218765002575,-0.43545218765002575,1.000525636016286,0.0007501513740930467
-0.4351003432205289,-0.4351003432205289,1.0007465945243699,0.000858728783765521
-0.43460403866292835,-0.43460403866292835,0.9999879983611631,0.0008705683445080217
-0.43426596147305646,-0.43426596147305646,1.00000901089378,0.0007116634308591095
-0.43385615398551636,-0.43385615398551636,1.001132447925341,0.0007565847366360722
-0.4333831730336442,-0.4333831730336442,0.9995393867367481,0.0006742740108448367
-0.4326023748449188,-0.4326023748449188,1.0002038205364623,0.0007908062157385477
-0.43176642406606336,-0.43176642406606336,0.9995546330314419,0.0006851324846289023
-0.43067677391745746,-0.43067677391745746,0.9997208748412969,0.0008942167895293204
-0.42990827635844653,-0.42990827635844653,1.0010402733538117,0.00083592689462758
-0.4290205717351455,-0.4290205717351455,1.0002381068314612,0.0007590840734722781
-0.4286868976183996,-0.4286868976183996,0.9999348236747222,0.0008584224217676251
-0.4281905983792512,-0.4281905983792512,1.0008587373042936,0.0008698971658762329
-0.4278525270445243,-0.4278525270445243,1.000567083922947,0.0007114075139016109
-0.4274427042543266,-0.4274427042543266,0.9995698166178475,0.0007565623397349434
-0.426969739147944,-0.426969739147944,0.9995717720761113,0.0006744864780526415
-0.42602564172566415,-0.42602564172566415,1.0001069299242187,0.0007270251217590049
-0.42515303462109844,-0.42515303462109844,0.9998491455667283,0.0006810928654650174
-0.4241134990482351,-0.4241134990482351,1.0015923554302155,0.00094834480503966
-0.4234948468428229,-0.4234948468428229,1.0001199148225501,0.0008351603663139369
-0.4226071539585973,-0.4226071539585973,0.9988163494226816,0.0007583309765792762
-0.42223566187899453,-0.42223566187899453,1.0003182128899004,0.0009102546583189383
-0.4216851088622661,-0.4216851088622661,0.9998816323648023,0.0008126753510257363
-0.4212959638931352,-0.4212959638931352,0.9997090619858838,0.0006912276778644512
-0.4209238717064636,-0.4209238717064636,0.999895762047036,0.0007654540923798703
-0.4204470291067537,-0.4204470291067537,1.0006273417130112,0.0006675750198371978
-0.41942649180778063,-0.41942649180778063,0.9996382794202722,0.0007325227738656212
-0.4186433161098648,-0.4186433161098648,0.9998663082558871,0.000694384609314149
-0.41770005622393,-0.41770005622393,0.9995837250380113,0.0009471295195931335
-0.417081417345571,-0.417081417345571,0.9989125679667806,0.0008341480827322026
-0.4161937361925993,-0.4161937361925993,1.0006603188507366,0.000758389539403044
-0.41582222257047763,-0.41582222257047763,0.9995651466573573,0.0009100215127551585
-0.41527166230007423,-0.41527166230007423,1.0002034213783642,0.0008129036287391894
-0.41486928694330344,-0.41486928694330344,0.9996857234889927,0.0006903231564287233
-0.414420439892092,-0.414420439892092,1.0005173419731128,0.0007765858730348196
-0.4139829009218374,-0.4139829009218374,0.9992824326518839,0.0006541545926396998
-0.4130130610129982,-0.4130130610129982,0.9998474686432578,0.000732291185659612
-0.41207108547573623,-0.41207108547573623,1.0009246469454596,0.0007275210076558486
-0.4111864013495051,-0.4111864013495051,0.9993490535202444,0.0009294880207653584
-0.4106191312444025,-0.4106191312444025,1.0008243109689468,0.0008236305782918799
-0.4097803184376062,-0.4097803184376062,1.0002374083171301,0.0007579746694196061
-0.4094087832596415,-0.4094087832596415,0.9993018353255353,0.0009096282438190029
-0.40885821570659575,-0.40885821570659575,1.0007600665344727,0.0008119663997577699
-0.4083544251990133,-0.4083544251990133,0.9992380164397441,0.0007644428684989973
-0.4078356510527101,-0.4078356510527101,1.0001721702993722,0.0006630484855641826
-0.4072364462474525,-0.4072364462474525,1.0000368622703788,0.0007072295084040315
-0.4065005195633148,-0.4065005195633148,1.0008418726361248,0.0007110446681287875
-0.4053935502176046,-0.4053935502176046,1.0002854396847374,0.0007190293914611818
-0.40476709948479767,-0.40476709948479767,1.0010408609405916,0.0009408006712923389
-0.4041543943198576,-0.4041543943198576,0.999741537476351,0.0008231274951288512
-0.40336690068675124,-0.40336690068675124,0.9991277685590377,0.000756921859185834
-0.4029953439488054,-0.4029953439488054,0.9989298083887055,0.0009099209779571923
-0.4023673172196595,-0.4023673172196595,1.0000150360843574,0.0007310558634516696
-0.40171357495082705,-0.40171357495082705,0.9995464753539511,0.0006538507695518414
-0.4012642288769257,-0.4012642288769257,1.0010999566929109,0.0006639780308241894
-0.4006211398746927,-0.4006211398746927,1.0008089196639296,0.0008211964365307135
-0.39992988667108875,-0.39992988667108875,1.0002303213050396,0.0006922012699861588
-0.3987675880981897,-0.3987675880981897,0.9991170302459199,0.0008890677195737987
-0.39815320852812874,-0.39815320852812874,1.0001007805985327,0.0009263397175333872
-0.39744413090870695,-0.39744413090870695,1.0005117714947995,0.0007201847412536903
-0.39673706765374844,-0.39673706765374844,1.0001472153040414,0.0008556577840473795
-0.3962750820061046,-0.3962750820061046,0.999629036955114,0.0008129309541419884
-0.3957756007036551,-0.3957756007036551,0.9997244452583649,0.000729423387914347
-0.39519368864243914,-0.39519368864243914,1.0004190502199277,0.0006671621132512556
-0.39474256944654373,-0.39474256944654373,0.9995318690441335,0.0006545879586844186
-0.39403100000708946,-0.39403100000708946,0.9985963116411967,0.0008253875280524868
-0.3933704343949557,-0.3933704343949557,0.999987352848553,0.0007175201474896242
-0.3923541408523761,-0.3923541408523761,1.0007626313648248,0.0008877442793279152
-0.3917154836460668,-0.3917154836460668,0.9991783434503642,0.000855991632616708
-0.3908151698243728,-0.3908151698243728,0.9989746482566966,0.0007224475938960898
-0.3902850588750425,-0.3902850588750425,1.000459369223155,0.0008518583189486851
-0.3897208319899619,-0.3897208319899619,0.9985174926992926,0.000820738985306721
-0.38927548601845957,-0.38927548601845957,1.0000163113419789,0.0007114285051563309
-0.38868163411157186,-0.38868163411157186,1.0006741057209712,0.000672278227876627
-0.38815763716979745,-0.38815763716979745,1.0008063182358995,0.0007596922528154664
-0.38746638953825824,-0.38746638953825824,0.9999174973363425,0.0007303754795608788
-0.3867727060570815,-0.3867727060570815,1.000073725777606,0.0007121614705748195
-0.3857826387131354,-0.3857826387131354,0.9998507430028815,0.0008862170438194677
-0.3851945862717002,-0.3851945862717002,1.0002077485828897,0.00088312059138572
-0.384204480956987,-0.384204480956987,1.0000938022581054,0.0007055186093398046
-0.38379277845647264,-0.38379277845647264,1.000111560581049,0.0008568203749824372
-0.38320673133580385,-0.38320673133580385,1.0007052752005539,0.0008035120923313039
-0.38276249876880686,-0.38276249876880686,0.9998389833447208,0.0007166614130789625
-0.38218191123937684,-0.38218191123937684,0.9993440335738455,0.0006632594214328293
-0.3817340865377446,-0.3817340865377446,1.000055286355725,0.0008443864027772524
-0.38094590674572826,-0.38094590674572826,1.0003236866778464,0.0007307143832727632
-0.38026109059178453,-0.38026109059178453,0.999294154334349,0.0007114502146933234
-0.3793691907016637,-0.3793691907016637,1.0003957407908364,0.0008852052793021774
-0.3787811553625488,-0.3787811553625488,0.9997295621083039,0.0008823333689009935
-0.3777910603009332,-0.3777910603009332,0.9998209657945848,0.0007050810104020578
-0.37732802561304196,-0.37732802561304196,1.0008391617966712,0.0008572165866646426
-0.3767932801322331,-0.3767932801322331,1.0002073150761606,0.0008031759872798666
-0.37634906309217514,-0.37634906309217514,1.000373883250043,0.0007163610032275708
-0.3757684763312682,-0.3757684763312682,0.9996536990466938,0.0006639980143785986
-0.3751246665582585,-0.3751246665582585,1.0001708309483155,0.0008000565888982307
-0.37443336580358844,-0.37443336580358844,0.9991781933560526,0.0007102228543324751
-0.37383028487902265,-0.37383028487902265,0.9996677784020616,0.0007919932510126699
-0.37295574266895526,-0.37295574266895526,1.0002589146913359,0.0008837304208349411
-0.3721874110810404,-0.3721874110810404,1.0008025619808278,0.0008308008514437151
-0.3713527231419448,-0.3713527231419448,1.0009559889999602,0.0007641262091508297
-0.37084383596161385,-0.37084383596161385,1.0002941491977644,0.0009474052990315754
-0.37020518521198936,-0.37020518521198936,1.0001718270406914,0.0007317044806579526
-0.3697192475243355,-0.3697192475243355,1.0000117722373578,0.0006783762783362571
-0.3693550414300262,-0.3693550414300262,0.9999390371287111,0.0006636364583017091
-0.36871122475672563,-0.36871122475672563,0.999818453671072,0.0007995187974164295
-0.36801993498725094,-0.36801993498725094,1.0000858451839458,0.0007102518255785719
-0.3675021789915718,-0.3675021789915718,1.0006063184379468,0.0008729315152341972
-0.3667003519012269,-0.3667003519012269,0.9990287994285498,0.000884117470993394
-0.3659616847070993,-0.3659616847070993,0.9995741785275118,0.0008217853478113149
-0.36500501101813826,-0.36500501101813826,0.9999416267098571,0.0007563564071448348
-0.3645528374755031,-0.3645528374755031,0.9983079311581188,0.000914589577056506
-0.36388664105306817,-0.36388664105306817,0.9992021063588625,0.000731245855167566
-0.3634238583667866,-0.3634238583667866,1.000265102912993,0.0007162053301825045
-0.3629715432629837,-0.3629715432629837,0.9990785682292479,0.0006876539230062956
-0.3625038573767597,-0.3625038573767597,0.9997563295135843,0.0007583089951454545
-0.3617056139358283,-0.3617056139358283,0.9990505560183488,0.0007295260692556224
-0.3611527979153834,-0.3611527979153834,1.0004549755741023,0.0008153859506247014
-0.36028690467564956,-0.36028690467564956,1.0005109144111306,0.0008832189050836526
-0.3595482505674227,-0.3595482505674227,0.9999115069899356,0.0008215452704409462
-0.3585915900205691,-0.3585915900205691,1.0006377395151014,0.0007560484768056759
-0.3581393932342962,-0.3581393932342962,1.0001908011398384,0.000914588714550083
-0.35747319491897545,-0.35747319491897545,1.0002052847431582,0.0007313044422436179
-0.3570104230416746,-0.3570104230416746,1.0002619980166538,0.0007153613880941511
-0.3565581049814227,-0.3565581049814227,1.0003054217109075,0.0006878594564034866
-0.3561481430108415,-0.3561481430108415,0.9997761085255096,0.0007447328689533101
-0.35540588984522403,-0.35540588984522403,0.9999912551601742,0.0008202841685156601
-0.3548375351647337,-0.3548375351647337,1.0006006488533374,0.0008167656127010432
-0.35406044718956764,-0.35406044718956764,1.00148713668488,0.0008753470739666973
-0.35313481639163913,-0.35313481639163913,1.001458871950025,0.0008211265566957258
-0.35237185459996,-0.35237185459996,0.9993650747079593,0.0007609277107525527
-0.3518429917318372,-0.3518429917318372,1.0002936817872619,0.0008547018729440466
-0.3511394750244108,-0.3511394750244108,1.000920872955001,0.0008037385391131621
-0.3506953205422178,-0.3506953205422178,1.0003895127046516,0.0007151228679759512
-0.3502142821783309,-0.3502142821783309,1.0004508656075228,0.0006918011352992616
-0.34984846317656776,-0.34984846317656776,1.0000017874998473,0.0006546242177529604
-0.34899614986065897,-0.34899614986065897,0.999231559958551,0.0008927458422956315
-0.3485240938254265,-0.3485240938254265,0.9995539775553871,0.0008194895079511993
-0.34785943696347205,-0.34785943696347205,0.9992918689356827,0.0007079293973518739
-0.3468586986208265,-0.3468586986208265,0.9994196846449706,0.0009469770181775196
-0.3459542411268558,-0.3459542411268558,0.9993566416875611,0.0007735998429863596
-0.345460601562354,-0.345460601562354,1.0001136406990483,0.0007974779998047946
-0.34487073097689064,-0.34487073097689064,0.9990833066607901,0.0008688789696180632
-0.3443814599924281,-0.3443814599924281,1.000454973507082,0.0007138277225169373
-0.34387737727956846,-0.34387737727956846,0.9998994438279455,0.00068795188658259
-0.343543264009395,-0.343543264009395,0.9994564938080147,0.0006641840190978637
-0.34270433174929166,-0.34270433174929166,0.9995146129096856,0.0008139362501152315
-0.34199830443180873,-0.34199830443180873,1.0007444590300192,0.0007993802005834454
