time,time,flux,flux_err
-0.4998859973432748,-0.4998859973432748,0.9999946496778834,4.7186262098437516e-05
-0.49960880906898336,-0.49960880906898336,1.0000350557958537,4.701543900607233e-05
-0.49944941355715855,-0.49944941355715855,0.9998232948617111,4.681635996321729e-05
-0.49914952602921403,-0.49914952602921403,0.999897081071878,4.65450314674719e-05
-0.49892518002016006,-0.49892518002016006,1.0000763919941513,4.2869829911992724e-05
-0.4987838231274509,-0.4987838231274509,1.0000332850007527,4.300726605766719e-05
-0.49846360576484583,-0.49846360576484583,0.9999960954562361,4.248723979115891e-05
-0.4982589445877238,-0.4982589445877238,1.000041705228591,4.319726542412689e-05
-0.4981019536644453,-0.4981019536644453,0.9999595563930279,4.285600498160493e-05
-0.4979832475990406,-0.4979832475990406,1.0000591659206037,4.2610246492734644e-05
-0.49779089825606204,-0.49779089825606204,1.0000604738604315,4.312487607133305e-05
-0.4976256539826863,-0.4976256539826863,1.0000578007402492,4.292561264981014e-05
-0.4973894500362803,-0.4973894500362803,1.000021184249571,4.280824120371574e-05
-0.49727332166658017,-0.49727332166658017,0.9999639599499826,4.3126808862836634e-05
-0.49718893627577926,-0.49718893627577926,1.0000052093379626,4.306795515095258e-05
-0.49704467428819044,-0.49704467428819044,1.0000338031383793,4.292133768394857e-05
-0.4968222483425052,-0.4968222483425052,1.000007658296948,4.263663868072155e-05
-0.4966169350707787,-0.4966169350707787,1.0000360845919105,4.344997583145866e-05
-0.49654978583275805,-0.49654978583275805,1.000002739730571,4.279890175674021e-05
-0.4963363493399811,-0.4963363493399811,1.0001120055096284,4.259935494449817e-05
-0.496254819825117,-0.496254819825117,0.9999290633916111,4.296258997176496e-05
-0.4961019784517703,-0.4961019784517703,0.9999029982129475,4.3030480060029956e-05
-0.4959719742939342,-0.4959719742939342,0.9999868293127617,4.3076121924835495e-05
-0.4957801196404034,-0.4957801196404034,1.000031250122925,4.314291611006318e-05
-0.49561177067807877,-0.49561177067807877,1.0000116953801736,4.2976456583134226e-05
-0.4954130700789392,-0.4954130700789392,1.0000024809551038,4.251626204385069e-05
-0.4951738591233152,-0.4951738591233152,1.000090080782829,4.2773514277513985e-05
-0.49496816242171915,-0.49496816242171915,1.0000659135583165,4.325028432710052e-05
-0.4946689560150844,-0.4946689560150844,0.9999661569989625,4.251640802055343e-05
-0.4943607943088864,-0.4943607943088864,1.0000722927804913,4.2636114141913264e-05
-0.494223675437388,-0.494223675437388,0.9999605820987536,4.347925570085635e-05
-0.49407777269370856,-0.49407777269370856,0.9999821675165933,4.264341865329834e-05
-0.49390421878779306,-0.49390421878779306,0.9999968369007834,4.266730616279923e-05
-0.4937091253217659,-0.4937091253217659,1.000015204033696,4.3136927996564096e-05
-0.493471749292803,-0.493471749292803,1.000001743799939,4.302075690559868e-05
-0.49332103548804296,-0.49332103548804296,1.00000140947674,4.291702076455986e-05
-0.4931897318005213,-0.4931897318005213,0.9999802533064546,4.2773208683040444e-05
-0.4930711323046125,-0.4930711323046125,0.9999701264523978,4.303696718665756e-05
-0.49289925067714646,-0.49289925067714646,0.9999823719686975,4.2711329419242e-05
-0.4927380757784704,-0.4927380757784704,1.0000562707698686,4.330860874418271e-05
-0.4926115394962835,-0.4926115394962835,0.9999633251234004,4.2793947343203526e-05
-0.4923756559190224,-0.4923756559190224,1.0000582334649633,4.3085928732020825e-05
-0.4922955493995687,-0.4922955493995687,1.0000433833600233,4.267350798444202e-05
-0.49214994580397614,-0.49214994580397614,1.0000193493717853,4.309234593997738e-05
-0.49197923279280076,-0.49197923279280076,0.9999756509547337,4.255330464279569e-05
-0.4918655060333549,-0.4918655060333549,1.0000570400134698,4.3150695910943135e-05
-0.4917233283646055,-0.4917233283646055,0.9999453962331579,4.262382956265398e-05
-0.49149885428050766,-0.49149885428050766,0.9999436367682499,4.297471322289679e-05
-0.491342961283226,-0.491342961283226,1.0000532925340768,4.22117846862331e-05
-0.4911914847412845,-0.4911914847412845,1.0000657828988977,4.32909890300319e-05
-0.4909759409420076,-0.4909759409420076,1.0000408932698504,4.313255705615949e-05
-0.4908463334635599,-0.4908463334635599,0.9999539967823246,4.261431805635192e-05
-0.49057559415959984,-0.49057559415959984,0.999996843504315,4.316485367316861e-05
-0.4903771448880434,-0.4903771448880434,0.9999754427987495,4.2866240662811334e-05
-0.4901998435772839,-0.4901998435772839,1.000062915530816,4.3120265151581044e-05
-0.49009869401343165,-0.49009869401343165,1.0000695817159655,4.2486231700109036e-05
-0.4899757839913946,-0.4899757839913946,0.9999338212809861,4.260676115081286e-05
-0.48979228282551046,-0.48979228282551046,1.0000194897055934,4.29166988804955e-05
-0.48943830534408334,-0.48943830534408334,0.9999773402221906,4.328272072332014e-05
-0.4892829845921369,-0.4892829845921369,0.9999765355799923,4.293607472092133e-05
-0.4891992133561871,-0.4891992133561871,0.9999745018657527,4.268714982196518e-05
-0.48909448783815607,-0.48909448783815607,0.9999656887380803,4.3180611639348805e-05
-0.48892380249599227,-0.48892380249599227,0.9999317157773447,4.2854061564814126e-05
-0.4888497944441042,-0.4888497944441042,0.9999570589575789,4.2808195068365704e-05
-0.4886451512327767,-0.4886451512327767,0.9999891139277922,4.302781712302714e-05
-0.48841509169578784,-0.48841509169578784,0.9999822236584937,4.276479257033198e-05
-0.48831398329057263,-0.48831398329057263,0.999969661126357,4.298627778064225e-05
-0.48819722198677484,-0.48819722198677484,0.9999967812390814,4.253810866013896e-05
-0.48806226460437757,-0.48806226460437757,0.9998890511066728,4.321162312309016e-05
-0.48787471478863154,-0.48787471478863154,0.9999757852325295,4.2792278854587865e-05
-0.48774499388964615,-0.48774499388964615,1.0000025084159594,4.315712827564654e-05
-0.4875756455090595,-0.4875756455090595,0.9999562637271904,4.323666681842954e-05
-0.48737733099842445,-0.48737733099842445,0.9999851777779156,4.241813595738332e-05
-0.48723427035147326,-0.48723427035147326,1.0000414984126031,4.3037841798801545e-05
-0.48698839228600266,-0.48698839228600266,1.000052388740903,4.286882391026454e-05
-0.48675986214220757,-0.48675986214220757,1.0000009120780775,4.273840315117127e-05
-0.4865573036426213,-0.4865573036426213,0.9999768231680346,4.290402797662148e-05
-0.48634645737183746,-0.48634645737183746,1.0000696160428901,4.263493968769548e-05
-0.4862482575888862,-0.4862482575888862,0.9999670390128161,4.3466651815878074e-05
-0.48612985509098505,-0.48612985509098505,0.9999301397565377,4.246694658889788e-05
-0.48604069865396016,-0.48604069865396016,0.9999473261635664,4.257705531285532e-05
-0.4859131626653834,-0.4859131626653834,1.00002497583471,4.278884148894914e-05
-0.4855922618968179,-0.4855922618968179,1.000058605597021,4.288583572041247e-05
-0.48539742886350723,-0.48539742886350723,1.000070489710417,4.306695477352368e-05
-0.48536091107525864,-0.48536091107525864,0.9999198748128635,4.2609869214076365e-05
-0.4852083712423337,-0.4852083712423337,0.9999939802904529,4.295925751207135e-05
-0.4851175960051478,-0.4851175960051478,0.9999184176575782,4.311345895197871e-05
-0.48498998270370064,-0.48498998270370064,0.9999006262518945,4.296366960366483e-05
-0.4848017200070899,-0.4848017200070899,1.0000312004764615,4.278875030801083e-05
-0.484582145618333,-0.484582145618333,0.9998986465005266,4.310615999264259e-05
-0.4844762745560729,-0.4844762745560729,0.9999988107266914,4.2931415824702605e-05
-0.4843199548704433,-0.4843199548704433,1.000034494455397,4.280051194879919e-05
-0.4841500926515437,-0.4841500926515437,0.9999959375616999,4.321657006871024e-05
-0.4838881120653241,-0.4838881120653241,0.9999401448758519,4.314527060124811e-05
-0.4837971683751675,-0.4837971683751675,1.000009372775147,4.307386938889482e-05
-0.483553987184132,-0.483553987184132,0.9999415020791209,4.292911264937577e-05
-0.48339455443638146,-0.48339455443638146,1.000064501278845,4.240172045351147e-05
-0.48318652572634163,-0.48318652572634163,1.0000078188637715,4.2662202892431255e-05
-0.4830011329759145,-0.4830011329759145,0.9999513758815194,4.288514694347229e-05
-0.4828292438251083,-0.4828292438251083,0.9999721962693856,4.308508913731136e-05
-0.48255766456859417,-0.48255766456859417,0.9998863679466041,4.3143379783963504e-05
-0.48239819280279334,-0.48239819280279334,0.9999934978477543,4.301953368610004e-05
-0.48228917836240726,-0.48228917836240726,1.000002028770092,4.2870078820635844e-05
-0.48221391609695274,-0.48221391609695274,1.0000240395105808,4.267675242629e-05
-0.48213355072366537,-0.48213355072366537,0.9999681220273068,4.274871338278941e-05
-0.4820258920895867,-0.4820258920895867,0.9999493199456628,4.287512333451942e-05
-0.48176390623120824,-0.48176390623120824,0.9999579457558866,4.280426054319981e-05
-0.48153296165692155,-0.48153296165692155,1.0000159831420214,4.2958090993778414e-05
-0.48134766961447895,-0.48134766961447895,1.0000816408756867,4.3049426283822864e-05
-0.4812391018262133,-0.4812391018262133,1.0000637659665848,4.3018526847946035e-05
-0.4811609906479134,-0.4811609906479134,1.0000506472917263,4.263475593240433e-05
-0.48102767806267366,-0.48102767806267366,0.9999856881817761,4.2479134427692594e-05
-0.4807433358655544,-0.4807433358655544,0.9999789355679646,4.2832907722683e-05
-0.48053801917267264,-0.48053801917267264,0.9999444462245247,4.331844195695871e-05
-0.48043567519489444,-0.48043567519489444,1.0000169127061307,4.335383352141878e-05
-0.4802207815650036,-0.4802207815650036,0.9999622751060333,4.31401267310634e-05
-0.4800263957120478,-0.4800263957120478,0.9999719358449383,4.310975875264254e-05
-0.4799100075266324,-0.4799100075266324,1.000024775219517,4.3089596797937045e-05
-0.4797462322821957,-0.4797462322821957,0.9999773679528664,4.315151431402737e-05
-0.4795756311432342,-0.4795756311432342,0.9999467408491967,4.2869074005231955e-05
-0.4794312985148281,-0.4794312985148281,0.9999429361193031,4.2837679343225266e-05
-0.4791946414959966,-0.4791946414959966,1.0001084876820105,4.27725905706316e-05
-0.4790277716325363,-0.4790277716325363,1.0000241228390228,4.288948507290124e-05
-0.47891015625646105,-0.47891015625646105,0.9999890226713951,4.2846165229806145e-05
-0.4787448409348144,-0.4787448409348144,1.000071370305178,4.2897121174948716e-05
-0.4786239309119992,-0.4786239309119992,0.9999580184863222,4.304401372587716e-05
-0.47840119384782154,-0.47840119384782154,0.9999692617759595,4.3022195985041614e-05
-0.4782954282942228,-0.4782954282942228,0.9999323410172668,4.280551796491558e-05
-0.4782204799630563,-0.4782204799630563,1.0000564013770525,4.270104621085195e-05
-0.47812428796460155,-0.47812428796460155,0.9999357719892672,4.2435029363203834e-05
-0.47782521797780647,-0.47782521797780647,1.0000478179811465,4.27298284189633e-05
-0.4777165619903826,-0.4777165619903826,0.9999648958209963,4.2900855436014694e-05
-0.47755720798741097,-0.47755720798741097,0.9998835276478129,4.302058706609669e-05
-0.4774408004144789,-0.4774408004144789,1.000027587890665,4.304515379963487e-05
-0.4773183860539575,-0.4773183860539575,1.0000142205830094,4.3220721418409185e-05
-0.4771999897158821,-0.4771999897158821,0.9998845531503612,4.243256824084206e-05
-0.4769956698655733,-0.4769956698655733,1.00006262950205,4.279319555531354e-05
-0.4767355767064146,-0.4767355767064146,1.000096570817761,4.278250598654041e-05
-0.4765505443298025,-0.4765505443298025,0.9999541881777801,4.280449050245715e-05
-0.4763239201711258,-0.4763239201711258,0.999982287685218,4.2912920715331205e-05
-0.476134340945282,-0.476134340945282,0.9999649040406515,4.3340360378616646e-05
-0.4759499210078502,-0.4759499210078502,0.9999877466140366,4.341492241203069e-05
-0.47577959821064725,-0.47577959821064725,0.9999757519565129,4.295085988599042e-05
-0.4756201038631843,-0.4756201038631843,1.0000240563760787,4.2849991557066946e-05
-0.4754342411644757,-0.4754342411644757,0.9999575860728125,4.2781737562559695e-05
-0.4752135831527994,-0.4752135831527994,0.9999854572574748,4.287968268228224e-05
-0.4750929667527089,-0.4750929667527089,0.9999878444937431,4.2989502040931306e-05
-0.47497070988756607,-0.47497070988756607,0.9999772032013299,4.274306783679489e-05
-0.47480577893729786,-0.47480577893729786,0.9999439981573154,4.316037443833697e-05
-0.4746492604725063,-0.4746492604725063,0.9999408118827242,4.281599045565433e-05
-0.4744114594490384,-0.4744114594490384,0.999998578342019,4.2764162918852555e-05
-0.47428840950015,-0.47428840950015,1.0000718269183335,4.2588370087347086e-05
-0.47404535710957135,-0.47404535710957135,1.0000678047042193,4.249640289887099e-05
-0.4739067048591096,-0.4739067048591096,0.9999075631929445,4.291128908458015e-05
-0.47375304875749863,-0.47375304875749863,0.9999984940640969,4.318543349190371e-05
-0.4736142119159922,-0.4736142119159922,1.0000382518886495,4.3109476585380735e-05
-0.4735170904867118,-0.4735170904867118,1.0001684634928352,4.286737373398895e-05
-0.47340613386331826,-0.47340613386331826,1.0000276533550676,4.300008279835373e-05
-0.4732592830376234,-0.4732592830376234,0.9999977185830182,4.2875833918756794e-05
-0.4731628508248832,-0.4731628508248832,0.9999752459318957,4.2605364108220065e-05
-0.4729688174687908,-0.4729688174687908,1.000116791642472,4.276321550790038e-05
-0.47277828228689034,-0.47277828228689034,1.0000834706513875,4.2547252697457764e-05
-0.47255896655115065,-0.47255896655115065,0.999975035979243,4.2962401305464106e-05
-0.4723702793082339,-0.4723702793082339,0.9999838102348771,4.262995472257363e-05
-0.4722301802641596,-0.4722301802641596,1.0000575790117405,4.297404377723504e-05
-0.47203704121347984,-0.47203704121347984,1.000046235749369,4.3255599728842764e-05
-0.47188085597445023,-0.47188085597445023,0.9999451610574445,4.3180802379699104e-05
-0.4717761690510088,-0.4717761690510088,1.0000050087665868,4.2823124166792286e-05
-0.471696496020013,-0.471696496020013,0.9999837644992791,4.2770915672071606e-05
-0.47153891225461847,-0.47153891225461847,0.9999230526867813,4.304204083712818e-05
-0.47121702357544565,-0.47121702357544565,0.9999946393821464,4.2885411894388775e-05
-0.4710165153621347,-0.4710165153621347,1.0000281887195939,4.293116803404433e-05
-0.4709327325108461,-0.4709327325108461,0.9999738202193568,4.294710119548063e-05
-0.47081795200210763,-0.47081795200210763,1.0001050139196583,4.2790423853231235e-05
-0.4706157626933418,-0.4706157626933418,0.9999915171249343,4.282562485047374e-05
-0.4703722196558374,-0.4703722196558374,0.9998887734227555,4.2851590598251884e-05
-0.4701794813372544,-0.4701794813372544,1.0000421179542598,4.2701148031613385e-05
-0.4700611419335473,-0.4700611419335473,0.9999916508943756,4.2881944568509656e-05
-0.4699020779589773,-0.4699020779589773,0.9998979466528075,4.31625696683243e-05
-0.469765653750801,-0.469765653750801,0.9999161882865677,4.3317488046884026e-05
-0.4696113774683909,-0.4696113774683909,0.9999747807223608,4.269115442392515e-05
-0.4694675862687291,-0.4694675862687291,1.0000407216740972,4.282064936920588e-05
-0.4693201809612219,-0.4693201809612219,0.9999680437542858,4.2602461432492e-05
-0.4691658378505963,-0.4691658378505963,0.9999658324016133,4.292327789524232e-05
-0.46893272706947753,-0.46893272706947753,1.0000041798003891,4.256001064788866e-05
-0.46881023713067405,-0.46881023713067405,1.0000375275516438,4.268012212192854e-05
-0.4685361038311385,-0.4685361038311385,0.9999645336739558,4.286865221003317e-05
-0.46837759163609005,-0.46837759163609005,0.9999957735414821,4.297752540620527e-05
-0.46808436439896467,-0.46808436439896467,0.9999830001287359,4.333642238905884e-05
-0.46791228235670135,-0.46791228235670135,1.000026901497164,4.311297380315739e-05
-0.4678354264891823,-0.4678354264891823,0.999987711292774,4.249110106641747e-05
-0.4677957453415729,-0.4677957453415729,0.9999511805257333,4.3008821597043456e-05
-0.4676545882146456,-0.4676545882146456,0.9999619516581614,4.2977325721701833e-05
-0.4673946505441563,-0.4673946505441563,1.0000028751396535,4.2852078382770397e-05
-0.46712840231630254,-0.46712840231630254,1.0000277534776802,4.3274637931716335e-05
-0.4670620724238688,-0.4670620724238688,1.0000336125470717,4.275777891239937e-05
-0.46694066158670466,-0.46694066158670466,0.9999809366986396,4.269815343032222e-05
-0.4666788749891566,-0.4666788749891566,0.9999812382460936,4.300793813179716e-05
-0.46640327801433157,-0.46640327801433157,1.0000691945912874,4.2900522926453305e-05
-0.46627480978058883,-0.46627480978058883,0.9999466493872685,4.2687389275310804e-05
-0.46617467746546026,-0.46617467746546026,0.999941939942038,4.266173251904268e-05
-0.4660201000951929,-0.4660201000951929,0.9999567127334206,4.309884656431828e-05
-0.46585068692365894,-0.46585068692365894,1.0000477014858302,4.305409452723445e-05
-0.46567423342494296,-0.46567423342494296,0.9999645042907691,4.2634595805607676e-05
-0.465525730488298,-0.465525730488298,0.999985784746349,4.282980669299097e-05
-0.4654414800213999,-0.4654414800213999,0.9999465256068568,4.272261144601119e-05
-0.4652606211355305,-0.4652606211355305,1.0000645550208471,4.26596610369506e-05
-0.4650976307297242,-0.4650976307297242,0.9999622639331147,4.28081999221649e-05
-0.46494343524682336,-0.46494343524682336,0.9999464115049053,4.239656581536146e-05
-0.46473925295867957,-0.46473925295867957,1.0000638352576114,4.274003483839926e-05
-0.46453704594023293,-0.46453704594023293,1.0000313266879002,4.2991599438837905e-05
-0.4642843979760073,-0.4642843979760073,0.9999166552840665,4.262233903784943e-05
-0.4640994284694898,-0.4640994284694898,1.000050700868109,4.340551638843592e-05
-0.4639728593698237,-0.4639728593698237,0.9999615999573319,4.326989649697378e-05
-0.46383787423983447,-0.46383787423983447,0.9999785129085108,4.287688334578936e-05
-0.46372456455865174,-0.46372456455865174,1.000125579549413,4.3209732409484256e-05
-0.46338484886509834,-0.46338484886509834,0.9999416941218133,4.3044283130928075e-05
-0.463234561237914,-0.463234561237914,1.0000208613669266,4.2890040164693e-05
-0.46314735723426564,-0.46314735723426564,1.0000144026956068,4.2787577545976554e-05
-0.4630199873136007,-0.4630199873136007,1.0000970425390194,4.270299914806781e-05
-0.46287686916039095,-0.46287686916039095,1.0000344952683087,4.279952795478035e-05
-0.4626876031485153,-0.4626876031485153,0.9999580390326605,4.293625608836221e-05
-0.46245870626298713,-0.46245870626298713,1.0000154264336583,4.280794504361525e-05
-0.46233668752684026,-0.46233668752684026,0.9999827237068202,4.301626283531211e-05
-0.4622621664821054,-0.4622621664821054,0.9999592467657228,4.277922357432258e-05
-0.4620413775264751,-0.4620413775264751,0.9999757461904994,4.2929119356306965e-05
-0.4617988185069407,-0.4617988185069407,1.0000904873672527,4.2894680228473395e-05
-0.4616178820331697,-0.4616178820331697,0.9999715138093304,4.293340521501572e-05
-0.461420704840566,-0.461420704840566,0.9999212000072607,4.242883679354011e-05
-0.46119794422847915,-0.46119794422847915,0.9999523528114732,4.292966042628164e-05
-0.4609725828835508,-0.4609725828835508,0.999996446579171,4.262842157284289e-05
-0.4607788234614418,-0.4607788234614418,0.9999746177585767,4.2823872053477844e-05
-0.4605952324913233,-0.4605952324913233,0.9999684835543168,4.259280746312625e-05
-0.46034149515180617,-0.46034149515180617,1.0000364728844846,4.2955833027632596e-05
-0.4601885520183714,-0.4601885520183714,1.0000178431318352,4.264217800042709e-05
-0.4600660201016581,-0.4600660201016581,0.9999894439272158,4.346920330063642e-05
-0.4599255624678335,-0.4599255624678335,1.000050239467917,4.301424821472147e-05
-0.4598620660952292,-0.4598620660952292,0.9999714338972497,4.2794176049712843e-05
-0.45969148169388063,-0.45969148169388063,1.000005413888458,4.313592097994945e-05
-0.4594597659423016,-0.4594597659423016,0.9999568665130335,4.296911680108887e-05
-0.45926241158449554,-0.45926241158449554,1.0000118561594882,4.2739625149762176e-05
-0.4591421741162776,-0.4591421741162776,0.9998867794363517,4.2805652026123375e-05
-0.4589980027085403,-0.4589980027085403,0.9999470978417258,4.281674570313832e-05
-0.45875440029631137,-0.45875440029631137,1.0000455935889012,4.3023424356382605e-05
