time,time,flux,flux_err
-0.4997678948887672,-0.4997678948887672,1.0002426599384662,0.0003066059896215359
-0.4995968263380443,-0.4995968263380443,0.9997835699976005,0.0003349613264093165
-0.4993121608634586,-0.4993121608634586,1.0001109125662688,0.0003370637320622409
-0.4991300075882464,-0.4991300075882464,0.9998264752252755,0.0003114129771087572
-0.49895875929942124,-0.49895875929942124,1.0004590917279093,0.0002931845307631329
-0.49882907392457126,-0.49882907392457126,0.9990945437856065,0.00029537010176210497
-0.49859139809850606,-0.49859139809850606,1.0001325716402625,0.00029848761674159215
-0.4984540439378179,-0.4984540439378179,0.9999629662459864,0.0003007279236019691
-0.49830163786537013,-0.49830163786537013,1.0000566240749378,0.0003140127161283034
-0.49816488452488555,-0.49816488452488555,1.0004010910142858,0.00029774262227188553
-0.4979704194825899,-0.4979704194825899,1.0001848410767913,0.0003005784130052823
-0.4978700006489817,-0.4978700006489817,1.0004287151415636,0.00030904542562844696
-0.49768690436758334,-0.49768690436758334,1.000163501421134,0.00029959031589343627
-0.4975060933895293,-0.4975060933895293,0.9996207764581321,0.00028414554578894466
-0.49741894812395915,-0.49741894812395915,1.0000063435393145,0.00031824053483350606
-0.4972654871555278,-0.4972654871555278,0.999851761311708,0.0002858059838136955
-0.49713192531417005,-0.49713192531417005,0.9996675931200321,0.0002930171668608934
-0.4969034102956357,-0.4969034102956357,0.9998291139519772,0.0003049129039476822
-0.4967605442441709,-0.4967605442441709,0.9999765963138436,0.0002931829089801496
-0.4965573447690986,-0.4965573447690986,0.9995046762859572,0.0003095213612406829
-0.49643778401296,-0.49643778401296,0.9999044746652084,0.00030185025469887537
-0.4962846216454636,-0.4962846216454636,0.9999897061445339,0.0003251553876258196
-0.4960748822777532,-0.4960748822777532,0.9999828011048295,0.00029427033701943814
-0.49589533869148,-0.49589533869148,1.0005208542698598,0.0002950703312552855
-0.49576752626671805,-0.49576752626671805,1.0001518504185531,0.0002955410976582393
-0.495620789284294,-0.495620789284294,0.9997643039030741,0.000292600985519991
-0.4954563691011572,-0.4954563691011572,0.9995523812257737,0.00028437124969600037
-0.49526560316662654,-0.49526560316662654,1.0001252335834272,0.00029351169388966197
-0.4950733143297839,-0.4950733143297839,1.000029443408439,0.00032112134479274915
-0.49500408729727496,-0.49500408729727496,0.9999917408619868,0.0002809340661052464
-0.49487414687973796,-0.49487414687973796,1.00050157223589,0.0002842041595420682
-0.4946032749729056,-0.4946032749729056,1.0001091030014067,0.0003067816659333569
-0.49444637007909475,-0.49444637007909475,1.000311670965954,0.0002993907328421515
-0.49429731314085074,-0.49429731314085074,0.9998141887540101,0.00027856446687414744
-0.49401673305910665,-0.49401673305910665,0.9999510937336478,0.0003157072194261545
-0.49390728053695054,-0.49390728053695054,0.999674666863228,0.00029741544336673437
-0.4936478792682465,-0.4936478792682465,1.0000162370890902,0.00027869652581092165
-0.49354865533605335,-0.49354865533605335,0.999592365142643,0.00029724996541479756
-0.49336726700057626,-0.49336726700057626,0.9999671685849985,0.0002974236222710922
-0.4930797366090701,-0.4930797366090701,0.9994381666089772,0.0003067593203898171
-0.4929210748130572,-0.4929210748130572,1.00024327230576,0.00028757548553279646
-0.4927151352574583,-0.4927151352574583,0.9995995997662599,0.0002961073161689014
-0.4924764876072004,-0.4924764876072004,0.9996199608232462,0.00028984052628847713
-0.49232318458889496,-0.49232318458889496,1.0002212547924156,0.0003249828842752325
-0.49215123345638856,-0.49215123345638856,1.0001124523065656,0.0002998214428624562
-0.4920363512203039,-0.4920363512203039,0.9999167479352064,0.00029817218789081194
-0.49190241355245234,-0.49190241355245234,1.0000571593683505,0.00028169466594300997
-0.4917266554068192,-0.4917266554068192,1.0004249707851476,0.0003064036588567681
-0.4915842106958735,-0.4915842106958735,1.0002592675024302,0.00031410873293199646
-0.49140768719735206,-0.49140768719735206,0.9999089235627148,0.00027495031199157254
-0.49136378843177225,-0.49136378843177225,0.9998635140013636,0.000304051062572269
-0.4912860381693463,-0.4912860381693463,0.9999449443792285,0.00029923651445118866
-0.49111093160827296,-0.49111093160827296,1.0002580673382624,0.00027941457857822837
-0.4909536953920906,-0.4909536953920906,1.000153550522377,0.00031571150909152603
-0.49080253721404005,-0.49080253721404005,0.9996845638623408,0.00029921710860502765
-0.49069033094201586,-0.49069033094201586,1.0003035849311668,0.0002911427794399726
-0.49051908511755754,-0.49051908511755754,0.9999682892311024,0.00030466609798477387
-0.49040954776210127,-0.49040954776210127,1.000088207216169,0.00029065440071005086
-0.49022840983525384,-0.49022840983525384,0.9996232721753783,0.0003028790344697931
-0.49004815811276786,-0.49004815811276786,1.0003503269876268,0.00031788152165109477
-0.4897903586519533,-0.4897903586519533,0.9997866690357299,0.00031424856641605874
-0.4895948456207407,-0.4895948456207407,0.9994300577565675,0.00029309158908693845
-0.4893723231965851,-0.4893723231965851,1.0005639460237075,0.0002951095169077975
-0.4892273130135436,-0.4892273130135436,0.9998498471882625,0.00027349178115962917
-0.4890005867200671,-0.4890005867200671,1.0001465221291217,0.00030643605932988903
-0.4888459511028486,-0.4888459511028486,0.9997787938105889,0.0002926182793375262
-0.48866055541511744,-0.48866055541511744,1.0002588338801806,0.00030366075295868225
-0.4884555149037624,-0.4884555149037624,0.9998848514796854,0.00029724855682626355
-0.4883468035790429,-0.4883468035790429,0.9997446008161635,0.0003097000222068933
-0.4881850385456346,-0.4881850385456346,1.0002525285694643,0.0002747154975042041
-0.48791557828881194,-0.48791557828881194,0.9995488363963732,0.00032245502367928247
-0.4877245978190331,-0.4877245978190331,0.999726920769343,0.000281327990530737
-0.48746162909665147,-0.48746162909665147,0.9998271787796641,0.00033276412307608344
-0.4873445383476792,-0.4873445383476792,1.0000268375904,0.00028948199464841036
-0.48713545403734315,-0.48713545403734315,0.9999646969383524,0.00027824400545988875
-0.48701487740618177,-0.48701487740618177,1.0003014202505391,0.00029574157170317983
-0.4868685429719335,-0.4868685429719335,0.9998279217313335,0.00030698208399865327
-0.4866596168089018,-0.4866596168089018,0.9998909684024019,0.0002855995625927523
-0.48640349827401225,-0.48640349827401225,0.9998927197900059,0.00029010227581109644
-0.4861272602873214,-0.4861272602873214,0.9999860988998119,0.00031998155725194104
-0.48599083305962265,-0.48599083305962265,1.000064533098374,0.00030069829175705576
-0.4858656285658071,-0.4858656285658071,1.0001422560602007,0.000286219203643291
-0.48568509665419696,-0.48568509665419696,0.9994805997855434,0.00031888046025718925
-0.48537893379107117,-0.48537893379107117,1.0002125509230033,0.00032929706435102927
-0.4851997135228885,-0.4851997135228885,0.9994549414397532,0.00031819599007351835
-0.48503781334802626,-0.48503781334802626,0.9998666525029009,0.0002810110192831607
-0.4848880503108376,-0.4848880503108376,1.0000666537822684,0.00027965257294878143
-0.4848064040364989,-0.4848064040364989,1.0000907868615887,0.00030822309947126363
-0.4846946370707883,-0.4846946370707883,0.9998176805686878,0.000296487671049372
-0.48456577875913354,-0.48456577875913354,1.0000127279691782,0.0002775348514359291
-0.4844195624187705,-0.4844195624187705,1.0000268166427495,0.0002976405397955638
-0.48428348496090623,-0.48428348496090623,1.0004732106688974,0.00030236643336679415
-0.4841654779673263,-0.4841654779673263,0.9999553998551262,0.00031306744146655964
-0.48407639662545987,-0.48407639662545987,0.999893782799246,0.0003096141897088888
-0.48388775331550277,-0.48388775331550277,0.9997697900757876,0.00029313104241425274
-0.4836869453174586,-0.4836869453174586,0.999719752051455,0.00031156636283239205
-0.48349826078483604,-0.48349826078483604,0.9998180443062751,0.0002997617730772321
-0.48326077555320807,-0.48326077555320807,0.9998668854940046,0.0002918393732744863
-0.4831033426315116,-0.4831033426315116,1.000198555143069,0.00028028343476670147
-0.48299331585658367,-0.48299331585658367,1.0003708854964184,0.00029916442887275706
-0.4828148722939659,-0.4828148722939659,1.0002170741701089,0.00028454958813868726
-0.4826131431385875,-0.4826131431385875,1.0002366556300015,0.0002959752104075532
-0.48244109494335136,-0.48244109494335136,1.0002372847464103,0.0003046931958388582
-0.4823192081930756,-0.4823192081930756,0.999940652052522,0.0002919977665655657
-0.4820737463400292,-0.4820737463400292,0.9997922805508044,0.0002831118618787388
-0.481858272926911,-0.481858272926911,0.9997666999809244,0.0003140186217292029
-0.481696842614474,-0.481696842614474,0.9995731495340052,0.00027890579328973785
-0.4814211623139272,-0.4814211623139272,1.0002854581287672,0.0003017319526976406
-0.48127966218526125,-0.48127966218526125,0.9997861227776157,0.00028793279364933524
-0.4811017197978799,-0.4811017197978799,1.000230249796212,0.0002972110796675324
-0.4809435707233206,-0.4809435707233206,1.0000881315671082,0.00029754649827131525
-0.4807359316590009,-0.4807359316590009,0.9997055187831752,0.000298577861726553
-0.4805454697692767,-0.4805454697692767,1.0002739487161596,0.0003089501976544871
-0.48042815987573706,-0.48042815987573706,0.9995459716512098,0.00029780009183218186
-0.4802545480262779,-0.4802545480262779,0.9995278875889777,0.00028713950217178696
-0.48001937377557624,-0.48001937377557624,0.9999445239805341,0.00030062020577576186
-0.4798024192838056,-0.4798024192838056,0.9996207683166881,0.000295152731338863
-0.4796561387978727,-0.4796561387978727,0.9996418853254457,0.0003001839181135691
-0.4795328942745982,-0.4795328942745982,1.0001898885728375,0.00029301595006717195
-0.47934703449791416,-0.47934703449791416,0.9999977999404711,0.00029045388861735
-0.4792211785839754,-0.4792211785839754,1.0001825460526823,0.00031580983494245015
-0.47903407488120137,-0.47903407488120137,1.0003308393799215,0.00031087873032258236
-0.47883255101332906,-0.47883255101332906,1.000722220641973,0.0002831679550314585
-0.4787382054098998,-0.4787382054098998,0.9999559194006904,0.00030980214755242424
-0.4786111256580625,-0.4786111256580625,1.0000149810115033,0.0002996961635100868
-0.4784126272010326,-0.4784126272010326,0.9998038781702088,0.0002892702577095414
-0.4782243209221633,-0.4782243209221633,0.9998680635294204,0.000307142862278253
-0.47808953329004,-0.47808953329004,0.9998922227014443,0.0002915815654064222
-0.4779327082702366,-0.4779327082702366,0.9998285705944422,0.00029488053544668403
-0.4777501992561156,-0.4777501992561156,1.0001841693974063,0.0003053863425187554
-0.4774326684360858,-0.4774326684360858,0.9995450516981462,0.000312084113218755
-0.4772706052732246,-0.4772706052732246,0.9996853471208491,0.0002954457439229602
-0.4770477537640545,-0.4770477537640545,1.0000720029491659,0.0002940448837350319
-0.476914904514706,-0.476914904514706,0.9998289136471158,0.0002926339766465276
-0.4767495623244031,-0.4767495623244031,1.0005327759578249,0.00028421240136670517
-0.4765267127200786,-0.4765267127200786,0.999818747856829,0.00029313884969787887
-0.476337419974152,-0.476337419974152,1.0000627845056704,0.0003133090327768598
-0.4762875347449153,-0.4762875347449153,0.9999580939346655,0.00027944982384752956
-0.47613337217044316,-0.47613337217044316,0.9999780304432193,0.00028590162615986915
-0.4758480899465212,-0.4758480899465212,0.9996444333895281,0.0002956990226153967
-0.47569947647352817,-0.47569947647352817,1.0001536972225644,0.0003005142208475513
-0.4754266858435585,-0.4754266858435585,0.9996196843308447,0.0002985581309648438
-0.4752376386080869,-0.4752376386080869,1.000106027180843,0.0003162993236569257
-0.4750010983720131,-0.4750010983720131,1.000206482691103,0.00028122931755127865
-0.4748539902706398,-0.4748539902706398,0.9999803839297325,0.00029769167014127157
-0.47472587409210976,-0.47472587409210976,0.9999471226797766,0.0002929350125487218
-0.4744223243265878,-0.4744223243265878,0.9999740640443596,0.00029611099927123676
-0.4742648708706838,-0.4742648708706838,1.000224482984349,0.0003028900988060495
-0.4740545049775392,-0.4740545049775392,0.9996657671369805,0.00029751554254517755
-0.47385772998968606,-0.47385772998968606,0.9996897150209672,0.0002863639166949491
-0.4736803906496789,-0.4736803906496789,0.9998531513757442,0.0003073530973211083
-0.4734996868588496,-0.4734996868588496,1.000060308272236,0.0003157592074983569
-0.47334191045956686,-0.47334191045956686,0.999893230391945,0.00029779656680982045
-0.4732004291305202,-0.4732004291305202,1.0001247409180525,0.00028215983218440855
-0.4730106004528352,-0.4730106004528352,0.9998531542569621,0.00030438709813935736
-0.472749318836577,-0.472749318836577,1.0000970017938013,0.00028875327754066297
-0.4726410756666155,-0.4726410756666155,0.9993557671572072,0.0003153069179457716
-0.47245244968289624,-0.47245244968289624,0.9993912168030936,0.00028358090667184206
-0.4723161616770085,-0.4723161616770085,0.9998700039884681,0.0002897292620456816
-0.4721366745776322,-0.4721366745776322,0.9999840975349746,0.00030653484581853605
-0.4720033794459596,-0.4720033794459596,1.0002042313763218,0.000295256659684904
-0.47188510999185385,-0.47188510999185385,1.0002928599645486,0.0002971561226406555
-0.4717510599955858,-0.4717510599955858,0.9997731088392159,0.0002981627735914884
-0.4716262863832526,-0.4716262863832526,1.000020651835116,0.000292460431261123
-0.4714372507798544,-0.4714372507798544,1.000091380488413,0.0003313555272171975
-0.47120697350255797,-0.47120697350255797,1.0005071829084253,0.00031546190477772047
-0.47098316324409095,-0.47098316324409095,1.0004571639720685,0.00028987476535673277
-0.47084852517946274,-0.47084852517946274,1.0001268174684261,0.0002894473657897098
-0.4706724121992011,-0.4706724121992011,1.0000125555662138,0.0002983270310125837
-0.470492361055949,-0.470492361055949,1.0000935669855078,0.0002880625495396193
-0.47027020881942005,-0.47027020881942005,1.000325030426571,0.0002969425465617444
-0.47011143615236506,-0.47011143615236506,1.00021191877635,0.00029019408186890035
-0.46997374484635657,-0.46997374484635657,1.000258008229452,0.0003057167083940615
-0.4697523767776147,-0.4697523767776147,0.9998797215127804,0.00029772797560191324
-0.4695812213147292,-0.4695812213147292,0.9999757730293704,0.0002894428613040986
-0.46934475341040527,-0.46934475341040527,0.9996232619696668,0.000289914746417949
-0.4691216026440088,-0.4691216026440088,0.9997911473433405,0.00030249965200450336
-0.4688285089592682,-0.4688285089592682,1.0005121191705857,0.0002790096533736384
-0.46868693943179096,-0.46868693943179096,1.0008058419635746,0.000302015122889917
-0.46840650985832327,-0.46840650985832327,0.9996750640291223,0.0002780904507419738
-0.46826905369525773,-0.46826905369525773,1.0000452678931988,0.0003099014366681282
-0.46809524019990933,-0.46809524019990933,1.00019067997435,0.0003099593566519362
-0.4679123978676216,-0.4679123978676216,0.9998980617892365,0.00028275833807593084
-0.467662238010962,-0.467662238010962,1.0003043359954027,0.00028961291489597687
-0.46745812163280787,-0.46745812163280787,0.9998360157723111,0.00032918800042818234
-0.4673148424284591,-0.4673148424284591,1.0001888165354829,0.00030075727678070054
-0.4672127924102824,-0.4672127924102824,1.0002544670790228,0.0002872753393502835
-0.46701895625301404,-0.46701895625301404,1.000391070846306,0.0003044044122723243
-0.46685311317487505,-0.46685311317487505,0.9999536709732295,0.0003038862240161659
-0.46663338589423803,-0.46663338589423803,0.9993957513433693,0.0003133103099606933
-0.4665366776025621,-0.4665366776025621,1.0003937116100967,0.00029932348715460907
-0.4663706687388185,-0.4663706687388185,1.0002133904355373,0.0003002564484203819
-0.46619599199984807,-0.46619599199984807,0.9997749167234022,0.000283025755511383
-0.46611749024305027,-0.46611749024305027,1.0002509866176237,0.0003054498828923193
-0.46603955607133685,-0.46603955607133685,0.9998162071716884,0.00030539556352193303
-0.465919353326899,-0.465919353326899,0.9997453066043303,0.00028726665207074207
-0.46575439322841705,-0.46575439322841705,1.0000013701461996,0.000292822750059366
-0.46553801094996744,-0.46553801094996744,1.0002923784298876,0.00030565082389114295
-0.46534419449526465,-0.46534419449526465,0.9997764708473754,0.000328286245228829
-0.4651645528923837,-0.4651645528923837,1.0000708773086688,0.0003078325520033731
-0.46488646399302525,-0.46488646399302525,1.0001823500084708,0.0003116792506487994
-0.4647248536253755,-0.4647248536253755,0.9995570252173925,0.00028039935856924946
-0.4645055161025084,-0.4645055161025084,0.9999806659499804,0.00029446574500538165
-0.46435395250809963,-0.46435395250809963,1.0000275756446904,0.0002946193527923078
-0.46418600872566457,-0.46418600872566457,1.0004044928862927,0.00029220589257441523
-0.4640274348770618,-0.4640274348770618,0.9995768492093321,0.0002734303843865991
-0.4638350417830225,-0.4638350417830225,1.00022247541183,0.000296225150350145
-0.4636372049950296,-0.4636372049950296,1.0001594817244306,0.0003029040793128844
-0.4633160367520759,-0.4633160367520759,1.000339473552323,0.0002868477845553805
-0.4631153995214845,-0.4631153995214845,1.0000868704907362,0.000310284770162537
-0.46285355768122827,-0.46285355768122827,1.0001525803350622,0.0002772353779901223
-0.46270824789535253,-0.46270824789535253,1.0003027405582539,0.000286404839112797
-0.46257900199416324,-0.46257900199416324,1.0002449662595712,0.0002923817859169492
-0.4623722087548231,-0.4623722087548231,0.9998470884351993,0.0002812571607795877
-0.4622282298943901,-0.4622282298943901,0.9996617910152675,0.00029686760794062897
-0.46208941453660374,-0.46208941453660374,1.0000201954791461,0.0002893430614457345
-0.46184890122822253,-0.46184890122822253,0.9998339058543728,0.00029351710870205997
-0.4617093049753748,-0.4617093049753748,0.9997881962132504,0.00030179284204321906
-0.4615820916173107,-0.4615820916173107,1.0000030324506524,0.00028636875241982133
-0.46142578588332983,-0.46142578588332983,0.9998307992229089,0.0002889571040482843
-0.46120679615196425,-0.46120679615196425,1.000582370468282,0.00030086489491338875
-0.4610589097850607,-0.4610589097850607,1.000209342516635,0.00029442028794902095
-0.46088645923082366,-0.46088645923082366,1.0003542965853127,0.0003094075335728212
-0.4607566814884194,-0.4607566814884194,0.9999941890196725,0.0002994011516873222
-0.46058119678418735,-0.46058119678418735,0.9999438202455291,0.00027534379735238404
-0.46046990684772027,-0.46046990684772027,1.0000011196812075,0.0003094444626682668
-0.4602857522608247,-0.4602857522608247,0.9999729478938832,0.0003114294586840741
-0.4601525287653203,-0.4601525287653203,1.0000620481714642,0.0002978378028304995
-0.4600621016441437,-0.4600621016441437,1.0005874246788908,0.00029414060711181777
-0.4599997653444007,-0.4599997653444007,1.000352060633368,0.00032471952354150974
-0.4598014821625839,-0.4598014821625839,1.000040296915264,0.00028154932473416336
-0.45960092499226446,-0.45960092499226446,0.9995490505354276,0.0003186910838649802
-0.45942300197057195,-0.45942300197057195,0.9998933722096931,0.00029521830540946283
-0.45929969024582534,-0.45929969024582534,0.999759007776785,0.00029523144542668254
-0.4591123689438973,-0.4591123689438973,1.0000159466112124,0.00029256501790096576
-0.4588875178655144,-0.4588875178655144,1.000022907207145,0.0003013731252344234
-0.4587273736739007,-0.4587273736739007,0.9997524760036143,0.000309619225345966
-0.4584815287293168,-0.4584815287293168,0.9998031051970686,0.00031212740509594533
-0.4582664590459899,-0.4582664590459899,0.9995980406915763,0.0002924048975940237
-0.4580570179350616,-0.4580570179350616,1.0007041336254763,0.0002838865505002049
-0.4578207538215793,-0.4578207538215793,0.9997134151802953,0.00029276598697121597
-0.457633895149047,-0.457633895149047,0.9998282637268796,0.0003035193734160943
-0.4575064790267788,-0.4575064790267788,0.9999214843823481,0.0002875497267845588
-0.45718531431703013,-0.45718531431703013,0.9993162235900768,0.00031311847197459453
