time,time,flux,flux_err
-0.49991921475011625,-0.49991921475011625,1.0003949533096592,0.0005060245404553897
-0.499804683579714,-0.499804683579714,0.9994868018894099,0.00046735234061950844
-0.49968841257068564,-0.49968841257068564,0.9996610184586506,0.0005610449537648106
-0.4995904391791555,-0.4995904391791555,1.0001210503088538,0.0005832995386898383
-0.49950644079508494,-0.49950644079508494,0.9997397399781734,0.000501075830890201
-0.49943540235617545,-0.49943540235617545,1.0007962671692614,0.0004975856230175046
-0.4992646297752799,-0.4992646297752799,1.0001577652345657,0.000513817033033816
-0.4991525987679779,-0.4991525987679779,0.9999196085004438,0.0005128307438642089
-0.49904471965346603,-0.49904471965346603,1.0002598025453135,0.0005072347151100275
-0.498941013860167,-0.498941013860167,0.999586218228907,0.0004904865046387605
-0.4988447583113157,-0.4988447583113157,1.0002950426725297,0.0004856578938833814
-0.4987035467434907,-0.4987035467434907,1.0001915079081307,0.0005048957858104421
-0.4985809555750166,-0.4985809555750166,1.0004217457986686,0.0005317402366314638
-0.4984539466080605,-0.4984539466080605,1.0005102510507728,0.0005149756121627296
-0.49837050432834074,-0.49837050432834074,0.9992946992582891,0.0005316794204607386
-0.49827318015813943,-0.49827318015813943,1.0001121932496961,0.0005171565514808488
-0.4982052122053574,-0.4982052122053574,1.0001170422883774,0.0005568736947431222
-0.49809959624471956,-0.49809959624471956,1.0001338887551185,0.0005295894114731223
-0.49800880786060586,-0.49800880786060586,0.9998538822826205,0.0004676019668939912
-0.49791891374843544,-0.49791891374843544,1.0007637872679567,0.0005536196163398245
-0.4978421730178525,-0.4978421730178525,1.0003394437714939,0.0005297111816072598
-0.4977240462809277,-0.4977240462809277,0.9997014524583149,0.0005828089771964368
-0.4975865099899238,-0.4975865099899238,0.9999996883689668,0.0005262212582303816
-0.49742545056069504,-0.49742545056069504,1.0000221830070621,0.0005211580337523122
-0.4973305549086945,-0.4973305549086945,1.000002112473946,0.0005591868628205952
-0.497232895920024,-0.497232895920024,0.9994538565557007,0.0005784251557463284
-0.4971508982438536,-0.4971508982438536,0.9994669192781964,0.0004911275729205858
-0.4970381600171095,-0.4970381600171095,1.0001779351248863,0.0004630032028701508
-0.496884056001727,-0.496884056001727,1.0011685809987168,0.00049068626088143
-0.49673458713950824,-0.49673458713950824,0.999945362972548,0.0005286874023010489
-0.49656214634742357,-0.49656214634742357,0.9998603893857206,0.0005141219284580183
-0.4964117815165082,-0.4964117815165082,1.0001632279377572,0.0004912051813150952
-0.4963409103060258,-0.4963409103060258,1.0001622777061037,0.0005237647751392237
-0.49618623956484953,-0.49618623956484953,1.0002350404548266,0.0005283860400652146
-0.49608671508322005,-0.49608671508322005,0.9994217425176384,0.0005234214083084019
-0.4959749620189541,-0.4959749620189541,0.9997054722628658,0.0004949818630386176
-0.49585818939158344,-0.49585818939158344,0.9993604154711548,0.000484024942751268
-0.49575187374284724,-0.49575187374284724,1.0008373170265248,0.0005638541074437905
-0.4956120245893544,-0.4956120245893544,1.0000590620755945,0.0004937123928984306
-0.4954384651100554,-0.4954384651100554,1.0000763540414754,0.0004924256963657758
-0.49517453578082493,-0.49517453578082493,1.000402605736141,0.0005043329055790969
-0.4950250091256748,-0.4950250091256748,1.0001813386990097,0.0004924337288995468
-0.4948937384157034,-0.4948937384157034,1.0001881766706195,0.0005813462173525269
-0.4947798149049049,-0.4947798149049049,0.9999535524051586,0.000531018392597335
-0.494665562051523,-0.494665562051523,0.9993739288998741,0.0005032271879904865
-0.49451347876674845,-0.49451347876674845,1.0003649561394272,0.0005371775630262405
-0.49434033127763544,-0.49434033127763544,0.9999973751126664,0.0005610737881430667
-0.4941858188241895,-0.4941858188241895,0.9999738981924301,0.0004943632520012513
-0.4940386340080295,-0.4940386340080295,0.9999571910689967,0.0005325495348226722
-0.4938630245393142,-0.4938630245393142,0.999139097422827,0.0005042114311173061
-0.49375004941175576,-0.49375004941175576,1.0004975713273214,0.0005088485037894857
-0.49365430137768274,-0.49365430137768274,1.0002690846334739,0.0004751468874754628
-0.49351830668238106,-0.49351830668238106,0.9993659950039723,0.00046663864760468127
-0.49324943085739503,-0.49324943085739503,0.9996859713894544,0.0005407465689281959
-0.4931119902037608,-0.4931119902037608,1.0001725235444086,0.0005014499582072436
-0.4929974593229417,-0.4929974593229417,0.9994058038062621,0.0005296464175583473
-0.49287024416044006,-0.49287024416044006,0.9999303196664849,0.0005124583371784858
-0.49276721408969026,-0.49276721408969026,1.0001452464323277,0.0005510414606271721
-0.49263656933762834,-0.49263656933762834,0.999552646605949,0.0005987526843273248
-0.49253913011125405,-0.49253913011125405,1.0002109776248393,0.0004976402824292808
-0.4924728448328096,-0.4924728448328096,1.0000208252278056,0.0005012035502813053
-0.49230105910100974,-0.49230105910100974,0.9997840878393818,0.000518949969000326
-0.4921795604597719,-0.4921795604597719,1.0001976583484506,0.0005200476499930108
-0.49209198870448745,-0.49209198870448745,0.9991794244401024,0.0005144510761278933
-0.4919950998068089,-0.4919950998068089,1.0003910266633045,0.0005484809842751035
-0.49191617793912884,-0.49191617793912884,1.000214079709322,0.0004954124519592936
-0.49181388946526566,-0.49181388946526566,0.999847939535325,0.00048739833162971875
-0.49164516694218036,-0.49164516694218036,1.0002217457945888,0.0005164340299178659
-0.49148250065409227,-0.49148250065409227,1.0005342623986129,0.0005396929316320998
-0.4913671313704981,-0.4913671313704981,0.9999613505932947,0.0005442416527731857
-0.491253638114722,-0.491253638114722,1.000337655691508,0.0005064526552006913
-0.49114526028861294,-0.49114526028861294,1.0000056226170493,0.0005913905588143024
-0.4910137930208293,-0.4910137930208293,0.9992390880696671,0.0005195706817229836
-0.4909200032794615,-0.4909200032794615,0.9997611097225487,0.0005151902696106095
-0.4908273444212682,-0.4908273444212682,1.000365083587325,0.0005665377420347138
-0.4907083950150991,-0.4907083950150991,0.9996317838434982,0.000598970476664412
-0.49058025581762194,-0.49058025581762194,0.9997280139537439,0.0004846150911141342
-0.49040247492157507,-0.49040247492157507,0.999814027319359,0.0005205514759896006
-0.4903075413043553,-0.4903075413043553,1.0003298500527418,0.0005566917640418842
-0.4902066212169302,-0.4902066212169302,1.0004852400037278,0.0005794963176393801
-0.4900958281796193,-0.4900958281796193,0.9998609417497673,0.00048553531509067354
-0.4899188267765567,-0.4899188267765567,1.000261110765337,0.0004974796028945792
-0.48977961449418217,-0.48977961449418217,0.9996971169763551,0.000514865212462967
-0.48963366592506646,-0.48963366592506646,1.0008633573069514,0.0005022934108714982
-0.48950114504041264,-0.48950114504041264,0.9991165235668215,0.0005047096818453145
-0.4894016596321308,-0.4894016596321308,0.9994915378921494,0.0005080569243446077
-0.4893126024544472,-0.4893126024544472,0.9997453343947911,0.0005226427055079502
-0.48916405050258616,-0.48916405050258616,0.9997383682991388,0.0005293232859129043
-0.48903166034288004,-0.48903166034288004,0.9999526085013837,0.0004996711503982752
-0.4888843156339135,-0.4888843156339135,0.9992317877203167,0.00046147580948433154
-0.48879037002698167,-0.48879037002698167,1.0001518627910657,0.0005790153405832831
-0.48865435624902603,-0.48865435624902603,0.9994655539640711,0.0005657855909265186
-0.4885346314033086,-0.4885346314033086,1.0001710115775386,0.00046278425984541173
-0.4883570067853725,-0.4883570067853725,0.9997535299577429,0.0004861953672526422
-0.48816003616084347,-0.48816003616084347,1.0006036709161992,0.000503418210123962
-0.48797746714844836,-0.48797746714844836,1.000234695894167,0.0005013255790607085
-0.4878857257623167,-0.4878857257623167,1.0003944525260813,0.000553274321107011
-0.4877881318672735,-0.4877881318672735,1.0003086035922173,0.0005654444928661189
-0.4876802520186175,-0.4876802520186175,0.9997139872944375,0.0005088334317697922
-0.4875059672172938,-0.4875059672172938,0.9992311710259993,0.0004896657058190937
-0.48736734897538553,-0.48736734897538553,0.9995449867905325,0.0005166098995208108
-0.48727494777558605,-0.48727494777558605,1.0000270996941603,0.0005349907108920268
-0.4871364112077572,-0.4871364112077572,1.0000002543281552,0.0004768656505885518
-0.48703632491597093,-0.48703632491597093,1.000173367142977,0.0004916044567643707
-0.4868516189897491,-0.4868516189897491,1.000078879139075,0.0005230485419523837
-0.4867436604035902,-0.4867436604035902,0.999706774614826,0.0005238351312343708
-0.4866126241533493,-0.4866126241533493,0.9996322384915611,0.00048446219340297827
-0.48649697885994103,-0.48649697885994103,1.0002313159504617,0.00045727797389149216
-0.4863283775128366,-0.4863283775128366,0.9997590061397478,0.0005455846902168565
-0.48614477526716654,-0.48614477526716654,1.0001585291572397,0.0005065999698635305
-0.4860560162262118,-0.4860560162262118,0.9998063013659264,0.0005311233221152543
-0.4859376061904186,-0.4859376061904186,1.0004585978440108,0.0005208488506472416
-0.48581528657596207,-0.48581528657596207,1.0004057581651926,0.0005406013162668069
-0.4856897914112778,-0.4856897914112778,0.9998908073019525,0.0005168013024247863
-0.48556653538907996,-0.48556653538907996,0.9992852934651941,0.0006033159149714831
-0.4854626108601224,-0.4854626108601224,0.9997919707092471,0.0004792028196646752
-0.4853601990900643,-0.4853601990900643,1.0006454303635308,0.0004995233259748101
-0.4852115091132873,-0.4852115091132873,1.0000983623742137,0.0005744161137825268
-0.48514552154229024,-0.48514552154229024,1.0007661834444064,0.0004902850304012332
-0.48507574883042254,-0.48507574883042254,1.0003901704740397,0.0005181363958383488
-0.48497306341450896,-0.48497306341450896,1.00037910663035,0.0004903196535023513
-0.48488338300812756,-0.48488338300812756,1.0000620240256357,0.0004989895636753086
-0.48478462175553433,-0.48478462175553433,1.0002020214346845,0.00048151494687412256
-0.48461969241543557,-0.48461969241543557,1.0009112133109836,0.0005165056549396313
-0.4844598141724418,-0.4844598141724418,1.0004042054023181,0.0005215857432166349
-0.484350378572708,-0.484350378572708,1.0003284738668192,0.0005527794063126818
-0.4842436110484414,-0.4842436110484414,1.0004287364352442,0.0005454002839247781
-0.4841584782931022,-0.4841584782931022,1.0005104653006425,0.0005583482022471711
-0.4840582698168873,-0.4840582698168873,1.0001968958694154,0.0005511750070220201
-0.48396986875814035,-0.48396986875814035,1.0008387427505014,0.0004692825557839731
-0.48387855154214776,-0.48387855154214776,1.0002689466124675,0.0005530739610192278
-0.4837862165433762,-0.4837862165433762,0.9993619303539513,0.0005402930748931491
-0.48366561815782916,-0.48366561815782916,0.9996292754635215,0.0005968727582412948
-0.48355174819371316,-0.48355174819371316,0.9993008675082382,0.0004897886636806203
-0.4833979923438164,-0.4833979923438164,0.999833851991044,0.0005157897710603239
-0.4833309875059058,-0.4833309875059058,0.9997039388933148,0.0005760915945416264
-0.48321827894105807,-0.48321827894105807,1.0000608786333376,0.0005032764910310329
-0.48315817716138554,-0.48315817716138554,0.9994398927039807,0.0005569819695746957
-0.48306633601314386,-0.48306633601314386,1.00025739995335,0.0005363296369293882
-0.48293677189576556,-0.48293677189576556,0.9994031268956359,0.00048455768178840713
-0.4827566165360622,-0.4827566165360622,0.9998806933101037,0.0005193527150124483
-0.4825930530176265,-0.4825930530176265,0.9998375230312189,0.0005182174973870837
-0.4824315851648862,-0.4824315851648862,1.0000257873621523,0.0004967727085019573
-0.48235739562151136,-0.48235739562151136,0.9999383858381217,0.0004909528113996809
-0.4822627604968147,-0.4822627604968147,1.000152707062942,0.0005523598137657683
-0.4821497211392852,-0.4821497211392852,1.0002983284737716,0.0004926252493526128
-0.482010022290342,-0.482010022290342,0.9997901305680397,0.0005063614526592323
-0.48182003827459996,-0.48182003827459996,0.9995883473581711,0.0004893469492716544
-0.4817183874562033,-0.4817183874562033,1.0003860551358261,0.0005249943982899234
-0.48161116750270594,-0.48161116750270594,1.0008860627825455,0.0005228105827468838
-0.4815206517167098,-0.4815206517167098,1.000232588624523,0.00046293354783284116
-0.4813541423274728,-0.4813541423274728,1.00070521851591,0.0004991918546152174
-0.48122998571780046,-0.48122998571780046,0.9993472282863886,0.0005139670222238979
-0.48097111949464305,-0.48097111949464305,1.000548602810603,0.000491818686915772
-0.48084419193764916,-0.48084419193764916,1.0001512586179775,0.0005231369046234712
-0.48075201659812594,-0.48075201659812594,0.9990392801880201,0.0005750202460393974
-0.48059868459022254,-0.48059868459022254,1.0003152665191952,0.0005081873565476642
-0.4804003170269425,-0.4804003170269425,1.0004222198954644,0.0005050831786778711
-0.48028879577468614,-0.48028879577468614,0.9999877109299511,0.0005431951457104011
-0.480146696553129,-0.480146696553129,0.9999330824939647,0.00048277187218436136
-0.47999557916336927,-0.47999557916336927,1.0001224194449603,0.0004989507640528248
-0.47979009818081975,-0.47979009818081975,1.0004362846807742,0.0005063660160220978
-0.47970928253780587,-0.47970928253780587,1.0003762260523408,0.0005116258530778039
-0.4795919420175778,-0.4795919420175778,1.000895462556683,0.0004776958580009986
-0.47949819322893744,-0.47949819322893744,1.0000388557606992,0.00045704935583878146
-0.47935187830153153,-0.47935187830153153,1.0001503647941372,0.0005377324697250503
-0.47917016395149403,-0.47917016395149403,0.9998512828814039,0.0005432687136677711
-0.4790579179636552,-0.4790579179636552,0.9998861393683918,0.0005487597782162124
-0.4789557182753924,-0.4789557182753924,0.9997422595227199,0.00045411135426388195
-0.47885460641628014,-0.47885460641628014,1.0000796494796946,0.0005751826891654401
-0.47871665447819395,-0.47871665447819395,0.9998559277090839,0.0005178571026037418
-0.4785900360613596,-0.4785900360613596,1.0006967227001486,0.0005863920587632677
-0.4784897525853012,-0.4784897525853012,0.999850818879151,0.0005153202141302503
-0.47840139515683405,-0.47840139515683405,1.00044032027511,0.0004946211403736138
-0.4782236207596725,-0.4782236207596725,0.9998616101249904,0.0005285140403440445
-0.47814224445828585,-0.47814224445828585,0.9999604808451359,0.0005891831315249946
-0.478075983049348,-0.478075983049348,1.0000173779000643,0.0005035493051328532
-0.47795503676024964,-0.47795503676024964,1.0001951790502424,0.0005095869347736641
-0.4778262071275094,-0.4778262071275094,1.000183699760982,0.0004909058281163477
-0.4777575555999647,-0.4777575555999647,0.9996049562205688,0.0005143188580608169
-0.47763213846992586,-0.47763213846992586,1.0007358877557224,0.0005117795115788708
-0.47749621553011823,-0.47749621553011823,0.9995832546557596,0.0005119059099195338
-0.4773582683970744,-0.4773582683970744,0.9995186039977254,0.0005380152869188958
-0.4772812719522335,-0.4772812719522335,1.000089801790918,0.0005657305765893854
-0.47715757990299607,-0.47715757990299607,1.0008132229463818,0.000502117216539372
-0.47704194263424143,-0.47704194263424143,0.9998030395865098,0.0005492675309377822
-0.4769257119805843,-0.4769257119805843,1.0000303408070585,0.0004899129622520581
-0.47684448693980813,-0.47684448693980813,1.0002250353407807,0.0005990963247260279
-0.4767442651609599,-0.4767442651609599,1.000712150633586,0.0005340369433814879
-0.4765854103883612,-0.4765854103883612,1.000384759474062,0.0005345099741067654
-0.4764121071108093,-0.4764121071108093,0.9998750886519525,0.00047883810566241527
-0.4763068446183752,-0.4763068446183752,1.0006288111812425,0.0005718434248710202
-0.4761929193373362,-0.4761929193373362,0.999524423585943,0.0005193832455623651
-0.47611194174169214,-0.47611194174169214,0.9997239861233224,0.0005581050849679874
-0.47598533958152983,-0.47598533958152983,0.999403474376287,0.0005131678477803271
-0.47578589885888506,-0.47578589885888506,0.9996923511966379,0.0005443155078173067
-0.47561266673728825,-0.47561266673728825,1.0003019636551755,0.0005235604229380696
-0.47544637061000683,-0.47544637061000683,1.0003197238131993,0.0005055275710097258
-0.4753418123160372,-0.4753418123160372,0.9996377296532797,0.0005015207740530175
-0.4752490863109415,-0.4752490863109415,1.0000965945662152,0.0005173467475643981
-0.47515988121958797,-0.47515988121958797,0.9997807888740639,0.0005106856442925317
-0.47505894855494263,-0.47505894855494263,0.999665351898334,0.0005126874434936796
-0.4749654649836884,-0.4749654649836884,0.9997887058630057,0.0004810330185340917
-0.47480472551615094,-0.47480472551615094,1.00044441672649,0.0004880087182500329
-0.4747247663246526,-0.4747247663246526,1.0001225969429524,0.0005638037029323258
-0.4746263123190147,-0.4746263123190147,1.0006603626104493,0.0004962732683639825
-0.474464937877201,-0.474464937877201,0.9999362505944808,0.0004627508256061908
-0.474290241329436,-0.474290241329436,0.999328662306844,0.0005239587446352623
-0.4741497955976229,-0.4741497955976229,0.9996091593537392,0.00047564449743259864
-0.4739562218404899,-0.4739562218404899,0.9999116472859289,0.0004782358419260525
-0.47383025932795136,-0.47383025932795136,0.9994005266610368,0.0005207671115132531
-0.4737269197394198,-0.4737269197394198,0.9994678076950014,0.000572571963949682
-0.47356429240026043,-0.47356429240026043,1.000231111817813,0.0004927093559525623
-0.4733784545896924,-0.4733784545896924,1.000780002480387,0.0005052888945464855
-0.473272410374193,-0.473272410374193,1.000252937341832,0.0004949353777121389
-0.47312271319387944,-0.47312271319387944,0.9997471494484529,0.0005109583827113093
-0.4729450044222176,-0.4729450044222176,1.0000412329288655,0.00047338045492777527
-0.4727813037687156,-0.4727813037687156,1.0008873018976396,0.0005225398164658364
-0.47266399784275565,-0.47266399784275565,0.9996185706853818,0.0005135346888911025
-0.47255948072779574,-0.47255948072779574,0.9995914556462557,0.0005001326400336706
-0.4724716764721961,-0.4724716764721961,1.0006288641364265,0.00045005400870870224
-0.4723105726297945,-0.4723105726297945,1.0000143215485515,0.000496805233738172
-0.47216805711868803,-0.47216805711868803,0.9995830041245263,0.0005459126059929916
-0.47205712539434896,-0.47205712539434896,1.00029683832636,0.0005270686380029872
-0.47197610170114784,-0.47197610170114784,0.99971848758619,0.0005258394695116342
-0.47186568323377287,-0.47186568323377287,0.9999330573101364,0.0005269442279347533
-0.471743797979434,-0.471743797979434,0.9996225755525587,0.0005296917785808816
-0.4716440339332621,-0.4716440339332621,0.9998475400108366,0.0005106238504547245
-0.47153893058712126,-0.47153893058712126,0.99945728076918,0.0006034080757180753
-0.4714090380606649,-0.4714090380606649,1.0003229370213371,0.0004963334457796797
-0.47122914340070565,-0.47122914340070565,1.0006259740205825,0.0005280777927802241
-0.47111544879953726,-0.47111544879953726,1.0000278393397093,0.00048611236816512764
-0.4710329040623037,-0.4710329040623037,1.000265582396716,0.0005034022719346234
-0.47091007072376667,-0.47091007072376667,0.9995708676123778,0.0004994172090231239
-0.47080514326735284,-0.47080514326735284,1.0002473267966112,0.0004975908705908598
-0.4707416533201467,-0.4707416533201467,0.9995817177966011,0.0005130136075059807
-0.47066611645932427,-0.47066611645932427,0.9997175987194508,0.0005078847260959491
-0.4705379785460536,-0.4705379785460536,1.0003194010809078,0.0005039641037069065
-0.47043947569982264,-0.47043947569982264,0.9998147099581445,0.0005165005699010637
-0.470335984423582,-0.470335984423582,0.999857769921392,0.000524925632895841
-0.47023849587058064,-0.47023849587058064,0.9999092860982606,0.0005606211905555758
-0.4701271206140518,-0.4701271206140518,0.9999422396775376,0.0005274585239059525
-0.4699940382692148,-0.4699940382692148,1.000445533859829,0.00048533184265830943
-0.46987046788344744,-0.46987046788344744,1.000354165084751,0.0005345974565251408
