time,time,flux,flux_err
-0.4997820593526588,-0.4997820593526588,1.000011969412662,2.922404617640836e-05
-0.49917773313889785,-0.49917773313889785,0.9999917226976339,2.891608564859295e-05
-0.49861472738002705,-0.49861472738002705,1.0000304780207674,2.6212978000489274e-05
-0.4979439660502976,-0.4979439660502976,0.9999980806608925,2.6245588107804518e-05
-0.49762192822613543,-0.49762192822613543,0.9999442646571548,2.6737102578592805e-05
-0.4972068652900816,-0.4972068652900816,1.000149001333327,2.6809895189878006e-05
-0.4969561625418919,-0.4969561625418919,0.9999681438932857,2.6256633182929147e-05
-0.4965510824226385,-0.4965510824226385,0.9999892644265526,2.6185893813681988e-05
-0.4961231648501325,-0.4961231648501325,1.0000097520318474,2.6740279789946912e-05
-0.49585389342551023,-0.49585389342551023,0.9999651710571609,2.6722099918247774e-05
-0.4956148746632607,-0.4956148746632607,0.9999938322863914,2.6584012340517864e-05
-0.49532239588274934,-0.49532239588274934,1.0006085000745173,2.6850881417151528e-05
-0.49491517385940825,-0.49491517385940825,1.0001482996885105,2.6489007469690817e-05
-0.4944088081204427,-0.4944088081204427,0.9999035832914993,2.7269643750913256e-05
-0.4939787575113314,-0.4939787575113314,1.0000513848921622,2.6566977974771372e-05
-0.4934380737568517,-0.4934380737568517,0.999955587256629,2.6424244075380383e-05
-0.49291499757428026,-0.49291499757428026,1.0000113481914643,2.6226215629929157e-05
-0.4922320944246167,-0.4922320944246167,1.0000203865455812,2.623191638444384e-05
-0.49181738525953733,-0.49181738525953733,0.9999698860828021,2.6486634517879682e-05
-0.4914325090884176,-0.4914325090884176,0.9999656184852384,2.7051848261746773e-05
-0.49122354790383727,-0.49122354790383727,0.9998319578071311,2.6362936460330097e-05
-0.49085383247597747,-0.49085383247597747,0.9999134757507118,2.6401525734667575e-05
-0.4904301581116215,-0.4904301581116215,0.9999963494109612,2.6468367773297996e-05
-0.4901018653482879,-0.4901018653482879,0.9999510405673349,2.6725726642395268e-05
-0.4898406710282416,-0.4898406710282416,1.0000125421108397,2.6823351420956815e-05
-0.489621234307333,-0.489621234307333,1.0007356259713045,2.6395334279726686e-05
-0.4892066554952635,-0.4892066554952635,0.9999627842459378,2.6954341240389576e-05
-0.4887572469091538,-0.4887572469091538,1.0000132407226674,2.6783815347272064e-05
-0.48819809261308367,-0.48819809261308367,0.999946156986961,2.677937114312059e-05
-0.48778636643310164,-0.48778636643310164,1.0000756535013493,2.6505770813816737e-05
-0.48733391567930084,-0.48733391567930084,0.999935833149215,2.6504382590869453e-05
-0.4866228070589841,-0.4866228070589841,1.0000727249143437,2.6161764035361266e-05
-0.48608606555135336,-0.48608606555135336,1.0000882360193069,2.627209098709426e-05
-0.4857289029744152,-0.4857289029744152,1.0000930180140633,2.6774130716099245e-05
-0.4854413616338661,-0.4854413616338661,1.0000062925659594,2.6832386506786913e-05
-0.4851597608448174,-0.4851597608448174,0.9999973348661456,2.6219398979250938e-05
-0.4847767399247914,-0.4847767399247914,1.0000247719107673,2.64570824004474e-05
-0.48434170338805416,-0.48434170338805416,0.9999910334057407,2.6727632700678982e-05
-0.48408671062288705,-0.48408671062288705,0.9999876703997543,2.675838714681819e-05
-0.483858010140375,-0.483858010140375,0.9999121563939302,2.6267139306910115e-05
-0.4835311739867848,-0.4835311739867848,1.0007904424788368,2.713128342786631e-05
-0.4831091562684378,-0.4831091562684378,0.9999956502198852,2.6495045750538113e-05
-0.4825226335087791,-0.4825226335087791,1.0000645504626269,2.7001377111279257e-05
-0.48205999683441403,-0.48205999683441403,1.0000053867511072,2.6560669873633387e-05
-0.4815880607548024,-0.4815880607548024,1.0000642879912363,2.6501481913832735e-05
-0.4809322665147192,-0.4809322665147192,1.000106456864362,2.621213411901396e-05
-0.4803744062029637,-0.4803744062029637,0.9998511348852753,2.6246583556266202e-05
-0.4800521255438525,-0.4800521255438525,1.000107063813171,2.67416063639711e-05
-0.4796622116907656,-0.4796622116907656,0.999880819978469,2.6812146305710975e-05
-0.4794701255940709,-0.4794701255940709,1.0000116350366797,2.6256096794008688e-05
-0.4790383601133271,-0.4790383601133271,0.9998711938459224,2.641314367065373e-05
-0.4786296428057085,-0.4786296428057085,0.9999734245071357,2.6480466221600237e-05
-0.47833909851974565,-0.47833909851974565,0.9999675136727436,2.6758456886155967e-05
-0.4780815167613127,-0.4780815167613127,0.9998605476268185,2.684962073756914e-05
-0.47783516953445543,-0.47783516953445543,1.000428517566345,2.659166943704582e-05
-0.47742020102245986,-0.47742020102245986,1.0000707124741133,2.6672309045353942e-05
-0.4769304166612528,-0.4769304166612528,1.000008866796048,2.707529972143369e-05
-0.47640918598181087,-0.47640918598181087,0.9999953613948266,2.6566676379758232e-05
-0.47586840276921977,-0.47586840276921977,0.9999611111677649,2.642008653764951e-05
-0.4753454176357536,-0.4753454176357536,0.999907257372749,2.622395596220735e-05
-0.47466251728992576,-0.47466251728992576,1.0000005472609692,2.622554150996646e-05
-0.4743045214012909,-0.4743045214012909,0.9999807745710955,2.6772161259934565e-05
-0.47393418568558443,-0.47393418568558443,1.0000956174538138,2.6781441263715183e-05
-0.4736903342943151,-0.4736903342943151,0.9999530841210108,2.6562294675235304e-05
-0.47336739904462777,-0.47336739904462777,0.9999269470214965,2.6211158361428117e-05
-0.47296452974105707,-0.47296452974105707,0.9999411950252572,2.6733572208523155e-05
-0.47258449847367956,-0.47258449847367956,1.0000650362923698,2.6441441056481085e-05
-0.47231073637458393,-0.47231073637458393,1.0000520500072472,2.704322573795405e-05
-0.47205173050847404,-0.47205173050847404,1.0005321693577163,2.6388052772294915e-05
-0.4716368775093997,-0.4716368775093997,0.9999620070636842,2.6957082705214313e-05
-0.4711876234114243,-0.4711876234114243,0.9999961639688418,2.678064837741978e-05
-0.47063319065628095,-0.47063319065628095,1.0000415558428357,2.674304657650371e-05
-0.4701772093290401,-0.4701772093290401,1.0000560865444021,2.632072363935059e-05
-0.4696357602658736,-0.4696357602658736,0.9999678686734089,2.621920609548099e-05
-0.46892906967455017,-0.46892906967455017,0.9999384539742252,2.6166970402954823e-05
-0.4684916386179793,-0.4684916386179793,1.000069280651082,2.6549765516375712e-05
-0.46815916358482357,-0.46815916358482357,0.9998599849472176,2.6776269924729807e-05
-0.4678717429082099,-0.4678717429082099,1.0001823770889904,2.6834546725288906e-05
-0.46759011813246615,-0.46759011813246615,1.0000265957625636,2.621767634136971e-05
-0.46720704172234945,-0.46720704172234945,1.0001528785604297,2.645633420524765e-05
-0.46677202532764567,-0.46677202532764567,1.0000148601689944,2.6725292069901812e-05
-0.46651699497251686,-0.46651699497251686,1.0000282917186973,2.6760793672378908e-05
-0.46625050945358454,-0.46625050945358454,1.0006023297634359,2.6600945747737336e-05
-0.46587659951965177,-0.46587659951965177,1.000083179750034,2.6742057945726938e-05
-0.4654465312089542,-0.4654465312089542,0.9999115177406376,2.6757430929533676e-05
-0.4648368294195279,-0.4648368294195279,0.9999211026687448,2.6995907450714813e-05
-0.4643807896565704,-0.4643807896565704,0.9992376562038657,2.6233200841035644e-05
-0.4639077601084864,-0.4639077601084864,1.0001194781484006,2.6506412722986524e-05
-0.4631965768379359,-0.4631965768379359,1.0002179868212304,2.6163676516143354e-05
-0.46268292417585144,-0.46268292417585144,0.9998911678362598,2.6558211452451952e-05
-0.4623964361249818,-0.4623964361249818,1.0000555221146596,2.6730554776624633e-05
-0.4620517720908538,-0.4620517720908538,0.9999868954723787,2.681817638140405e-05
-0.461816915953159,-0.461816915953159,0.9999387191639441,2.626166970556503e-05
-0.46141191395686293,-0.46141191395686293,0.999989005638945,2.6186771230824124e-05
-0.4609836404276848,-0.4609836404276848,0.9999887919542217,2.6743116926306343e-05
-0.4607143956503023,-0.4607143956503023,1.0000718593821798,2.6721414952174344e-05
-0.460455370308091,-0.460455370308091,0.9999582300136176,2.651601386448555e-05
-0.46007489079161135,-0.46007489079161135,1.0003083897046745,2.6857328826859442e-05
-0.4596660928492383,-0.4596660928492383,1.0001038126177426,2.6754018204314048e-05
-0.4590963622229992,-0.4590963622229992,0.9999783972617162,2.700235242893119e-05
-0.45858240288871455,-0.45858240288871455,1.0001470651387934,2.6302965129870195e-05
-0.4581356678882912,-0.4581356678882912,1.000056345801328,2.6543294422437957e-05
-0.45760541189579274,-0.45760541189579274,1.0000675966686299,2.5994314005673228e-05
-0.4570121516816016,-0.4570121516816016,0.9992226092533093,2.6335601341719493e-05
-0.45673471242821506,-0.45673471242821506,1.0000184529477976,2.6774245260320308e-05
-0.45636446615530984,-0.45636446615530984,1.0000002740527079,2.677937993737601e-05
-0.4561207453122279,-0.4561207453122279,1.000033551879521,2.6558679257413034e-05
-0.455797768243383,-0.455797768243383,0.9999812132154222,2.6209544009433583e-05
-0.45539477439510845,-0.45539477439510845,0.9999708599614573,2.6733441131202957e-05
-0.4550148462729339,-0.4550148462729339,0.9999356976015032,2.6439752991978044e-05
-0.45474098909567146,-0.45474098909567146,0.9999618677016213,2.7040278701069823e-05
-0.45448222732984506,-0.45448222732984506,1.0004513045212524,2.638453503378883e-05
-0.45400319386844784,-0.45400319386844784,1.00000295690179,2.6685481888634813e-05
-0.4535042814149165,-0.4535042814149165,1.0000193731693463,2.7075322125426496e-05
-0.45300210613872877,-0.45300210613872877,1.0001706484979653,2.6759794562565613e-05
-0.4524867401806659,-0.4524867401806659,1.0000857680293955,2.6215001944915165e-05
-0.45205132590185715,-0.45205132590185715,0.9999041607424053,2.629313571249776e-05
-0.4513794676443467,-0.4513794676443467,0.9998335038915449,2.6341644522900536e-05
-0.45096980985467783,-0.45096980985467783,0.9999974929143292,2.6562331584618308e-05
-0.45068321240901243,-0.45068321240901243,0.9999606501638556,2.6727413417235883e-05
-0.45033868514115055,-0.45033868514115055,1.0001005965834504,2.6818766366968017e-05
-0.4501038341627918,-0.4501038341627918,1.0000240571950312,2.6260458661259298e-05
-0.4496988581575806,-0.4496988581575806,1.0001136217740227,2.6190983064244133e-05
-0.44927046601687837,-0.44927046601687837,1.000058639249732,2.6743297099831287e-05
-0.4490012300928356,-0.4490012300928356,0.9999831620913946,2.6720740549429618e-05
-0.44874228459179905,-0.44874228459179905,1.0000307237990131,2.6517610830672132e-05
-0.4483618217021103,-0.4483618217021103,1.0004290290389775,2.685672474236452e-05
-0.447876788873873,-0.447876788873873,1.0000404309387654,2.6760837388437645e-05
-0.4472719434925693,-0.4472719434925693,0.9998884930858976,2.7000893796047752e-05
-0.4468694505636449,-0.4468694505636449,0.9998253948411037,2.6301030996568577e-05
-0.4464226032236184,-0.4464226032236184,1.000020674447541,2.6542115779214877e-05
-0.4457552279324773,-0.4457552279324773,1.0000316303292107,2.5931209518286346e-05
-0.445243025799391,-0.445243025799391,1.0000416169359903,2.661818890680986e-05
-0.4449647090062626,-0.4449647090062626,1.0000024185983438,2.648757353650653e-05
-0.4445800296025027,-0.4445800296025027,0.9999901099291073,2.6883222839796447e-05
-0.4443714540528617,-0.4443714540528617,0.9999653986432688,2.654055190339681e-05
-0.44400129856344395,-0.44400129856344395,1.0000635546076917,2.6404823852114746e-05
-0.44357742278230033,-0.44357742278230033,1.0000318978477873,2.6473559959935064e-05
-0.4432492913963415,-0.4432492913963415,1.000077377768815,2.6725974538513604e-05
-0.4429782501760201,-0.4429782501760201,1.000011376318458,2.6836686512945963e-05
-0.44269589007171817,-0.44269589007171817,1.0004134102399933,2.6585782370559367e-05
-0.44220608938808253,-0.44220608938808253,0.999874366809359,2.6485036671719004e-05
-0.44165842886718565,-0.44165842886718565,0.9999743411364717,2.7275724868262086e-05
-0.4412431245662901,-0.4412431245662901,1.0000546631254696,2.655115276172213e-05
-0.4406626869156753,-0.4406626869156753,1.0000020673313565,2.6221238519266765e-05
-0.4401947426109018,-0.4401947426109018,0.999963907150411,2.6200983223836753e-05
-0.4395642755759127,-0.4395642755759127,1.0000505971357856,2.635126043952652e-05
-0.43920883371397396,-0.43920883371397396,0.9999606031529868,2.6550295612287963e-05
-0.43887626531804924,-0.43887626531804924,1.0000074306769693,2.6774286575129473e-05
-0.4385890459393522,-0.4385890459393522,0.9999756869271863,2.683438221476609e-05
-0.4383073813144165,-0.4383073813144165,0.9999526849376947,2.621729092618974e-05
-0.43792421224470673,-0.43792421224470673,1.0001013668282572,2.6460166841929728e-05
-0.4374892295657446,-0.4374892295657446,0.9999827169523294,2.672820398640578e-05
-0.43723413651487136,-0.43723413651487136,1.0001510322331029,2.676062175774027e-05
-0.4369677719340871,-0.4369677719340871,1.00039847115871,2.6600264746922362e-05
-0.43653417314721993,-0.43653417314721993,1.0000487821269668,2.6759698029090844e-05
-0.43604837757088716,-0.43604837757088716,0.9999252956875917,2.678711126588994e-05
-0.43549465386654446,-0.43549465386654446,1.0003115638775477,2.6952374697228298e-05
-0.4350382159755554,-0.4350382159755554,0.9999005830230855,2.631780190350715e-05
-0.43449935771241144,-0.43449935771241144,0.9999571601494956,2.6524839146855202e-05
-0.43393920961725596,-0.43393920961725596,0.999851028972523,2.595846311683499e-05
-0.4335299064150604,-0.4335299064150604,0.99999550151955,2.6619709458347922e-05
-0.4332515405241793,-0.4332515405241793,1.0000041412781457,2.6490406149420213e-05
-0.43286696336072056,-0.43286696336072056,1.000103530409832,2.6887579500667368e-05
-0.43265837794433537,-0.43265837794433537,0.9999658723895756,2.6538264549856853e-05
-0.4322881654738467,-0.4322881654738467,0.9999836955139461,2.6400995606017074e-05
-0.4318642393652226,-0.4318642393652226,1.0000177669854498,2.647421786021784e-05
-0.43153614837269744,-0.43153614837269744,0.9999578028789589,2.6726065692629675e-05
-0.4312651940697833,-0.4312651940697833,1.0001780282089079,2.6836184429491622e-05
-0.4309827974007476,-0.4309827974007476,1.0005094712267462,2.6587976724802384e-05
-0.4304929600259584,-0.4304929600259584,1.0000354980887398,2.648736771795589e-05
-0.42994525463391253,-0.42994525463391253,1.000029643319921,2.727503305807278e-05
-0.429530130002604,-0.429530130002604,0.9999818970872933,2.655580259609369e-05
-0.4289496007621437,-0.4289496007621437,1.0000491096918167,2.6225306969237092e-05
-0.42837424465187723,-0.42837424465187723,1.0000155095206416,2.6438644679315675e-05
-0.42785121678011817,-0.42785121678011817,0.9999956353520263,2.640987414677904e-05
-0.4275435819352424,-0.4275435819352424,1.0001096991793759,2.6561003376952484e-05
-0.42725676538957486,-0.42725676538957486,1.0000154699749824,2.6727723691674665e-05
-0.4269125117715248,-0.4269125117715248,0.9999534609685821,2.6817162581725488e-05
-0.426677671198604,-0.426677671198604,1.0000461716683229,2.6260450630351233e-05
-0.4262727470266327,-0.4262727470266327,0.9999207991894812,2.6190722740734612e-05
-0.42584411776074377,-0.42584411776074377,1.0000302237102598,2.6742913453103992e-05
-0.4255748995241902,-0.4255748995241902,0.9999813383537972,2.6721978056802642e-05
-0.425316114046791,-0.425316114046791,0.9999278721605933,2.6517560632849332e-05
-0.42493568412382954,-0.42493568412382954,1.0003484212315101,2.6857318949641557e-05
-0.4244504662815416,-0.4244504662815416,0.9998968497489351,2.6756672729115042e-05
-0.4238456419519935,-0.4238456419519935,0.9998448368204709,2.700015801542936e-05
-0.4234435466794366,-0.4234435466794366,1.000041700264734,2.6305095249164482e-05
-0.4228447489697828,-0.4228447489697828,1.0000452624778746,2.6531085474793913e-05
-0.4222917969646005,-0.4222917969646005,0.9999527824431365,2.5947705898261625e-05
-0.4218417235313609,-0.4218417235313609,0.9996770671106596,2.6397794062565293e-05
-0.4215950960180635,-0.4215950960180635,0.999919328862686,2.677601000236947e-05
-0.42122502816300766,-0.42122502816300766,0.9999449879199261,2.6779458244166654e-05
-0.42098156868355546,-0.42098156868355546,0.9999296672168955,2.656176387273134e-05
-0.4206585079014985,-0.4206585079014985,1.0000882330986205,2.6214101724301922e-05
-0.420255264818843,-0.420255264818843,0.9999016032465198,2.673718312056728e-05
-0.41987554314823683,-0.41987554314823683,1.0000064700581746,2.6441783535379712e-05
-0.419601495798679,-0.419601495798679,0.9999393287501223,2.7037203082720463e-05
-0.41927008490274603,-0.41927008490274603,1.0003498273122517,2.6642238236051248e-05
-0.41877983085992126,-0.41877983085992126,0.9999958433599023,2.6489560469370702e-05
-0.4182320806559801,-0.4182320806559801,0.9999967911406438,2.7272942745310378e-05
-0.4178229463379012,-0.4178229463379012,1.0000543947819975,2.6558269903232253e-05
-0.4172112211565036,-0.4172112211565036,1.0000444697659479,2.648054583259314e-05
-0.4165795974849516,-0.4165795974849516,0.9999385592700492,2.6207817485749377e-05
-0.4161382132779181,-0.4161382132779181,1.0001810665396982,2.6415867723554533e-05
-0.4158304683639926,-0.4158304683639926,1.0000411228313557,2.6561161737835397e-05
-0.4155435420978847,-0.4155435420978847,0.9999130657400377,2.6726243939328807e-05
-0.4151994253756584,-0.4151994253756584,1.00004476370132,2.68185496537546e-05
-0.4149645900324231,-0.4149645900324231,0.9998520833478859,2.625928628254513e-05
-0.41455969171429385,-0.41455969171429385,0.9998877471041903,2.6186953333500378e-05
-0.4141309439233737,-0.4141309439233737,0.9999829034225372,2.674395602075013e-05
-0.4138617345127841,-0.4138617345127841,1.0000826275828885,2.6723480839409618e-05
-0.4135755637337297,-0.4135755637337297,1.0004900945520636,2.687994744139232e-05
-0.4131079048865104,-0.4131079048865104,1.0001385360185409,2.67608608037132e-05
-0.41262221452534503,-0.41262221452534503,0.9994212013374417,2.6784064810937768e-05
-0.4120628396199663,-0.4120628396199663,0.9998841208717281,2.678262574254219e-05
-0.4114763972777382,-0.4114763972777382,1.000008627298483,2.6283252891444628e-05
-0.41076232929085565,-0.41076232929085565,1.0000041053296818,2.648330007833305e-05
-0.41038373194164707,-0.41038373194164707,0.9999983091565483,2.6343849681769763e-05
-0.40997391165515185,-0.40997391165515185,0.9999443872297243,2.6560934195069473e-05
-0.40968693049694593,-0.40968693049694593,0.9999144767273392,2.6729988780020898e-05
-0.40937382811193856,-0.40937382811193856,0.9999315002381424,2.6600649103816466e-05
-0.40919157247712973,-0.40919157247712973,1.0000776855617017,2.6264975766849114e-05
-0.4087810590061508,-0.4087810590061508,0.9998491391168166,2.6679632587285238e-05
-0.40843787301405426,-0.40843787301405426,1.0000296342362212,2.6473416440540203e-05
-0.408109862914489,-0.408109862914489,1.0000264611172458,2.672962893355518e-05
-0.40783908255662027,-0.40783908255662027,1.0000008543393546,2.6835523699692752e-05
-0.4074685732255148,-0.4074685732255148,1.0004297383622869,2.683767069104618e-05
-0.40697342170419687,-0.40697342170419687,0.9998854816200605,2.6495269568334773e-05
-0.40638725604721915,-0.40638725604721915,0.9998478534871124,2.7003814924702035e-05
-0.40586618155361975,-0.40586618155361975,0.9999719108830201,2.6564778877689184e-05
-0.4051639668028656,-0.4051639668028656,1.0000811984410862,2.6522141538184572e-05
-0.4047221847187757,-0.4047221847187757,1.0000280885553618,2.5947020690934152e-05
-0.40424710864353985,-0.40424710864353985,1.0006075103611152,2.662900806569035e-05
-0.40396862033021536,-0.40396862033021536,0.9999749198819746,2.6495103723006027e-05
-0.40358429861771583,-0.40358429861771583,0.999954273642472,2.6882404071194437e-05
-0.40337568851709876,-0.40337568851709876,0.9999947282246854,2.6538784241750725e-05
-0.4030436695696153,-0.4030436695696153,0.999999389591876,2.6198008315672938e-05
-0.40277375065925297,-0.40277375065925297,0.999961845645502,2.672311492896332e-05
-0.40234987622975493,-0.40234987622975493,1.0000171629021815,2.67302064476474e-05
-0.40209470799081826,-0.40209470799081826,1.0000495621699244,2.6760564816895716e-05
-0.40178308392878537,-0.40178308392878537,1.0004267436108072,2.6645731157234952e-05
