time,time,flux,flux_err
-0.4990570928377565,-0.4990570928377565,0.9999606363768848,0.00012069154095370247
-0.49763968148909044,-0.49763968148909044,1.0001666867379881,0.00012077905074081382
-0.4959740681209951,-0.4959740681209951,0.9999101051710237,0.00012086199733308583
-0.4943925647705328,-0.4943925647705328,1.0001220942033755,0.00012058508100079511
-0.49289566614897923,-0.49289566614897923,1.0000014203451457,0.00012083750755078263
-0.49097681192361053,-0.49097681192361053,0.9997815634484569,0.0001206804315658873
-0.48838482676801503,-0.48838482676801503,1.0001371569615571,0.00012079973856030431
-0.48719572727713967,-0.48719572727713967,0.99996040959383,0.00012073367513847411
-0.4855434977071127,-0.4855434977071127,1.000077468290494,0.0001224980911302274
-0.48368771395616933,-0.48368771395616933,0.9998322371657524,0.0001208034072433717
-0.48198654977895783,-0.48198654977895783,0.9999141051823919,0.00012059268721019416
-0.47971168688527543,-0.47971168688527543,1.0000454060544066,0.00012066717465262585
-0.4781978118582629,-0.4781978118582629,0.9999024293471448,0.00012072903802038221
-0.476398343515757,-0.476398343515757,1.0000533333690225,0.00012082822485153652
-0.474995218811091,-0.474995218811091,0.9997015523180238,0.00012311146921573714
-0.4733873684963328,-0.4733873684963328,0.999774575385586,0.00012074706305227072
-0.47131096116645493,-0.47131096116645493,1.000005577406739,0.0001209149980933293
-0.46993680238665547,-0.46993680238665547,0.9998510398282441,0.00012071445590356431
-0.46849269038066266,-0.46849269038066266,1.0001669783622407,0.00012203519118654451
-0.4666739899752429,-0.4666739899752429,0.9999398836380692,0.00012080213802679883
-0.46501350867329166,-0.46501350867329166,1.0000427666235563,0.00012045936264024489
-0.4627073060371913,-0.4627073060371913,1.000037468205399,0.00012080532747188674
-0.4611912472260883,-0.4611912472260883,1.000032019735214,0.00012073075193364461
-0.45939422641095007,-0.45939422641095007,0.9998535467083933,0.00012082784597775175
-0.4577909794417792,-0.4577909794417792,0.99999249123192,0.00012060676158191735
-0.4563565715405275,-0.4563565715405275,1.0000331055752276,0.00012087380365997846
-0.454616207217623,-0.454616207217623,0.999904528312195,0.00012080339588039154
-0.4531619181158021,-0.4531619181158021,1.0000244448501483,0.00012073429672490313
-0.4512506932980614,-0.4512506932980614,1.0000207530988563,0.00012150838467033099
-0.4494333647482563,-0.4494333647482563,1.0000919637356813,0.00012092289739110685
-0.44805446369282437,-0.44805446369282437,0.9999588676734967,0.00012046005921695839
-0.4458966253325343,-0.4458966253325343,0.9998548860187487,0.00012071825131194943
-0.4441856755365734,-0.4441856755365734,0.9999564453105723,0.00012072859341500705
-0.44239079639373813,-0.44239079639373813,0.9998294972637805,0.0001208175586082436
-0.44094910213461846,-0.44094910213461846,0.9999974147954152,0.00012069191196816525
-0.4394915398952435,-0.4394915398952435,1.0000754391091242,0.00012074463515252191
-0.43760775868286145,-0.43760775868286145,0.9999873740531919,0.00012082134956754131
-0.4361586634739069,-0.4361586634739069,0.9998385102696645,0.00012057116437408893
-0.4341889234186965,-0.4341889234186965,0.9998405007627161,0.00012071661469768604
-0.43227222606074067,-0.43227222606074067,1.0001498182644581,0.00012089848531957051
-0.4308432737074327,-0.4308432737074327,0.9999883642703289,0.00012059057709305867
-0.428891518599994,-0.428891518599994,1.0001139287096492,0.00012072150203484836
-0.42718108516419306,-0.42718108516419306,1.0001304328120826,0.00012074305043618497
-0.4253879813593812,-0.4253879813593812,0.9999090166331864,0.00012083077678789602
-0.4242078903451329,-0.4242078903451329,0.9997867259563733,0.00012065225923450903
-0.42277823237673146,-0.42277823237673146,1.000159359304411,0.00012081981021238007
-0.42096899161406326,-0.42096899161406326,0.9998841402011387,0.00012066038661105383
-0.41960133441025393,-0.41960133441025393,1.0000753117673675,0.0001207085954616478
-0.4173066789182485,-0.4173066789182485,1.0000750277805919,0.00012072373486657275
-0.415243924765673,-0.415243924765673,0.999975562568215,0.00012086619194874124
-0.4138579070204287,-0.4138579070204287,0.9998779494576093,0.00012057481235685744
-0.4121254859899636,-0.4121254859899636,1.000020072636736,0.00012277717852859148
-0.4104299328639172,-0.4104299328639172,1.0000834421497748,0.00012079198993309822
-0.4085928306420101,-0.4085928306420101,0.9998149950546467,0.00012056540966632161
-0.40626562802499394,-0.40626562802499394,0.9998419971309399,0.00012080606518858968
-0.40481102848716544,-0.40481102848716544,0.9999140206499467,0.00012064556123820905
-0.40316905031504574,-0.40316905031504574,1.0000015401808242,0.0001207781040918654
-0.40155903729173587,-0.40155903729173587,1.0000059286191445,0.0001208305447585999
-0.39939818981511055,-0.39939818981511055,1.0000743416641826,0.00012066604276408362
-0.3977971007101587,-0.3977971007101587,1.0001568364142979,0.00012081456382141893
-0.3966162586773862,-0.3966162586773862,0.9998860593860582,0.00012096474316991419
-0.39506862909620394,-0.39506862909620394,1.0000614490201052,0.0001221315810107522
-0.3934183207267779,-0.3934183207267779,0.999779708490826,0.00012077569793994246
-0.39161530129204036,-0.39161530129204036,0.9999843148832799,0.00012058946592060594
-0.38924744253599786,-0.38924744253599786,0.9999780952386024,0.00012077165909285554
-0.3878141005130601,-0.3878141005130601,1.000150999887628,0.0001206801693183063
-0.38617625740153017,-0.38617625740153017,1.0000111472658442,0.00012077638147479474
-0.3844228455418488,-0.3844228455418488,0.999916259016756,0.0001207356337367701
-0.38308761446969586,-0.38308761446969586,0.9998145763597088,0.00012084034561687473
-0.3812831518880557,-0.3812831518880557,1.0001201927063428,0.00012092863226018631
-0.379889802672551,-0.379889802672551,0.9999450406916841,0.00012057906630928586
-0.37769277548941316,-0.37769277548941316,1.0001311680036737,0.00012169221858220728
-0.37630826490785696,-0.37630826490785696,1.0000626919082367,0.0001208874712899482
-0.37463870022329504,-0.37463870022329504,0.9998679529636647,0.00012057034069626656
-0.37204778668965444,-0.37204778668965444,1.0000282969782623,0.0001207384198887191
-0.37044973998417846,-0.37044973998417846,1.0001687522131026,0.00012062705244896826
-0.3688748920438229,-0.3688748920438229,1.0000083529084178,0.0001208411477028992
-0.3672896751872031,-0.3672896751872031,0.9998764229569158,0.00012076483838057321
-0.36620781379169787,-0.36620781379169787,0.9999263817233986,0.00012079984686980531
-0.3646096340089571,-0.3646096340089571,0.9997524779841506,0.0001208000166504696
-0.3631548174394993,-0.3631548174394993,1.0000113178427918,0.00012057613322282823
-0.3609569663414732,-0.3609569663414732,1.0002807266950373,0.0001211253963715589
-0.3592788861555164,-0.3592788861555164,1.000020356056837,0.00012088440938488388
-0.3578400244223303,-0.3578400244223303,0.9998176858123248,0.00012059536091919563
-0.3562270658701891,-0.3562270658701891,0.9998553900480835,0.0001206769324114436
-0.35444571781554257,-0.35444571781554257,1.0000584953578504,0.00012092545516320666
-0.3530473005375825,-0.3530473005375825,0.9998731512368861,0.00012067388181662788
-0.3516464531858219,-0.3516464531858219,0.9999186069233893,0.00012077580050097994
-0.3502747378166532,-0.3502747378166532,1.000042015734954,0.00012079506151012074
-0.3488053834444145,-0.3488053834444145,0.9998424218853221,0.00012064368281777157
-0.34716118568903764,-0.34716118568903764,0.9999137258695276,0.00012076808503977619
-0.34572318899736276,-0.34572318899736276,1.0000046188498881,0.00012069977234424652
-0.34369230026495645,-0.34369230026495645,0.9998180578802186,0.00012068172612680626
-0.3420087127145962,-0.3420087127145962,1.000232849684958,0.0001208422377861901
-0.3406360974753625,-0.3406360974753625,0.9999222120634645,0.00012064391663087143
-0.33952880849101347,-0.33952880849101347,0.9999876593223339,0.00012314489424646691
-0.33769434309797364,-0.33769434309797364,0.9998179794198405,0.00012080209639722054
-0.3360686763073318,-0.3360686763073318,0.9998180290068494,0.00012082046076940421
-0.3341173480730504,-0.3341173480730504,0.9999069206726195,0.0001207610649502119
-0.33248743821313836,-0.33248743821313836,1.0001370742630158,0.00012069273646492611
-0.33068900198559276,-0.33068900198559276,1.0000977668787496,0.00012077804026569239
-0.3292592320955009,-0.3292592320955009,1.0000443694368168,0.0001207170636070143
-0.3273941559396917,-0.3273941559396917,1.0000512576418112,0.00012075053175049049
-0.32532788923563205,-0.32532788923563205,0.9999947116189432,0.00012092140577743744
-0.3240316656039795,-0.3240316656039795,0.9998603036214032,0.00012063739289749807
-0.3224908125019283,-0.3224908125019283,0.9999173067004593,0.00012213548940216207
-0.32068021547602255,-0.32068021547602255,0.9999642878586344,0.00012080999897506374
-0.31899641097115816,-0.31899641097115816,0.9999454512432358,0.00012058654613773711
-0.31671375549194636,-0.31671375549194636,1.000029689660268,0.0001206592117501192
-0.31519415248185395,-0.31519415248185395,0.9997602777795297,0.00012072701894365479
-0.3133960392617155,-0.3133960392617155,1.0001176738230364,0.00012081917745591537
-0.3118943472552928,-0.3118943472552928,1.0001700938549647,0.00012071571265804395
-0.31050961459695825,-0.31050961459695825,0.9999620922344803,0.00012074009848242768
-0.30862037558545125,-0.30862037558545125,0.9998560591767914,0.00012080010699820024
-0.3071693777354085,-0.3071693777354085,0.9998434003991609,0.00012073091613825629
-0.305495124492154,-0.305495124492154,1.0000451866745184,0.00012184791845566183
-0.3036669597873697,-0.3036669597873697,1.0000304610393225,0.00012081446347276166
-0.30245113823038994,-0.30245113823038994,0.9999978735180063,0.00012056057748230932
-0.2999994155135937,-0.2999994155135937,1.0000109509586586,0.0001206830482939112
-0.2981881257641362,-0.2981881257641362,0.9999404561437155,0.00012073086647948837
-0.2966409444838064,-0.2966409444838064,1.000025583910443,0.00012082601080891188
-0.2952171260403702,-0.2952171260403702,1.000020383157487,0.00012070804755181861
-0.2935961126771872,-0.2935961126771872,1.0000517954725656,0.00012075903853285632
-0.2922579321617377,-0.2922579321617377,1.0001098731057396,0.00012076130699684149
-0.290751954622101,-0.290751954622101,1.000093601337558,0.00012082017838780529
-0.28914596358372363,-0.28914596358372363,0.9997892254772495,0.00012057279099824958
-0.2869302439998137,-0.2869302439998137,1.0000284885460338,0.00012136794946429784
-0.2857683267473476,-0.2857683267473476,1.0001591485022854,0.00012071792602637139
-0.28424118436378193,-0.28424118436378193,1.000076993837363,0.00012065745200231422
-0.2820415226306068,-0.2820415226306068,1.0002973332169973,0.00012074302241842845
-0.28066427001322153,-0.28066427001322153,1.0001545970909915,0.00012073711482577555
-0.279182196923648,-0.279182196923648,0.9999159479178725,0.0001207907338914492
-0.27757373844506217,-0.27757373844506217,0.9999068810930657,0.00012072197544020201
-0.27621119596005883,-0.27621119596005883,1.0002378045682119,0.00012075876416159348
-0.2744069850916276,-0.2744069850916276,1.0000644884939054,0.00012081544966908235
-0.27316779612592657,-0.27316779612592657,1.0001505234584815,0.00012058299780345239
-0.2712598640631768,-0.2712598640631768,0.9999072373314928,0.000120690181613688
-0.26925688029587036,-0.26925688029587036,1.0002417444736296,0.00012089608140237727
-0.2678510396319325,-0.2678510396319325,0.9999309534015355,0.000120573105897847
-0.26638257622835226,-0.26638257622835226,1.0000538906790046,0.00012070115208691118
-0.2644355889686267,-0.2644355889686267,0.9999987229745619,0.00012079724089575842
-0.2627897489059251,-0.2627897489059251,1.0000600846266785,0.00012080974726354149
-0.2613805307439179,-0.2613805307439179,0.9998967148133445,0.00012073604936234795
-0.2597681305647711,-0.2597681305647711,0.9999044565624604,0.0001208001867148758
-0.2579787732363911,-0.2579787732363911,1.0001648607694826,0.00012068378066109353
-0.2566006836656015,-0.2566006836656015,0.9999030135320716,0.00012069267384872521
-0.25430334278644295,-0.25430334278644295,1.0000269586890678,0.00012072053729577914
-0.25222903900867094,-0.25222903900867094,1.0001284293104569,0.00012088517405093224
-0.2508661520041642,-0.2508661520041642,1.0001433914935685,0.00012059169194392732
-0.24912628235179,-0.24912628235179,1.0001349115566116,0.00012229767995779417
-0.24742356987699168,-0.24742356987699168,1.0000947816515453,0.00012079249697664252
-0.2456048136082245,-0.2456048136082245,1.0002407816985384,0.00012058658182572136
-0.24368457200034754,-0.24368457200034754,0.9999941414670053,0.00012079091074833025
-0.2421956846752437,-0.2421956846752437,0.999993775853051,0.00012072680906725019
-0.24039700205466943,-0.24039700205466943,0.9998329284750923,0.00012080795128217084
-0.23889591757179005,-0.23889591757179005,0.9999907585316452,0.00012069793227003145
-0.23700075422239025,-0.23700075422239025,0.9998430213228776,0.00012070446312657244
-0.235299779108027,-0.235299779108027,0.9999025684338175,0.00012091950424207633
-0.2339334195450647,-0.2339334195450647,1.0000673091169916,0.00012072841469555544
-0.23249405004899018,-0.23249405004899018,0.9998039168361142,0.00012193221207409091
-0.23066993992397328,-0.23066993992397328,0.9998890263811114,0.00012080621507992292
-0.22902601184614468,-0.22902601184614468,1.0001274487009344,0.00012047613260739772
-0.2267021171792294,-0.2267021171792294,0.9999621839688173,0.00012078856406910075
-0.2251894267159514,-0.2251894267159514,0.9999967384369033,0.00012072556232278692
-0.22339310458046385,-0.22339310458046385,1.000138711723612,0.00012083441084939989
-0.2217946258300799,-0.2217946258300799,0.9999571281334925,0.00012061130480018833
-0.22034802015987226,-0.22034802015987226,0.9999460956160602,0.00012081192249797735
-0.21861351808620383,-0.21861351808620383,0.9999845352542275,0.00012080546585969593
-0.21715705831011292,-0.21715705831011292,0.9997911269138869,0.00012070993799772512
-0.21525827990844845,-0.21525827990844845,0.9999942214254419,0.0001213073776758576
-0.21344755189493297,-0.21344755189493297,1.0000213941145195,0.00012211772705220358
-0.21246547229238785,-0.21246547229238785,0.9999579059579528,0.0001206251011761887
-0.2103565299854381,-0.2103565299854381,1.0003170775381882,0.0001205897843952475
-0.20846515141165584,-0.20846515141165584,0.999929342518751,0.00012092264057515056
-0.20703764748468528,-0.20703764748468528,0.9999331058354535,0.00012066580102494818
-0.20560190925461938,-0.20560190925461938,0.9998339632538336,0.00012066860515216825
-0.20399673517531483,-0.20399673517531483,1.0000702910143044,0.00012083884916107673
-0.20236541551130358,-0.20236541551130358,0.9999552589949084,0.00012070736394105338
-0.20073325493576705,-0.20073325493576705,0.9998375330833218,0.00012079479241767959
-0.1989830037622596,-0.1989830037622596,0.9999346379740676,0.000120558190736624
-0.19639275240479037,-0.19639275240479037,1.0000525998293366,0.00012080176154205618
-0.19521264065551805,-0.19521264065551805,1.0000023816647567,0.0001207328841173029
-0.19338137603772337,-0.19338137603772337,1.0000331137543301,0.00012057642961840128
-0.19143848540261388,-0.19143848540261388,1.0000064859394964,0.00012077465854387807
-0.1896992196154315,-0.1896992196154315,0.9998507267334868,0.0001207760260483737
-0.18798397234641015,-0.18798397234641015,0.9999109014991433,0.00012076026564561136
-0.18648448535823264,-0.18648448535823264,0.9999750459269375,0.00012069508875011556
-0.1846885347738862,-0.1846885347738862,1.000052109754987,0.00012076751344677525
-0.18326135078095832,-0.18326135078095832,1.000110312947682,0.0001207053086135594
-0.18072079704434146,-0.18072079704434146,1.0000489746357113,0.00012071714773974243
-0.17899301139259477,-0.17899301139259477,0.9999313691110379,0.00012082721948361438
-0.17757093685795552,-0.17757093685795552,1.0000083904551382,0.00012061922004655864
-0.17568430538085522,-0.17568430538085522,0.9998377281726591,0.00012249128967819125
-0.17417654574965127,-0.17417654574965127,1.0000764536639373,0.0001207133086308424
-0.17215981747431214,-0.17215981747431214,0.9999073236498486,0.00012055722079136167
-0.16994856918026927,-0.16994856918026927,0.9999807945528385,0.0001208473588132216
-0.16841524437768385,-0.16841524437768385,1.0001335030960021,0.0001205669279071126
-0.16688689945149235,-0.16688689945149235,1.0000270104151645,0.00012082825086722527
-0.16526317452517106,-0.16526317452517106,1.0000404280195732,0.00012078704511413063
-0.16290121978527167,-0.16290121978527167,1.0000276165642403,0.00012079686236337282
-0.16151338382333053,-0.16151338382333053,0.9998002003317963,0.00012070504926961118
-0.1601362371016876,-0.1601362371016876,1.0000610812672903,0.00012076509267189514
-0.15827120039612055,-0.15827120039612055,1.0001379242632202,0.00012207645632686018
-0.15684977891505697,-0.15684977891505697,0.9999803645199254,0.00012069240076628525
-0.15469319760450162,-0.15469319760450162,0.9999719247764223,0.00012065426930602931
-0.15273675368807743,-0.15273675368807743,0.9999529245465082,0.0001208119727079847
-0.15101264117693064,-0.15101264117693064,1.0002719065880887,0.00012069204230753347
-0.14960041577433003,-0.14960041577433003,0.9999188437846284,0.0001206784302233822
-0.1478164393643965,-0.1478164393643965,1.0002053182152513,0.00012081294660256656
-0.14626479590078817,-0.14626479590078817,0.9999395084780225,0.00012077968265468677
-0.14476344562863233,-0.14476344562863233,1.0001772886760505,0.00012081785719222538
-0.14313999711885117,-0.14313999711885117,1.0000050272653733,0.00012058998237712411
-0.14093581307970454,-0.14093581307970454,1.0001156092535932,0.00012168641838658204
-0.13977022829349153,-0.13977022829349153,0.9999738910525485,0.00012071674598861477
-0.13790891733951866,-0.13790891733951866,0.99994895065617,0.0001205759439193773
-0.13572025565517834,-0.13572025565517834,0.999817028413305,0.0001208147419909633
-0.13430824638344346,-0.13430824638344346,1.0000453417718935,0.00012065027942751982
-0.1328729231565376,-0.1328729231565376,1.0002160657600094,0.00012083717142709509
-0.13128498611913528,-0.13128498611913528,0.999967230611652,0.0001207787102032312
-0.1298028819990577,-0.1298028819990577,0.999812002254877,0.00012065684550607203
-0.12798455961456057,-0.12798455961456057,0.9997500569202348,0.00012086802166732841
-0.12657101452641656,-0.12657101452641656,1.000036796370004,0.00012061215696271505
-0.12364825446275063,-0.12364825446275063,0.9997452633712118,0.00012081143063545991
-0.12247220829885919,-0.12247220829885919,1.0000601463186323,0.00012060858638025774
-0.12090583054960007,-0.12090583054960007,1.0000909979110264,0.00012067936702766706
-0.11870463698287495,-0.11870463698287495,0.9999008398532613,0.00012081325243062108
-0.1170538146427134,-0.1170538146427134,1.0001789007132889,0.00012068511993520608
-0.11564191993529675,-0.11564191993529675,0.9998491020670311,0.00012077128549903397
-0.11427031728526345,-0.11427031728526345,1.0001898880485214,0.00012079880080974015
-0.11280664861842524,-0.11280664861842524,0.9999927397899766,0.0001206509304162993
-0.11116304346651304,-0.11116304346651304,1.0004073036309087,0.00012079427779831999
-0.1095583090762375,-0.1095583090762375,1.0001718706175258,0.00012074869647219002
-0.10663718851137674,-0.10663718851137674,0.9999320159068065,0.00012080389366911244
-0.10548181564518018,-0.10548181564518018,1.0001680503088384,0.00012061296312316034
-0.1039062487470801,-0.1039062487470801,0.9999300051190053,0.00012066315666702066
-0.10196564444486285,-0.10196564444486285,0.9999855171728953,0.00012279087170805267
-0.10048294722801074,-0.10048294722801074,1.0000218668493077,0.00012061084295606305
-0.09811586330761202,-0.09811586330761202,1.0002100182094589,0.00012065820299456996
-0.09648760762356687,-0.09648760762356687,0.9999995855034509,0.00012077892238611515
-0.09468941928644199,-0.09468941928644199,1.0000692576436139,0.00012077966142440313
-0.09325793041352881,-0.09325793041352881,0.9997196450868835,0.00012069229434963069
