time,time,flux,flux_err
-0.49995400979726884,-0.49995400979726884,1.0000177225165905,9.261615231817406e-05
-0.4997884371053563,-0.4997884371053563,0.9999828665316673,8.867553070446341e-05
-0.4995741722668754,-0.4995741722668754,0.9999510901614314,9.066957599148168e-05
-0.49939308235188945,-0.49939308235188945,0.9999060889413016,8.512083728815471e-05
-0.49924982502998316,-0.49924982502998316,0.9999540036564551,8.065895159712072e-05
-0.49914021630975186,-0.49914021630975186,0.9999853375091201,8.694518758199332e-05
-0.4989589897435508,-0.4989589897435508,0.9998501646225497,8.294284646611273e-05
-0.4987982622347772,-0.4987982622347772,0.9999867891536299,8.375492718209801e-05
-0.49868899528955807,-0.49868899528955807,1.0000606659677989,8.236448384462196e-05
-0.49859400491113776,-0.49859400491113776,0.9999871780051379,8.405493150403732e-05
-0.4984247116444749,-0.4984247116444749,0.9999197736337798,8.477151848845831e-05
-0.4983540953340707,-0.4983540953340707,1.0000370379352286,8.020831784683159e-05
-0.49825971483514875,-0.49825971483514875,1.0000814605150785,8.262479236473303e-05
-0.49811420547193846,-0.49811420547193846,1.0000713416392497,8.428938503436562e-05
-0.4979028793357429,-0.4979028793357429,1.0000791507158346,8.374823282080278e-05
-0.49776597894669977,-0.49776597894669977,1.000053722643426,8.456767109114392e-05
-0.4976445509251789,-0.4976445509251789,1.0000068815703713,8.363545519134869e-05
-0.4974831990839448,-0.4974831990839448,1.0001399508948343,8.29730058994992e-05
-0.49742007258028026,-0.49742007258028026,0.9999032964790094,8.196358814097103e-05
-0.49731082006765065,-0.49731082006765065,1.0000209155980533,8.337567980208059e-05
-0.49710986411519115,-0.49710986411519115,0.9998584850518,8.214729212562115e-05
-0.4969208689624793,-0.4969208689624793,1.0000310332865374,8.520954026397695e-05
-0.4968028661169228,-0.4968028661169228,0.9998944889083848,8.490058018997934e-05
-0.4966592825585394,-0.4966592825585394,0.9999652232592424,8.076012713066115e-05
-0.49658098040235926,-0.49658098040235926,1.0000297812469607,8.692148534262945e-05
-0.49641547276551135,-0.49641547276551135,1.0000932083273,8.170594910291394e-05
-0.4962608169240411,-0.4962608169240411,1.000077292739369,8.532401019374622e-05
-0.4961352657686803,-0.4961352657686803,0.9999591830863188,8.320990757033878e-05
-0.49606959429365816,-0.49606959429365816,0.9999321729842938,8.256208973716133e-05
-0.49585990183841205,-0.49585990183841205,0.9998912862857893,8.546085284044044e-05
-0.49579377357731574,-0.49579377357731574,0.9999699987136458,8.06381326138439e-05
-0.495707483147271,-0.495707483147271,1.0000187270024345,8.127535049859588e-05
-0.49559281998663207,-0.49559281998663207,1.0000584787103834,8.47380150360502e-05
-0.4954218244267395,-0.4954218244267395,1.0000765824501854,8.364809893740786e-05
-0.4952805164444726,-0.4952805164444726,1.0000654036447976,8.388179125532928e-05
-0.49516079845343486,-0.49516079845343486,0.999964849352628,8.457611595701626e-05
-0.4950476722646272,-0.4950476722646272,0.9998214511379973,8.33660560918856e-05
-0.4948962972644949,-0.4948962972644949,1.0000196151831267,8.273707478611219e-05
-0.4948164200730389,-0.4948164200730389,0.9999899599079953,8.148285249323333e-05
-0.4946204846826731,-0.4946204846826731,1.000018897770739,8.438147190038322e-05
-0.4943786366202403,-0.4943786366202403,1.0000683187325214,8.203906575489565e-05
-0.4942627916287165,-0.4942627916287165,1.000006112365449,8.272333104977735e-05
-0.49414412924379575,-0.49414412924379575,1.0000107755882002,8.514978774051001e-05
-0.49403268176392884,-0.49403268176392884,1.0000334816828744,8.488065524009557e-05
-0.49395796883763976,-0.49395796883763976,1.0000990254976763,8.088931489189037e-05
-0.49378961254406023,-0.49378961254406023,1.0000600877428005,8.293020140809164e-05
-0.4936060780470143,-0.4936060780470143,1.0000428298393935,8.655957546247507e-05
-0.49353710415016394,-0.49353710415016394,0.9999303686810329,8.187362025160915e-05
-0.4933920237686834,-0.4933920237686834,0.9998867428698827,8.322144079923387e-05
-0.49324480858776953,-0.49324480858776953,0.9999645823733351,8.208934925717917e-05
-0.49320062969927675,-0.49320062969927675,0.9999487135481651,8.097483508643358e-05
-0.49308857029973296,-0.49308857029973296,1.0000989020921058,8.226257450178598e-05
-0.49293461424822455,-0.49293461424822455,1.0000552429448495,8.394986458764756e-05
-0.49275145496358164,-0.49275145496358164,1.0000946197300178,8.425231784501557e-05
-0.49262250519677764,-0.49262250519677764,1.0000555757635514,8.468316572870718e-05
-0.49255784907290945,-0.49255784907290945,0.999961471705161,8.263712857075718e-05
-0.4923838442598935,-0.4923838442598935,1.0000879935434044,8.296481705561192e-05
-0.49229814078862544,-0.49229814078862544,1.0000606243914394,8.28368809835354e-05
-0.49217450932774226,-0.49217450932774226,0.9999343910763206,8.507910401777945e-05
-0.49199372093717103,-0.49199372093717103,1.0000226031759194,8.118817049340651e-05
-0.4918032873683842,-0.4918032873683842,1.0001060488332154,8.227759392943741e-05
-0.4916699077701196,-0.4916699077701196,0.9999183809429771,8.504049883087583e-05
-0.49153639767027923,-0.49153639767027923,1.000053242851455,8.138731968491032e-05
-0.4914391095371684,-0.4914391095371684,1.0000245126953184,8.49715498131943e-05
-0.49129955461685315,-0.49129955461685315,0.9999211349638367,8.199486907776848e-05
-0.49111272546288093,-0.49111272546288093,0.9998997902415002,8.528003676681035e-05
-0.49097764560137874,-0.49097764560137874,1.0002175278101806,8.167047216515141e-05
-0.4908905427524587,-0.4908905427524587,1.000123527704384,8.483433692630995e-05
-0.4906984843022656,-0.4906984843022656,1.0000085442562927,8.205928111266084e-05
-0.4906342751564807,-0.4906342751564807,1.000011747089188,8.121754683325236e-05
-0.4905389289953746,-0.4905389289953746,0.9999501725508381,8.126898790499786e-05
-0.49039711383375106,-0.49039711383375106,1.000018925207263,8.353042818157933e-05
-0.49022148406220367,-0.49022148406220367,0.9999438617992764,8.228372155083328e-05
-0.4901111561106518,-0.4901111561106518,1.0000758712589932,8.44307488379268e-05
-0.49003058157395574,-0.49003058157395574,0.999906166798602,8.454826186993544e-05
-0.48990426313539504,-0.48990426313539504,0.9999050740494007,8.239985525962135e-05
-0.48977662077959394,-0.48977662077959394,1.0000631122890908,8.274268511493554e-05
-0.48964043553132797,-0.48964043553132797,0.9999339545176854,8.30450354322757e-05
-0.4893909699982032,-0.4893909699982032,0.9998899655813537,8.228580121380543e-05
-0.48920452848542484,-0.48920452848542484,1.0000449057695033,8.158816195690406e-05
-0.4890665642029489,-0.4890665642029489,0.9999790062868941,8.344738446206409e-05
-0.4889207195737981,-0.4889207195737981,0.9998207829670458,8.457215216297424e-05
-0.48878582558972994,-0.48878582558972994,0.9999282073911016,8.19417981442182e-05
-0.4886375926434994,-0.4886375926434994,0.9999091257808033,8.266866727894731e-05
-0.4884759258318809,-0.4884759258318809,0.999946162552208,8.583792297548243e-05
-0.4883444944687653,-0.4883444944687653,1.0000442464430965,8.25528189584078e-05
-0.4881536660774145,-0.4881536660774145,1.0000889975595595,8.283359055555728e-05
-0.48807327683171026,-0.48807327683171026,0.9999818444972229,8.04185447477092e-05
-0.48797966473212,-0.48797966473212,1.0000204889230973,8.12668207163356e-05
-0.4878763309388887,-0.4878763309388887,1.0000714178563122,8.39419744490407e-05
-0.4876944464733242,-0.4876944464733242,1.000023369816366,8.318977814142919e-05
-0.48757292343507286,-0.48757292343507286,1.0000176286358176,8.391417351064855e-05
-0.48747699016385015,-0.48747699016385015,0.9999797606695259,8.332617455443892e-05
-0.4873351705507957,-0.4873351705507957,0.9998667993449445,8.439353688709781e-05
-0.48719990371755556,-0.48719990371755556,0.9999110169218703,8.320630274396477e-05
-0.48701107113156467,-0.48701107113156467,0.9999345695365977,8.294166670556664e-05
-0.4867194313075743,-0.4867194313075743,0.9999791046673785,8.246905817955468e-05
-0.48658847600599986,-0.48658847600599986,1.0000550683017342,8.177627012343334e-05
-0.48641950513556365,-0.48641950513556365,1.0000879832646474,8.374662617819065e-05
-0.48624224064551524,-0.48624224064551524,1.0000605650791898,8.533876754903845e-05
-0.4861164640911738,-0.4861164640911738,1.0001637969882302,8.194968063058242e-05
-0.48598802223132226,-0.48598802223132226,0.9998667042522527,8.234746844100317e-05
-0.4858380939389463,-0.4858380939389463,0.99992056558083,8.585971468066758e-05
-0.4857082759044715,-0.4857082759044715,0.9999539487979803,8.345068659679637e-05
-0.4855734873592155,-0.4855734873592155,1.0000538994800934,8.226498456867158e-05
-0.48544438068638557,-0.48544438068638557,1.0000789798386995,8.029130105428184e-05
-0.485359934536973,-0.485359934536973,0.9999139531511535,8.354380123105983e-05
-0.4851607090939069,-0.4851607090939069,1.0000187641086185,8.32775332946347e-05
-0.4850099912917358,-0.4850099912917358,1.00009798612771,8.419727272849015e-05
-0.484901848831214,-0.484901848831214,1.0001297602777532,8.332167314200996e-05
-0.48475781115848804,-0.48475781115848804,0.9999649094851346,8.414901564795258e-05
-0.4846526708177407,-0.4846526708177407,1.000141020017017,8.28637991555169e-05
-0.48447318241524046,-0.48447318241524046,1.000111841709293,8.402591251795682e-05
-0.48424118195980553,-0.48424118195980553,0.999994476351547,8.126608851751235e-05
-0.48406974449462725,-0.48406974449462725,1.0000918064401698,8.186585351885727e-05
-0.48394781245442575,-0.48394781245442575,1.0000219165791746,8.225602230180196e-05
-0.4837382270517992,-0.4837382270517992,0.9998954506940286,8.543696842544484e-05
-0.4836159796090215,-0.4836159796090215,0.9999766401258908,8.109916098176425e-05
-0.48350471956655383,-0.48350471956655383,1.000039599311608,8.237776104750126e-05
-0.4833458445573342,-0.4833458445573342,1.00000916248929,8.252293915603459e-05
-0.48319207589520374,-0.48319207589520374,1.0000492821602145,8.254134714316283e-05
-0.48307524142583136,-0.48307524142583136,1.0000136838704035,8.281392745425071e-05
-0.48292043020192066,-0.48292043020192066,1.0002051914872854,8.145120759409388e-05
-0.4828443284306559,-0.4828443284306559,1.0000251077925655,8.102947923350497e-05
-0.4826863018082804,-0.4826863018082804,0.999891677487881,8.363957364130776e-05
-0.4825157689585467,-0.4825157689585467,1.0001138263987392,8.203146102092317e-05
-0.48238067209749713,-0.48238067209749713,1.0001593320940878,8.340477579848882e-05
-0.48222708112734836,-0.48222708112734836,1.000087468997536,8.431401190209387e-05
-0.48208449769444994,-0.48208449769444994,0.9998987023512766,8.314948914960468e-05
-0.48184423170023366,-0.48184423170023366,0.9999217723781009,8.383180671054602e-05
-0.4815886863012565,-0.4815886863012565,0.9999417557777635,8.224481216627685e-05
-0.48141802418249424,-0.48141802418249424,0.9999981115250203,8.174030673395887e-05
-0.48122591479477705,-0.48122591479477705,0.9999046682058929,8.534978785582896e-05
-0.4810543259212864,-0.4810543259212864,1.0002312453478084,8.206375673372183e-05
-0.48094289633299925,-0.48094289633299925,0.999980819924302,8.265467852389675e-05
-0.4808362795301946,-0.4808362795301946,1.0000236047601478,8.355598921673803e-05
-0.48060580893652516,-0.48060580893652516,1.0000959475821294,8.294783694448341e-05
-0.48051336460921446,-0.48051336460921446,1.00004726477065,8.265622761876984e-05
-0.48031071777804757,-0.48031071777804757,0.9999895776855439,8.208109589900957e-05
-0.48023947309993675,-0.48023947309993675,1.0000873887449038,8.073987675271798e-05
-0.48006608752039026,-0.48006608752039026,0.9999332085532924,8.400956995748904e-05
-0.4799298303798423,-0.4799298303798423,0.9999874978039649,8.07763433201656e-05
-0.4798393460267107,-0.4798393460267107,0.9999091732703382,8.450206803150534e-05
-0.47971481504355323,-0.47971481504355323,0.9999857275574542,8.370294519208287e-05
-0.4796105933812214,-0.4796105933812214,1.0000277036854937,8.27417957670635e-05
-0.47936916659527923,-0.47936916659527923,1.0000594709904969,8.211556380482928e-05
-0.47917631254094883,-0.47917631254094883,1.0001790186677124,8.40102518260985e-05
-0.4789675309250015,-0.4789675309250015,1.0000922454940953,8.228963467927987e-05
-0.47879019801330286,-0.47879019801330286,0.9999789872121665,8.284491203955498e-05
-0.47858013254735854,-0.47858013254735854,0.9999237743088394,8.47317007892801e-05
-0.47847191449109233,-0.47847191449109233,0.9999999134007856,8.284674859714757e-05
-0.4783240019809455,-0.4783240019809455,1.0000430545495214,8.220439929143523e-05
-0.4781048328921315,-0.4781048328921315,0.9999864467760154,8.371197214240249e-05
-0.47796136679971823,-0.47796136679971823,1.0001470410872841,8.263526758106916e-05
-0.4777613417143584,-0.4777613417143584,1.0000465871307198,8.2349805990734e-05
-0.47764448063244347,-0.47764448063244347,0.9999047189666592,8.072545860598801e-05
-0.4774733055382967,-0.4774733055382967,0.9999713380938783,8.399353504024633e-05
-0.4773553869163152,-0.4773553869163152,1.0000865268316432,8.270583476645545e-05
-0.47725749685341723,-0.47725749685341723,0.9999973492597325,8.354981498867654e-05
-0.47711037596018285,-0.47711037596018285,1.0001378411981887,8.329370697454952e-05
-0.4769800302703516,-0.4769800302703516,0.9999813176898037,8.391300039888197e-05
-0.4767526628551423,-0.4767526628551423,0.9999847401870541,8.319003946879077e-05
-0.47654802725301126,-0.47654802725301126,1.0000859395968766,8.210324650828209e-05
-0.4763792713856674,-0.4763792713856674,1.0002100422488938,8.16822224657431e-05
-0.47617336981929836,-0.47617336981929836,1.0000215231708325,8.337952407515284e-05
-0.47600762141664743,-0.47600762141664743,1.0001029604376608,8.560687898592095e-05
-0.47589874516124836,-0.47589874516124836,1.000025699931688,8.18178734112466e-05
-0.4757861482692533,-0.4757861482692533,1.0000745056559113,8.272301669921226e-05
-0.47566950718755835,-0.47566950718755835,1.0001451880178516,8.317319158558805e-05
-0.4754948321613483,-0.4754948321613483,1.0001319551500265,8.253560605920964e-05
-0.47539960927970243,-0.47539960927970243,1.0000970298711327,8.196188250562973e-05
-0.4752061144070467,-0.4752061144070467,0.9999541380247475,8.239989120084592e-05
-0.47507852962298786,-0.47507852962298786,1.000032902861241,8.053239403755209e-05
-0.47495430704439057,-0.47495430704439057,1.0000555590347993,8.398677579584759e-05
-0.47483223276067293,-0.47483223276067293,0.999969649307434,8.301687470459125e-05
-0.47473532205913216,-0.47473532205913216,1.0000189931763883,8.15537496984482e-05
-0.4746222236484755,-0.4746222236484755,0.9998112158526826,8.250832783479268e-05
-0.4744963313860353,-0.4744963313860353,1.000036948664798,8.383958778211751e-05
-0.4743177469616057,-0.4743177469616057,1.0000681872381398,8.241506393797732e-05
-0.4741182845988078,-0.4741182845988078,0.9999508912839772,8.296782804391239e-05
-0.47396632571617375,-0.47396632571617375,1.0001052485486444,8.118522199611293e-05
-0.4738745277936687,-0.4738745277936687,0.9999749306693436,8.070340051246293e-05
-0.4737075328739593,-0.4737075328739593,0.9998476251865464,8.287098576563859e-05
-0.4735306309929001,-0.4735306309929001,1.0001088855986264,8.321810519296401e-05
-0.4734027036218322,-0.4734027036218322,1.0000593658737653,8.460802661433334e-05
-0.4733006791284424,-0.4733006791284424,0.9999902649304697,8.171972671638846e-05
-0.473197822298971,-0.473197822298971,1.000024745527047,8.146601275775179e-05
-0.4730020016111666,-0.4730020016111666,1.0000502563716884,8.27433230394626e-05
-0.4728480636898894,-0.4728480636898894,1.0000076753381983,8.20684500207893e-05
-0.47274421614420137,-0.47274421614420137,1.0001121557654469,8.196332967933947e-05
-0.472594257183664,-0.472594257183664,0.999924535535032,8.207217132560095e-05
-0.4724798970390111,-0.4724798970390111,1.0000382929975797,8.249536144761111e-05
-0.4722898906140472,-0.4722898906140472,1.0000111197058075,8.394689772812738e-05
-0.47216427677049067,-0.47216427677049067,1.0000635759124965,8.166653773589651e-05
-0.4720604898102465,-0.4720604898102465,1.0000900276218923,8.388863976147833e-05
-0.47193000242550626,-0.47193000242550626,1.0000273552707193,8.381640970801832e-05
-0.4718245351614314,-0.4718245351614314,1.0000833216845089,8.289422672203829e-05
-0.4716398408869281,-0.4716398408869281,1.0000074497815459,8.440071168616588e-05
-0.47139246928854844,-0.47139246928854844,1.0001161880619194,8.223616359983912e-05
-0.47128662558097856,-0.47128662558097856,0.9998556495478356,8.073873341792517e-05
-0.4711291076921043,-0.4711291076921043,1.0001582808072214,8.19602631107806e-05
-0.47094962180271976,-0.47094962180271976,0.9999409646355673,8.550249154910967e-05
-0.4708240053980262,-0.4708240053980262,1.0000006599472364,8.455989936438825e-05
-0.4707138217796455,-0.4707138217796455,0.9999674121301657,8.175463080047608e-05
-0.4706455245410325,-0.4706455245410325,1.0001610734412998,8.128559778170408e-05
-0.47049444642616434,-0.47049444642616434,1.0000851043180736,8.196241942703268e-05
-0.4702716805564705,-0.4702716805564705,0.9999915737213716,8.268487860435334e-05
-0.47011582005070524,-0.47011582005070524,0.9999840512185394,8.262753016711829e-05
-0.46997071113582933,-0.46997071113582933,1.000024970145588,8.175739784956174e-05
-0.46985822623973944,-0.46985822623973944,0.9999288800064496,8.29042757330702e-05
-0.469685340563592,-0.469685340563592,0.9999857949699198,8.258670757272755e-05
-0.46959572731720983,-0.46959572731720983,0.9998700632652315,8.176403247092708e-05
-0.4695078960226965,-0.4695078960226965,1.0000863128516575,8.272392241321177e-05
-0.46940070199780165,-0.46940070199780165,1.000105690753486,8.283432321729718e-05
-0.4692381116110482,-0.4692381116110482,0.9999906384720489,8.43651545979052e-05
-0.46896826598094776,-0.46896826598094776,0.9999470059085054,8.39259830325059e-05
-0.4688186739149387,-0.4688186739149387,1.000054301798082,8.36472458786778e-05
-0.4686801045376342,-0.4686801045376342,1.000155767433419,8.174004424574784e-05
-0.46843306766531895,-0.46843306766531895,0.9999597604348998,8.260937525373663e-05
-0.4682905518726329,-0.4682905518726329,0.9999300932982594,8.483433679979483e-05
-0.4681578199219075,-0.4681578199219075,0.9999012607497795,8.245661873358578e-05
-0.46807241225178586,-0.46807241225178586,1.0000741080301723,8.052728017516362e-05
-0.4679261670971755,-0.4679261670971755,1.0001647123815176,8.410211865017428e-05
-0.4677462595049292,-0.4677462595049292,1.0000047979997535,8.275034367348737e-05
-0.46766429540148235,-0.46766429540148235,1.0001498160721982,8.178684557645459e-05
-0.467525561102957,-0.467525561102957,1.0000885957817673,8.25284002343362e-05
-0.46741073250595944,-0.46741073250595944,0.9999528249406913,8.268752088158478e-05
-0.4671937955747126,-0.4671937955747126,1.0001120938110444,8.335460957629043e-05
-0.4670551884570159,-0.4670551884570159,1.000101847397368,8.17467036199372e-05
-0.46695156497735296,-0.46695156497735296,1.0000223748395316,8.161101225857752e-05
-0.4668478113642777,-0.4668478113642777,1.0000493061707807,8.192432292655346e-05
-0.4666576318762964,-0.4666576318762964,0.9999373659525539,8.416415858562124e-05
-0.4664770784249413,-0.4664770784249413,1.0000371515030753,8.118330582380402e-05
-0.4663124298604089,-0.4663124298604089,1.0000074157567265,8.508667769288807e-05
-0.4662353536070441,-0.4662353536070441,0.9999900598653572,8.188187135412404e-05
-0.4660828876090818,-0.4660828876090818,0.9998228684541035,8.18756544905919e-05
-0.4658742115294444,-0.4658742115294444,1.000042301294923,8.26125937551983e-05
-0.4657326901899069,-0.4657326901899069,0.9998408173192699,8.76733243462367e-05
-0.4656258372371667,-0.4656258372371667,1.0000576248045836,8.175360060853167e-05
-0.46554662724083756,-0.46554662724083756,1.0000373248823895,8.05949336511528e-05
-0.46544944820489037,-0.46544944820489037,0.9999422512144944,8.139570509307554e-05
-0.4652800542433397,-0.4652800542433397,0.9998178004856456,8.174782087359645e-05
-0.4651192647390417,-0.4651192647390417,0.9998643044108458,8.285564725001654e-05
-0.46497368221898794,-0.46497368221898794,0.9998266292712321,8.250523412397582e-05
