time,time,flux,flux_err
-0.49927785448380746,-0.49927785448380746,1.0001251859406457,0.0001193031319927075
-0.49690645388618576,-0.49690645388618576,1.0000857140972876,0.00011939254612051028
-0.495596871493035,-0.495596871493035,0.9998673181658859,0.00011917416947687892
-0.49452873193949926,-0.49452873193949926,1.0001639271421985,0.00011919908225393054
-0.4935270381422015,-0.4935270381422015,1.000015451896602,0.00011902170172876925
-0.4922025024279719,-0.4922025024279719,1.0000094974829221,0.00011943555107700736
-0.4910667033516802,-0.4910667033516802,1.0000420145571098,0.0001190229490599423
-0.4899848827451933,-0.4899848827451933,0.9998773431579098,0.00011923063976639441
-0.4881390363618266,-0.4881390363618266,1.0000470543358468,0.000119224813970426
-0.48706931061460634,-0.48706931061460634,1.0000402475605839,0.00011956670349061247
-0.4858056362922071,-0.4858056362922071,0.9999431922999193,0.00011921786631492563
-0.48479703145858366,-0.48479703145858366,0.9998826295312009,0.00012152051735461206
-0.48263399249117356,-0.48263399249117356,0.9998875479027332,0.00011924831836208586
-0.48117643330770077,-0.48117643330770077,0.9998559366790178,0.00011928504303555145
-0.4800798173790099,-0.4800798173790099,1.0000394153475924,0.00011911616713118208
-0.4790084675041726,-0.4790084675041726,1.000086419964621,0.0001189751522821924
-0.4775551045051543,-0.4775551045051543,0.9999951797557692,0.00011940665232622151
-0.47661820556677414,-0.47661820556677414,0.9999361094070857,0.0001189523571384543
-0.47582502181467135,-0.47582502181467135,1.000246723657694,0.00011929089996161667
-0.4738753937272122,-0.4738753937272122,0.9996859027006841,0.0001190426954384804
-0.4727654901274946,-0.4727654901274946,1.0000504365929859,0.0001195918803355789
-0.4716060073347762,-0.4716060073347762,1.0001457432080667,0.00011917643830970087
-0.4706147042888915,-0.4706147042888915,1.000056480387005,0.0001191070835331735
-0.4689311127178371,-0.4689311127178371,0.999963828085382,0.00011926056780161564
-0.46676553823635913,-0.46676553823635913,1.000100743200236,0.00011908175061295799
-0.4658424992172513,-0.4658424992172513,0.9999888201405731,0.00011921927456001695
-0.46468048840470144,-0.46468048840470144,1.0000088515450538,0.00011901286577317863
-0.46348501699103506,-0.46348501699103506,1.0001095739315093,0.00011922952786678211
-0.46208079971256666,-0.46208079971256666,0.9998909419530493,0.00011907076273544221
-0.45983612813579383,-0.45983612813579383,0.9999511273272279,0.00011904076793024625
-0.4584515985159669,-0.4584515985159669,1.0001102447171362,0.00011943543620702266
-0.4571809199405834,-0.4571809199405834,1.0002168486722305,0.00011917572535043944
-0.4558424083079444,-0.4558424083079444,1.000166381935844,0.00011931840914322554
-0.4531907052383758,-0.4531907052383758,1.0000328631677384,0.00011946793954620593
-0.4517995041242102,-0.4517995041242102,1.000063599940004,0.00011916020288738313
-0.45064938826253637,-0.45064938826253637,1.0000408409320267,0.00011908143157091856
-0.44990205046196935,-0.44990205046196935,1.000028747622617,0.00011892474747746148
-0.4481585218280088,-0.4481585218280088,0.999923315984739,0.00011928264920598183
-0.44723805521498433,-0.44723805521498433,1.0003219087835116,0.00011930686825536573
-0.4446924350835616,-0.4446924350835616,1.0001448210352795,0.00011920821238607338
-0.4439337194926338,-0.4439337194926338,0.9998701554416309,0.00011940272043716826
-0.44303804776864125,-0.44303804776864125,0.9999478415731987,0.00011920141314173439
-0.4422343899466796,-0.4422343899466796,0.9999735867819755,0.00011909783013752499
-0.4402045714028645,-0.4402045714028645,0.9998963498196487,0.0001196351813899672
-0.43791509228758513,-0.43791509228758513,0.9999891777643851,0.00011900495291915477
-0.43704458555439485,-0.43704458555439485,0.9999108420967705,0.00011938303179735699
-0.4360749109531753,-0.4360749109531753,1.0000184338149913,0.00011888643864035738
-0.43542964151129127,-0.43542964151129127,1.0001604468630947,0.00011917535855866844
-0.4334261647396488,-0.4334261647396488,1.000259175345058,0.00011903844674770229
-0.4320016398007283,-0.4320016398007283,0.9999196368241199,0.00011911604147954991
-0.4299208412732696,-0.4299208412732696,1.0000638269550683,0.00011927437213573879
-0.4288675825257087,-0.4288675825257087,1.0002338584824635,0.00011945217004479545
-0.4280248004797613,-0.4280248004797613,1.0001188091715714,0.00011912020508165364
-0.42658999176346696,-0.42658999176346696,0.9999336882547165,0.00011950131072078028
-0.4235307179100346,-0.4235307179100346,0.9998130734121998,0.0001188841263811388
-0.42246500684123023,-0.42246500684123023,0.9998002939312757,0.00011916078840575818
-0.4214027946756687,-0.4214027946756687,1.0001131077159953,0.00011901359806616965
-0.4202182884851936,-0.4202182884851936,0.999973897123574,0.0001192054393465934
-0.41846376934845464,-0.41846376934845464,1.000095890720591,0.00011906292473495752
-0.41610113995557185,-0.41610113995557185,0.9999150255129573,0.00011909341148995322
-0.4148981812264537,-0.4148981812264537,0.9999868364051524,0.00011956648339995154
-0.4137830492545618,-0.4137830492545618,1.0000376879330548,0.00011903883287925246
-0.4127814546052832,-0.4127814546052832,0.9999866014844103,0.00011929734088049236
-0.41110208524914926,-0.41110208524914926,1.000082784412502,0.00011912669059699184
-0.4094141743757064,-0.4094141743757064,1.0002575639333942,0.00011919367969547825
-0.4084179399185814,-0.4084179399185814,1.0000667674266035,0.00011880234403640305
-0.4071090881683631,-0.4071090881683631,1.0000915925917007,0.00011928059961324133
-0.4062411305931164,-0.4062411305931164,1.0000054922357773,0.00011912648182182705
-0.4047641429468058,-0.4047641429468058,1.000018948514093,0.0001191489946947202
-0.4041079990798607,-0.4041079990798607,0.9998244613573141,0.0001191171527251382
-0.40249793893890456,-0.40249793893890456,1.0001008159963622,0.00011918010081072231
-0.4010705138061894,-0.4010705138061894,1.0000896872064144,0.0001192728608779937
-0.4001703842601273,-0.4001703842601273,0.9999792015653794,0.00011942148353848393
-0.3991199392272392,-0.3991199392272392,1.0000698434953628,0.00011905248208753275
-0.39785631995473525,-0.39785631995473525,1.0000216847077894,0.00011943943845271128
-0.3960162385221338,-0.3960162385221338,0.9999996385864331,0.00011939238925584613
-0.3947461957402993,-0.3947461957402993,0.9999406584261734,0.00011885531060288315
-0.39331936309463345,-0.39331936309463345,1.0000566647397244,0.00011879398085695458
-0.3923904858645983,-0.3923904858645983,1.000133777342776,0.00011903588980546037
-0.3904308068245882,-0.3904308068245882,0.9999830195734782,0.00011915747388604335
-0.38920670029183385,-0.38920670029183385,1.000104135932784,0.0001195379177625275
-0.3875379402510589,-0.3875379402510589,1.000038731994157,0.0001191074961805799
-0.3863585673418129,-0.3863585673418129,0.9999866463788573,0.00011936184721642784
-0.385676147864433,-0.385676147864433,0.9998363267523744,0.000119331127503228
-0.3847073937038658,-0.3847073937038658,0.9999459348886374,0.00011896863912367059
-0.3837876384030096,-0.3837876384030096,0.9999537542725871,0.00011949884383657824
-0.3817898129404057,-0.3817898129404057,0.999957624572921,0.0001193439321298402
-0.38103444197622593,-0.38103444197622593,0.9999465896620313,0.00011954563749066943
-0.3799481045774883,-0.3799481045774883,1.000082963010961,0.00011892230447617558
-0.3786492496554274,-0.3786492496554274,1.0000146447506086,0.00011878857200742746
-0.37796710042166526,-0.37796710042166526,1.0000125534549908,0.00011902771684488174
-0.3766890240367502,-0.3766890240367502,1.000089689966112,0.00011934901214662218
-0.3755545573483687,-0.3755545573483687,1.000061316248104,0.0001190616390142908
-0.3736869438464055,-0.3736869438464055,0.999910791469615,0.00011922419886727289
-0.37265798122389243,-0.37265798122389243,0.9999761025159513,0.00011923514450992931
-0.3714801588183036,-0.3714801588183036,1.0001050642626574,0.00011944173845853108
-0.37038072338618805,-0.37038072338618805,0.9998332007479013,0.00011905000124981557
-0.36891957686457316,-0.36891957686457316,0.9999091011650254,0.00011920389694940894
-0.3670801370288245,-0.3670801370288245,0.9999950863579832,0.00011944998732983134
-0.3658599144197069,-0.3658599144197069,1.0001223800407777,0.00011896302660822668
-0.364495252809138,-0.364495252809138,0.9998610195969887,0.00011885805948755765
-0.36360620101040697,-0.36360620101040697,1.0001144982824415,0.00011899498181569684
-0.36242104520497376,-0.36242104520497376,1.000003472501976,0.00011923445018307329
-0.3609551817120519,-0.3609551817120519,1.000072627466481,0.00011911062036726124
-0.35893990791228136,-0.35893990791228136,0.9999165949506829,0.00011918947908917061
-0.357740191440098,-0.357740191440098,0.9998470922358914,0.00011926805446125801
-0.35671089213574303,-0.35671089213574303,0.9999154528644093,0.00011950322469631177
-0.35606239379849286,-0.35606239379849286,0.9999692010513334,0.00011905249234928565
-0.3553212894446915,-0.3553212894446915,0.9999886786022827,0.00011918883979056453
-0.35420265011489394,-0.35420265011489394,1.0000805248480902,0.00011915725642537602
-0.351768247547443,-0.351768247547443,1.000176349140946,0.0001193079813828168
-0.35006697405478915,-0.35006697405478915,1.0000767507881907,0.00011883980230214633
-0.3491809739614837,-0.3491809739614837,0.9999976193739826,0.0001189925703783159
-0.34777155545307326,-0.34777155545307326,0.9999795579771572,0.00011938090131852193
-0.3463519920274848,-0.3463519920274848,0.9997719958093013,0.00011905491565312749
-0.34461170993745327,-0.34461170993745327,1.000033358689475,0.00011920101943633176
-0.34338013298693115,-0.34338013298693115,0.9999613716878388,0.00011928322170633031
-0.3422371351276524,-0.3422371351276524,1.0001323547851648,0.00011946500345977286
-0.3416102432413027,-0.3416102432413027,0.9999246728954596,0.00011920216208076572
-0.3405690579471411,-0.3405690579471411,1.0000746097661026,0.00011930493376995969
-0.33874502403486983,-0.33874502403486983,1.0001623803227067,0.00011936570439213415
-0.33661220167996364,-0.33661220167996364,1.0000574684338257,0.00011906210946334402
-0.3353098411607789,-0.3353098411607789,0.9998969354520083,0.00011895049410722671
-0.3346970201062504,-0.3346970201062504,0.9999097965500526,0.00011902762060741034
-0.33289837250777055,-0.33289837250777055,0.9998729310382426,0.00011939735933068896
-0.33217603677185253,-0.33217603677185253,1.0001092122968138,0.00011889341847032232
-0.3303882158885244,-0.3303882158885244,1.0000244568963843,0.00011906763112582667
-0.3289227851520991,-0.3289227851520991,0.9998566511409249,0.00011952452501177216
-0.32756623037857935,-0.32756623037857935,1.0001399243200524,0.00011910158608145394
-0.3268456345977029,-0.3268456345977029,0.9998987497468109,0.00011930959986576049
-0.32614257534733043,-0.32614257534733043,1.0000781008342945,0.00011930684645546624
-0.32432990926608907,-0.32432990926608907,0.9999583307376273,0.00011988488927705536
-0.322456813059398,-0.322456813059398,1.0000823606548812,0.00011894952064520482
-0.3207914429425728,-0.3207914429425728,1.0001318874736582,0.00011881587008857688
-0.32027368622366337,-0.32027368622366337,1.0000424780486017,0.00011904423570462842
-0.31934284502931404,-0.31934284502931404,1.0000263819685296,0.0001195969084162753
-0.3180306496360572,-0.3180306496360572,0.9999810848813453,0.00011888004409071986
-0.316876231727656,-0.316876231727656,0.9999869074338132,0.00011938883895573879
-0.3154592009552289,-0.3154592009552289,0.9999496487673774,0.00011912896684248211
-0.31376975920284167,-0.31376975920284167,0.9999393559237291,0.00011940506164369118
-0.3124409204407129,-0.3124409204407129,1.0000215648981432,0.00011922240363008695
-0.31141759945312514,-0.31141759945312514,0.9999509870875929,0.00011969581230733496
-0.3091123250254896,-0.3091123250254896,0.9999583697156176,0.0001194560012869648
-0.3068593606556533,-0.3068593606556533,0.9999923059316599,0.00011878777024745162
-0.30599374394805634,-0.30599374394805634,0.9998315150491907,0.00011906375626467795
-0.3051821265486069,-0.3051821265486069,1.0000165247362245,0.00011926523946649317
-0.3037511732574785,-0.3037511732574785,0.9999744174055186,0.00011906157062716637
-0.302891612338135,-0.302891612338135,0.9999794489885755,0.00011917899327847122
-0.3014503817365039,-0.3014503817365039,0.9999559940451521,0.00011922647094000124
-0.3005952706822427,-0.3005952706822427,1.0001714688797967,0.00011931230471255824
-0.29907121967407874,-0.29907121967407874,1.000172043481904,0.00011928768998594895
-0.2980163495056331,-0.2980163495056331,1.0000468758738914,0.00011922837457772498
-0.2959472960123094,-0.2959472960123094,0.9998600598125558,0.00011943310317868237
-0.29382752870733386,-0.29382752870733386,1.0001258966478548,0.00011903991478228818
-0.29205893843318337,-0.29205893843318337,1.0002198107769593,0.00011880904558096827
-0.2914270534733078,-0.2914270534733078,0.9998687121976184,0.00011902787818996046
-0.2898637010861421,-0.2898637010861421,0.999935755636024,0.00011962236995546478
-0.2889087551069679,-0.2889087551069679,1.0000613397523554,0.00011894452521178677
-0.2872469030407956,-0.2872469030407956,1.0000268056061672,0.00011921172699509917
-0.2863797151047038,-0.2863797151047038,0.9999536868054865,0.00011917587241102969
-0.2848866580199683,-0.2848866580199683,0.9999627807237236,0.00011904496828636902
-0.28360370032605714,-0.28360370032605714,1.0000855213412938,0.00011935379654107254
-0.28237331126001664,-0.28237331126001664,1.0001694568673312,0.00011935794252363745
-0.27980912104249,-0.27980912104249,0.9999569938029742,0.00011929819123161834
-0.27774130503530614,-0.27774130503530614,0.9999449950003816,0.00011921998176051801
-0.27713721032778266,-0.27713721032778266,0.9999255206669769,0.00011898903167890538
-0.27609644932381344,-0.27609644932381344,1.000051840630487,0.00011961064755275255
-0.27475422907155006,-0.27475422907155006,1.0001435578752214,0.00011888010379876337
-0.2728641976922518,-0.2728641976922518,0.9999684348035197,0.00011927875027939209
-0.27196008535393046,-0.27196008535393046,0.9998981457572699,0.00011917899573114852
-0.2710324380692327,-0.2710324380692327,1.0001070282981577,0.0001193382598916758
-0.2694423251203261,-0.2694423251203261,1.0000858416686118,0.00011922090782959878
-0.26799327166518194,-0.26799327166518194,1.0001099554028874,0.00011940409588296433
-0.26520649119338485,-0.26520649119338485,1.0000014751620818,0.00011950829900222494
-0.26384916725510266,-0.26384916725510266,0.9999624195021688,0.00011896778479861516
-0.262804363144096,-0.262804363144096,1.0000680047825508,0.0001192457061717031
-0.2620071983896196,-0.2620071983896196,1.0000814972806258,0.00011942105665998109
-0.2604724887816701,-0.2604724887816701,0.9999283588631049,0.00011905630104694278
-0.2592835801682668,-0.2592835801682668,1.000154253152768,0.00011906818006808377
-0.2574645043030614,-0.2574645043030614,1.0000258891148803,0.0001190375648227877
-0.2559146366518689,-0.2559146366518689,0.9999726966156723,0.00011931625937707847
-0.2546707030182006,-0.2546707030182006,0.9998981064695357,0.00011929230157472768
-0.2533950402750634,-0.2533950402750634,1.000069166217025,0.00011938272104244286
-0.251102919576806,-0.251102919576806,1.0000350549377934,0.00011955993553551254
-0.24994906084029936,-0.24994906084029936,1.0000440326412445,0.00011903241833623404
-0.24860550643934404,-0.24860550643934404,1.0000647369599551,0.00011908010903948964
-0.24801930112589615,-0.24801930112589615,1.0000724099575948,0.00011925770195076275
-0.2468933580967132,-0.2468933580967132,0.999869243265709,0.00011953983451950051
-0.24578542503877543,-0.24578542503877543,1.0000241862435404,0.00011877892438658137
-0.24389445598062592,-0.24389445598062592,1.0002371871033744,0.00011921886752244027
-0.24174150617327542,-0.24174150617327542,1.000103716734873,0.00011945083186304618
-0.24061093083000742,-0.24061093083000742,1.0001244265752716,0.00011920270268127263
-0.23959240954427513,-0.23959240954427513,0.9998596754229736,0.00011952386431688525
-0.238006418113946,-0.238006418113946,0.9996862647335446,0.00011946752294466857
-0.2364349816314643,-0.2364349816314643,0.9998988748935889,0.0001194366380812446
-0.2357414560567122,-0.2357414560567122,0.9999590668104869,0.00011922801796325011
-0.23439011260925327,-0.23439011260925327,0.9999381300958585,0.00011895722547151253
-0.2337322199717164,-0.2337322199717164,1.000117062583176,0.00011907955782538497
-0.23247968122595922,-0.23247968122595922,1.0000001289407148,0.00011963498277681869
-0.23127447302395013,-0.23127447302395013,1.0001414704673661,0.000118971566697732
-0.23007380088674836,-0.23007380088674836,0.9999987944359369,0.0001192046683556842
-0.22798259605187923,-0.22798259605187923,1.0000285806290354,0.00011921702757150383
-0.2263277279707836,-0.2263277279707836,1.0001327016059807,0.00011927131116772122
-0.22543442994065116,-0.22543442994065116,1.0001143364944107,0.00011918322528048762
-0.22393638690118678,-0.22393638690118678,1.0001328806063716,0.00011962815784577424
-0.2222271896491293,-0.2222271896491293,1.0001219661632388,0.00011937958530239138
-0.22133132103190292,-0.22133132103190292,1.0002590377757126,0.00011926698330446024
-0.2200935348344501,-0.2200935348344501,0.9999332446440812,0.00011889791425015523
-0.21925812250410673,-0.21925812250410673,0.9999209137663373,0.00011918423912247139
-0.21771034675766715,-0.21771034675766715,1.000035522632332,0.00011955435103055808
-0.21641467219451443,-0.21641467219451443,1.0001019679635037,0.00011899425076934815
-0.21482812996546272,-0.21482812996546272,1.0000950220064944,0.00011924967664659713
-0.21286703960504383,-0.21286703960504383,0.9999480007384868,0.00011924711942580127
-0.2115781703381799,-0.2115781703381799,1.000042415222517,0.0001193099606377432
-0.21067810939857737,-0.21067810939857737,1.0001289709797534,0.00011941407476866257
-0.20891607357480096,-0.20891607357480096,1.000168802590386,0.00011943385028725421
-0.20790038462437224,-0.20790038462437224,0.9998198244230636,0.00011955964893287862
-0.20690674885408952,-0.20690674885408952,1.0000269898328618,0.00011926252235480337
-0.20568055563489906,-0.20568055563489906,1.0002418001673108,0.00011916742107379196
-0.2050076541141607,-0.2050076541141607,0.9997280271747441,0.000118979984403951
-0.20328737014497164,-0.20328737014497164,0.999924309386737,0.00011953588903820848
-0.20162225727399347,-0.20162225727399347,1.0001068285334678,0.00011920546058706813
-0.2002485873614205,-0.2002485873614205,0.9999322809640587,0.00011922054930571604
-0.1986036066809902,-0.1986036066809902,0.999959512584313,0.00011930230849054183
-0.19696325722907204,-0.19696325722907204,0.9999666615272711,0.0001193872192370416
-0.19592015437956434,-0.19592015437956434,1.0000519013745062,0.0001195345170027411
-0.1943278253893368,-0.1943278253893368,0.9998731053725027,0.0001193847136274163
-0.19345166745770256,-0.19345166745770256,1.0001894430594191,0.00011942465685522252
-0.19248218793945854,-0.19248218793945854,1.0001628452787603,0.00011926833241554066
-0.1909768114273902,-0.1909768114273902,1.000195488533566,0.00011910467043241667
-0.19003482096013613,-0.19003482096013613,1.000077494620497,0.00011928811190574152
-0.18882930067775305,-0.18882930067775305,0.9999537822175174,0.00011899571422130041
-0.18684530678146985,-0.18684530678146985,1.0000833468377848,0.00011909428436283464
-0.18448039579961914,-0.18448039579961914,1.000040141146719,0.0001192100628695019
-0.1822782416275004,-0.1822782416275004,1.0001299926484066,0.00011944244886036102
-0.181154119267012,-0.181154119267012,1.0000571310842905,0.00011953378825616398
-0.17960650282038843,-0.17960650282038843,1.000120582918158,0.00011940595037437737
-0.17817530354077463,-0.17817530354077463,1.0001715684055896,0.00011913784990899912
-0.1768128017516574,-0.1768128017516574,0.9998349438190652,0.00011894630632462693
-0.17608935388270766,-0.17608935388270766,0.9999881222346026,0.00011899937008629739
-0.17475946400663817,-0.17475946400663817,0.9998885762841263,0.00011940806212683474
-0.17300696865131612,-0.17300696865131612,0.9999274973809877,0.00011918897278217636
