time,time,flux,flux_err
-0.49994498878368177,-0.49994498878368177,0.9998745179753227,0.00019813866005095057
-0.49984733448945917,-0.49984733448945917,1.0001970237359907,0.00020694163851639607
-0.49969708973367233,-0.49969708973367233,0.9999765146422396,0.0001970660593745858
-0.4995987792412052,-0.4995987792412052,0.9999730416300542,0.00019687485058443666
-0.4995346587733366,-0.4995346587733366,1.0001004147485948,0.0001787331846263965
-0.49944487772881985,-0.49944487772881985,0.9999475613977611,0.0001763164914992664
-0.49936639867082705,-0.49936639867082705,1.0000712707095445,0.00019771338514330234
-0.4992345567472512,-0.4992345567472512,1.0000441259849862,0.00019823934968774318
-0.499165296938736,-0.499165296938736,1.000039340245345,0.00017680509948345998
-0.4991192987508839,-0.4991192987508839,1.0000303793124563,0.00020177279619342666
-0.49907471531187186,-0.49907471531187186,0.9998007660096435,0.00018955530393479232
-0.49900331982062196,-0.49900331982062196,0.9997943909392843,0.00018517909384709865
-0.4988596593786497,-0.4988596593786497,1.0000565877320582,0.00017959031430038016
-0.4987557660031598,-0.4987557660031598,0.9998066129070654,0.0001910806111043005
-0.4986451248434605,-0.4986451248434605,1.000064319174464,0.00018459113425064734
-0.49846760312793775,-0.49846760312793775,0.9999625267176533,0.00017982842248540868
-0.4984056241810322,-0.4984056241810322,1.0002617164219583,0.00017351514664122684
-0.4982915295258863,-0.4982915295258863,0.9998103864851643,0.0002047636806290678
-0.49819421869469804,-0.49819421869469804,1.0001462296033312,0.0001809419160924961
-0.4980519629898481,-0.4980519629898481,1.0000909412795553,0.00018004438002352786
-0.4979407996899681,-0.4979407996899681,1.0001287487473263,0.00018054356608236983
-0.4978562465286814,-0.4978562465286814,1.0001894517141843,0.00019043421204962394
-0.49771973516326395,-0.49771973516326395,1.0005192400508247,0.0002139694493313082
-0.4976328733348055,-0.4976328733348055,1.000315424380198,0.0001762812814401298
-0.49754837283689995,-0.49754837283689995,1.000243861545753,0.00018782216775156365
-0.4974654623219976,-0.4974654623219976,1.0002026544880698,0.0001699397431295616
-0.49737252143677324,-0.49737252143677324,0.9997616804577616,0.00019122958269155926
-0.4971421280410141,-0.4971421280410141,1.000241812863721,0.00018372068818106293
-0.49707211468776225,-0.49707211468776225,1.000129304542733,0.00017604800601554515
-0.4970283330243547,-0.4970283330243547,1.0001105479579435,0.0001807714874944829
-0.4968719545722706,-0.4968719545722706,1.0000290789977486,0.00018237161442947572
-0.49674911056063137,-0.49674911056063137,1.000211656000458,0.0001947094510276217
-0.4966589798539644,-0.4966589798539644,1.0002391609065557,0.00018061624142459408
-0.4965681557310745,-0.4965681557310745,0.9998936891759239,0.00019778195883481649
-0.49649507014546546,-0.49649507014546546,0.9999624061790909,0.0001755181524380895
-0.4963577561895363,-0.4963577561895363,0.9998992601205448,0.0001763273416663462
-0.4962065020459704,-0.4962065020459704,1.0000434505111877,0.00019373232329349436
-0.4961099743086379,-0.4961099743086379,1.00021376938253,0.00021010270828991854
-0.4959680455533089,-0.4959680455533089,1.000023113041178,0.0001985297951450571
-0.49591123807185794,-0.49591123807185794,1.0000812210558596,0.0001790224472437906
-0.4957743603619747,-0.4957743603619747,0.9999096190849157,0.00020947942480513399
-0.49567272202984897,-0.49567272202984897,1.0000378825827005,0.0001974719172844333
-0.4956160143367015,-0.4956160143367015,1.0000110806576188,0.0001806312230017393
-0.49550222532416227,-0.49550222532416227,0.9999230459964347,0.00019067007657256861
-0.4954240382328862,-0.4954240382328862,1.0002331260894883,0.00017738338144328435
-0.49528562478371896,-0.49528562478371896,0.999902363136556,0.0001951222836480812
-0.4951093993149698,-0.4951093993149698,1.0000924753074494,0.00019091797356473702
-0.4948885006218916,-0.4948885006218916,1.000155389653267,0.00018043465035547047
-0.4947375874296995,-0.4947375874296995,0.9998304290071376,0.00018045500522223887
-0.49466000528482257,-0.49466000528482257,0.9996722023218293,0.00018995705820321057
-0.49451154027774463,-0.49451154027774463,0.99995037175816,0.0001778070652207956
-0.49446828954969535,-0.49446828954969535,0.9998230017326979,0.00018461544632570833
-0.49436013631056996,-0.49436013631056996,1.0002732703932828,0.00018745348074945307
-0.4941995118104387,-0.4941995118104387,1.0002368911816506,0.00017995029457808985
-0.4939630211563781,-0.4939630211563781,0.9998648697668431,0.0002031493750288027
-0.4938085418194532,-0.4938085418194532,0.9998751238581857,0.00017746332399413864
-0.49372997266764285,-0.49372997266764285,0.999689040058116,0.00017653744680277975
-0.49364489724102895,-0.49364489724102895,1.0003498733076917,0.00018463202741467633
-0.493487695112708,-0.493487695112708,0.9996415467438122,0.00018603638991816326
-0.49338241360965185,-0.49338241360965185,0.9998635966280602,0.0001935537385062745
-0.49329869625507855,-0.49329869625507855,0.9997527092717601,0.00018280874099293922
-0.4932327697228175,-0.4932327697228175,1.0001327017119546,0.00018472781800319392
-0.4931385384814348,-0.4931385384814348,0.999873771202191,0.00019328970939452337
-0.4930296588805504,-0.4930296588805504,1.0000643865412582,0.00018246431941079192
-0.4929603482305538,-0.4929603482305538,0.9999489460749343,0.00017638510041207168
-0.49287379101733675,-0.49287379101733675,1.0003686246531056,0.00018857482024969033
-0.4927957793843234,-0.4927957793843234,0.9999195309703677,0.00018383063778015834
-0.4926874099008273,-0.4926874099008273,1.0001521641892535,0.00019635543139880128
-0.4926384943217272,-0.4926384943217272,0.9997580495889358,0.00018298685458524269
-0.49258485028112775,-0.49258485028112775,1.0003018567145359,0.0002045559002754578
-0.4925200318277348,-0.4925200318277348,1.000044299391802,0.0001763375131301191
-0.49235741105803754,-0.49235741105803754,0.9998102516919911,0.00017947500505445743
-0.4922392168577062,-0.4922392168577062,0.999891055069732,0.00019251954107631813
-0.49216221302922347,-0.49216221302922347,0.9999888682851455,0.00017911632821310106
-0.4920518900617026,-0.4920518900617026,1.0002524363081224,0.00018059745537472475
-0.49194438511913174,-0.49194438511913174,1.000200550525177,0.00018632158744229924
-0.4918696567096049,-0.4918696567096049,1.0003397405155325,0.00019163129579630726
-0.49175609161902684,-0.49175609161902684,1.0002687957440166,0.00017586539174192328
-0.4916365061508259,-0.4916365061508259,0.9999451823915884,0.00019631567802938624
-0.49150199988216625,-0.49150199988216625,0.9998213614462472,0.00017823331640177503
-0.4913545420160517,-0.4913545420160517,0.9998396995752097,0.00018355602051627816
-0.491263994819019,-0.491263994819019,1.0002678543632662,0.00020716768026936443
-0.491112447832711,-0.491112447832711,0.9997824816287378,0.00019212876845265287
-0.4909763864823617,-0.4909763864823617,1.0001546713865876,0.00018512007471727993
-0.49089142385928425,-0.49089142385928425,1.0001349502180763,0.00017056382223647627
-0.49074943699524737,-0.49074943699524737,0.9998409572110567,0.0001918364601169636
-0.4905731952690985,-0.4905731952690985,1.0000839550932223,0.00017823269324066958
-0.4905055488634389,-0.4905055488634389,0.9998002792544382,0.00017395922146224132
-0.49045294914976695,-0.49045294914976695,0.9997351471387363,0.00019425329902935312
-0.49030357904266564,-0.49030357904266564,1.0000628383607062,0.00017390595648342306
-0.49018079943198245,-0.49018079943198245,1.00017086614853,0.00019319199118623324
-0.4900869716977468,-0.4900869716977468,1.0000730724526785,0.00020469058921412735
-0.4900259648275096,-0.4900259648275096,1.0003484316434308,0.00020334378117077976
-0.48992507614020725,-0.48992507614020725,1.0000063256161598,0.00017598372350166358
-0.48970298788626676,-0.48970298788626676,1.0000176769909397,0.00017339703916726234
-0.48962519711931235,-0.48962519711931235,0.9999888047492032,0.00018899349927968748
-0.48949964372441174,-0.48949964372441174,1.0000226408628616,0.00020148171856369077
-0.4893794624658767,-0.4893794624658767,1.0000792934393756,0.00017839307894751473
-0.4892334797914373,-0.4892334797914373,0.9999035194067428,0.00021166033294368197
-0.48913431669352575,-0.48913431669352575,0.9999158176641447,0.00019744531010461243
-0.4890242940338794,-0.4890242940338794,0.9996191662317392,0.00018025416505596033
-0.48891099843021946,-0.48891099843021946,0.9998923336397578,0.0001741692506061452
-0.4888427213882096,-0.4888427213882096,0.9997801776357035,0.0001852789066255801
-0.4886858718615258,-0.4886858718615258,0.9999064031626999,0.00019583581106828485
-0.4884750887140399,-0.4884750887140399,1.0000035389989659,0.00018618729096089734
-0.48827027424704283,-0.48827027424704283,0.9998905144050267,0.00018226602653013214
-0.48813979514525274,-0.48813979514525274,0.9999894891211156,0.0001855862132843405
-0.4880247467313893,-0.4880247467313893,0.9997748608709678,0.00018139481311891978
-0.48795653666893485,-0.48795653666893485,1.0000130326082073,0.00017522537590091935
-0.48783967286581176,-0.48783967286581176,0.9998475406347336,0.00018901752742742266
-0.4877064069820335,-0.4877064069820335,0.9999944710873405,0.0001859458745494237
-0.48746771541482303,-0.48746771541482303,0.9999791895844139,0.00020249840939690335
-0.4873393083224073,-0.4873393083224073,1.0000482533068253,0.00018254751817720484
-0.4872243107558461,-0.4872243107558461,0.9997263909523383,0.00017306541383366156
-0.4871627570886631,-0.4871627570886631,1.0002895854365312,0.0001758684836034089
-0.48711982925888153,-0.48711982925888153,0.9999559106109602,0.00018310748124935014
-0.4870048449141905,-0.4870048449141905,1.0001343351262375,0.0001951200473859487
-0.4869164895557333,-0.4869164895557333,1.0000069650764594,0.00020266173721542486
-0.4868083974753972,-0.4868083974753972,0.9998535692453606,0.00018399061329720662
-0.4867445299547398,-0.4867445299547398,1.000206290364332,0.00018078115170746517
-0.4866557779227151,-0.4866557779227151,1.000107546246263,0.00019428647335223152
-0.4865900281991344,-0.4865900281991344,1.000318420573943,0.00018367277204100357
-0.48648435825598424,-0.48648435825598424,1.0000996635938053,0.00018090735886787187
-0.4863733818870969,-0.4863733818870969,1.0002123052353686,0.00019186600952414645
-0.4863199888350209,-0.4863199888350209,0.9999582117659218,0.00017728866090093717
-0.4862280319968704,-0.4862280319968704,1.000013036551774,0.0001898351798801644
-0.48618822840799114,-0.48618822840799114,0.9999039140609067,0.00018786395507895654
-0.4861156670958735,-0.4861156670958735,0.9999910636130089,0.0001986824976945154
-0.48604966097336727,-0.48604966097336727,0.9999433810200973,0.0001898004677950276
-0.48595825778320434,-0.48595825778320434,0.999810563262298,0.00017647832994218028
-0.4858200176706305,-0.4858200176706305,1.0000163624945968,0.000194175757211028
-0.48573117138585076,-0.48573117138585076,0.9998713739311453,0.00017949002392083082
-0.4856436024158029,-0.4856436024158029,1.0000047815622424,0.00017769682145997171
-0.4854920365905855,-0.4854920365905855,1.0002502219071077,0.00018097895091581716
-0.4854577717313077,-0.4854577717313077,1.0001859285167378,0.00018334648027897404
-0.48535272737499324,-0.48535272737499324,1.0002753402949414,0.00019791818324903086
-0.48528061346150936,-0.48528061346150936,0.999935933689156,0.00017347859776378332
-0.48511057478608566,-0.48511057478608566,1.000303217963753,0.00020716803576171432
-0.4849573915096698,-0.4849573915096698,0.9998362338903606,0.00018549599766551952
-0.48478764670435337,-0.48478764670435337,1.000013921124152,0.000192853440671784
-0.48469537479104474,-0.48469537479104474,1.0001117340810095,0.00021312057452704125
-0.4845541746995877,-0.4845541746995877,0.9998736835186495,0.00017450528671936015
-0.48443154295673596,-0.48443154295673596,0.999999381681161,0.0001723681873542281
-0.4843086837645387,-0.4843086837645387,0.9998912755660412,0.00017059294914123786
-0.4841782013798365,-0.4841782013798365,1.0001337088652456,0.00020021514363887985
-0.48405926101258956,-0.48405926101258956,0.9999864148442527,0.00017523641490727155
-0.48395916949666573,-0.48395916949666573,1.0002347088801955,0.00017752521990769675
-0.48385870780912227,-0.48385870780912227,0.9998017475137881,0.00019512159936783334
-0.48373356980155224,-0.48373356980155224,1.0000764588990356,0.00019352974497111568
-0.4836070859717438,-0.4836070859717438,1.0001981997496379,0.0002035077215761122
-0.4835080894787097,-0.4835080894787097,0.9999628343247249,0.00018303439741046244
-0.4834433716838248,-0.4834433716838248,1.0000787877893678,0.00018781907330577588
-0.48328718824486716,-0.48328718824486716,1.0001766684703775,0.0001801161563035031
-0.4831262436200632,-0.4831262436200632,1.0001660623422666,0.000171747217607614
-0.48304521282261703,-0.48304521282261703,1.0001737579996488,0.0001928441830304504
-0.48295598254480865,-0.48295598254480865,1.0000100466257384,0.0002007136734759111
-0.48281432515650524,-0.48281432515650524,1.0001060619144297,0.00020499087596382147
-0.48267293233366215,-0.48267293233366215,1.0000011120240582,0.00018548595981693014
-0.48253634947468527,-0.48253634947468527,0.9999143488608452,0.0001823422780342198
-0.482458552881144,-0.482458552881144,1.0000009981797355,0.0001845513194853933
-0.48230856356967705,-0.48230856356967705,0.9995452897023093,0.00017139281899753245
-0.4822069055691827,-0.4822069055691827,1.0000399143884435,0.00020281567610696627
-0.4819362108682981,-0.4819362108682981,1.000081149079991,0.00017991343206263756
-0.48168673797918016,-0.48168673797918016,0.9998764359345692,0.00018029392961254752
-0.48154376589809544,-0.48154376589809544,1.0002048230270464,0.00017665229626656357
-0.481456402677577,-0.481456402677577,1.0001040112833848,0.00017394815071871756
-0.48134282693790736,-0.48134282693790736,1.0000306504506447,0.0001868065260771677
-0.48121469880570655,-0.48121469880570655,0.9998057509181498,0.0001876531747995636
-0.4811263285926543,-0.4811263285926543,1.0001353989699298,0.00019599269451244498
-0.48094189484836536,-0.48094189484836536,0.999785146308627,0.00018488663399352678
-0.4807660846883664,-0.4807660846883664,0.9997765300845641,0.00018847945835610068
-0.4806748353264993,-0.4806748353264993,0.9998629175368023,0.00017628751124503533
-0.48063188955420627,-0.48063188955420627,1.0000537011376678,0.0001794480829622753
-0.48057183336932213,-0.48057183336932213,1.0000226655061308,0.00019627813633338719
-0.48049336760304867,-0.48049336760304867,1.000093540066557,0.0001815751537390927
-0.4803956232353812,-0.4803956232353812,1.0000775359406233,0.00019562169187344866
-0.4802879510418279,-0.4802879510418279,0.9998703803129653,0.00018958140276026253
-0.4801699063333217,-0.4801699063333217,1.0002907760454112,0.00019754337154978774
-0.48010069541051054,-0.48010069541051054,1.0003279311555557,0.00017768772610242747
-0.4799953983572777,-0.4799953983572777,0.9999503178143598,0.00017397187700084738
-0.47986217550060245,-0.47986217550060245,1.0001667701851766,0.00019599390907695498
-0.47980937726970296,-0.47980937726970296,0.999932626658518,0.00017876509814229965
-0.4797367867897265,-0.4797367867897265,1.0000706981636474,0.00020305090031254254
-0.4796739784971578,-0.4796739784971578,1.00022597069506,0.00017240807846217256
-0.47963761315331793,-0.47963761315331793,0.9999553666326021,0.00018107551555606997
-0.4795863434585044,-0.4795863434585044,1.0000706231879373,0.0002019075226256365
-0.47948638630914503,-0.47948638630914503,0.9999442889145979,0.0001887353364775206
-0.4793568507593591,-0.4793568507593591,0.9998931253551693,0.00019190625407167062
-0.4792420799290994,-0.4792420799290994,1.0001274162363258,0.00017991380453866266
-0.47913701040088197,-0.47913701040088197,0.9999856396644257,0.00018145626603900387
-0.4789880496478872,-0.4789880496478872,0.999739948516245,0.00017917106430937051
-0.47894046537112445,-0.47894046537112445,0.9998574556850837,0.00017870141101014857
-0.4788172708766069,-0.4788172708766069,0.9998709414263625,0.00019956197537292336
-0.4786506475065835,-0.4786506475065835,0.9999683550629328,0.00017365771251581625
-0.4784643039049115,-0.4784643039049115,0.9998765480615687,0.0001909751424578311
-0.47827955486427526,-0.47827955486427526,0.999832703216317,0.00019569255010608836
-0.4781342898902949,-0.4781342898902949,0.9998656647260675,0.00020763025691916863
-0.478011992937536,-0.478011992937536,1.000070483511039,0.0001811829645573937
-0.47791755296348126,-0.47791755296348126,1.0000591094120872,0.0001715887757738867
-0.47780184768198525,-0.47780184768198525,0.9999480845828297,0.00017292843164378978
-0.4776885686645983,-0.4776885686645983,1.0001613784158885,0.0001722567433867349
-0.47756802520598285,-0.47756802520598285,1.0001147946463282,0.00019469767545560515
-0.4774509531707736,-0.4774509531707736,0.999751582625275,0.00017805285253792556
-0.47732605201890693,-0.47732605201890693,1.000083033900348,0.00019087896637230462
-0.47725671008520293,-0.47725671008520293,1.0000676803208457,0.0001862707770323401
-0.477155616125674,-0.477155616125674,0.9999442643925562,0.00019181692000983346
-0.4769931151124183,-0.4769931151124183,1.0000396051236506,0.00020135365051988748
-0.4768899030605098,-0.4768899030605098,1.0001377625890695,0.00018949289587578768
-0.4767921099875821,-0.4767921099875821,1.000143373733748,0.00017864962231844324
-0.4766243046207819,-0.4766243046207819,1.0000387510040558,0.00017403771337238735
-0.4765243937057676,-0.4765243937057676,1.0000604278337555,0.00018034610376551816
-0.4764150626841001,-0.4764150626841001,1.0000397632890357,0.00020349188664509546
-0.4762445955013391,-0.4762445955013391,0.9999539908140571,0.00020192766218160232
-0.47614658968232104,-0.47614658968232104,0.9998878408674301,0.00018694527158812018
-0.47597412625327706,-0.47597412625327706,0.9997089228183178,0.00017957264363777325
-0.47586543153447564,-0.47586543153447564,1.0000811698804977,0.00018250673246860558
-0.4757007746695308,-0.4757007746695308,1.00014216266958,0.0001755640361653008
-0.4755347773083486,-0.4755347773083486,0.9998849645240704,0.0002026715403243116
-0.47532546330185144,-0.47532546330185144,0.9998278980804554,0.0001785438502406436
-0.47513675193185917,-0.47513675193185917,0.999907262012522,0.00017987547029529364
-0.47498257531260607,-0.47498257531260607,0.9999113013682731,0.00018613117166103857
-0.4748939233541023,-0.4748939233541023,1.000111345874969,0.00017433195430882932
-0.4747569515340729,-0.4747569515340729,0.9998278789719344,0.0001880102483728719
-0.4746539546933491,-0.4746539546933491,1.0001416072154004,0.00017603114939494053
-0.47451410405628847,-0.47451410405628847,0.9998996652578486,0.00019958589017651267
-0.4742748975259019,-0.4742748975259019,0.9999543557810403,0.0001962665306980943
-0.4741690882801777,-0.4741690882801777,1.000020880498781,0.00017631892255265245
-0.47410470781906044,-0.47410470781906044,1.0000221461463883,0.0001785397273439956
-0.47406913375889415,-0.47406913375889415,1.00009130662799,0.00017197162336970255
-0.4740124561765697,-0.4740124561765697,1.0004093992375267,0.00020882470485133645
-0.47394828507094644,-0.47394828507094644,0.9999190363924514,0.00019483373721385718
-0.47387535418965854,-0.47387535418965854,1.0001442079985685,0.0001875813618321293
-0.47379087810986675,-0.47379087810986675,0.9998080428526194,0.00018343701789279022
-0.47367981061397585,-0.47367981061397585,1.000050147553637,0.00020196741521206403
-0.4735785496974131,-0.4735785496974131,1.0000925214648047,0.0001820809572111366
-0.4734869787207572,-0.4734869787207572,1.0004374220799968,0.00017538561423430463
-0.4733812448190292,-0.4733812448190292,0.9998231990216807,0.00018909382352116948
-0.4733013822638895,-0.4733013822638895,1.0001632038723747,0.00018885786835912951
-0.4732522096892353,-0.4732522096892353,1.000059886112288,0.00019713723573603026
-0.4731575603946112,-0.4731575603946112,1.0000322725499007,0.0001818651559992387
-0.47311513364547864,-0.47311513364547864,0.9998847567562678,0.00019446745821229136
-0.4730250820808578,-0.4730250820808578,1.0002134240729597,0.0001820838377174468
