time,time,flux,flux_err
-0.49979279044782743,-0.49979279044782743,0.9994580559049947,0.0011738061630426693
-0.49941062786880747,-0.49941062786880747,0.9993894131354318,0.001202693308730551
-0.49904729673289694,-0.49904729673289694,0.99848665069381,0.0010799091671345046
-0.49873020445302246,-0.49873020445302246,1.0002660761461062,0.0012174301117986465
-0.49837026158347725,-0.49837026158347725,0.9996878822820289,0.0010875576500624302
-0.4981488348690618,-0.4981488348690618,0.9997577940997917,0.001053645512979744
-0.4977647179883206,-0.4977647179883206,1.001444274132096,0.0011055884329562644
-0.49747019753049243,-0.49747019753049243,0.9997740988057557,0.0010782326677718217
-0.4972427482032799,-0.4972427482032799,1.0001236414813819,0.0011074603908964504
-0.4969867766259995,-0.4969867766259995,1.0001574673760127,0.001127308093881547
-0.4965384287294,-0.4965384287294,0.9998104331979736,0.0011010216231391594
-0.4962026431101549,-0.4962026431101549,0.9991656120677531,0.0010552043835592654
-0.49596372146042994,-0.49596372146042994,0.9979074210573522,0.0011069441914321825
-0.4954425870695559,-0.4954425870695559,0.9999393939588124,0.0011766432361337029
-0.49515537393381237,-0.49515537393381237,0.9989661750790377,0.001040519334383616
-0.4946768267873267,-0.4946768267873267,0.9979323215928135,0.0011271149714308175
-0.494319009026367,-0.494319009026367,1.0008826546223182,0.0013083787351121116
-0.49392824085152826,-0.49392824085152826,0.9999086702739749,0.0012852925530257024
-0.4934638940932928,-0.4934638940932928,1.00074940790704,0.0011046231844258788
-0.49317198347198427,-0.49317198347198427,1.000548688369476,0.0013309070879606506
-0.4927041804883629,-0.4927041804883629,0.9998953647763598,0.0012744015602613584
-0.49229610680995395,-0.49229610680995395,0.9992432627849647,0.0012033474160087925
-0.49198448413662843,-0.49198448413662843,0.999752519633458,0.0011607788407442857
-0.49153223949469976,-0.49153223949469976,0.9994312109650414,0.001106465020005293
-0.49124761068305817,-0.49124761068305817,1.0000343461703154,0.0011883026183380852
-0.4908794983122789,-0.4908794983122789,0.999868494915605,0.001162237565413028
-0.49035980628977993,-0.49035980628977993,1.0005451474863942,0.0012956143723950125
-0.4899903936864575,-0.4899903936864575,1.000888240749523,0.0011099638683374532
-0.4897365963319317,-0.4897365963319317,1.000205829583244,0.0012089693881919264
-0.4892913960480655,-0.4892913960480655,0.9996708774534117,0.0010649305747802145
-0.4891168066846149,-0.4891168066846149,0.9990807784375211,0.001261607819250091
-0.4888601494167233,-0.4888601494167233,0.9998164867788963,0.001205616903227643
-0.4885118192418304,-0.4885118192418304,0.9989660379427427,0.0011589156363665952
-0.4881588104464754,-0.4881588104464754,0.9999897065147876,0.001191160727147228
-0.48793760349872173,-0.48793760349872173,0.9996472948692379,0.0011521153981529568
-0.48763989738581587,-0.48763989738581587,1.0009338116056719,0.0011837222923450144
-0.48747034856205573,-0.48747034856205573,0.9994272471982489,0.001169826224975951
-0.48720056195670625,-0.48720056195670625,0.9993937020576664,0.001150316095002849
-0.4869121782088769,-0.4869121782088769,1.0004333314928535,0.001003995522863888
-0.4866321847359359,-0.4866321847359359,0.999380858787457,0.0011085383554982038
-0.4864801374111266,-0.4864801374111266,0.9997249608095989,0.001241096428972328
-0.4862675041353214,-0.4862675041353214,0.999976969116038,0.0012464079428633206
-0.4860081840080966,-0.4860081840080966,0.9996144671360252,0.0010547853450403914
-0.4857928229772369,-0.4857928229772369,0.999446495695123,0.0010543212166439916
-0.4855944585578982,-0.4855944585578982,1.0013919163870983,0.0011388363943445822
-0.48539754510711647,-0.48539754510711647,1.0002818442546406,0.0012060517095694378
-0.48516750437775047,-0.48516750437775047,0.9987026197633065,0.0012193773936356508
-0.4848537829522684,-0.4848537829522684,0.9990446841432192,0.0010770896752540597
-0.48445611042916426,-0.48445611042916426,0.9996987137450519,0.0011311903367777904
-0.48416323034398373,-0.48416323034398373,0.9987006387344646,0.001086131416281522
-0.4839128796120349,-0.4839128796120349,0.9982241920191827,0.0011503363233890656
-0.48348733508610164,-0.48348733508610164,0.9989946463826497,0.0011747312378835224
-0.4832133643518318,-0.4832133643518318,1.0009381864331042,0.001086415614498665
-0.4829790627627517,-0.4829790627627517,1.000333974978383,0.0011024172982329991
-0.48248200672096575,-0.48248200672096575,1.0001232526443151,0.0011323870147928745
-0.48218284362519626,-0.48218284362519626,0.9997836987795736,0.0011534223333862293
-0.48199996181283494,-0.48199996181283494,1.0002208308719631,0.0010564958437150852
-0.48164756304468026,-0.48164756304468026,0.998762636080115,0.0010576112445168017
-0.481292880273395,-0.481292880273395,1.0003590943957996,0.001148333609856051
-0.4810814089083578,-0.4810814089083578,1.0007838092613648,0.0010995001505811365
-0.4808527991837764,-0.4808527991837764,0.9990677677061027,0.0010634291340473907
-0.4803652346148738,-0.4803652346148738,0.99935540716375,0.0010825928614611963
-0.4800841978249082,-0.4800841978249082,1.0010397975066456,0.0011295875114605565
-0.4796919219159463,-0.4796919219159463,1.0011321110026736,0.0011959665785748342
-0.47928214903731714,-0.47928214903731714,0.999160443872877,0.0014293392102396356
-0.47896366829954784,-0.47896366829954784,1.0009134561855393,0.0012455971455240854
-0.4784599240112584,-0.4784599240112584,0.998474631086282,0.0011533717471685944
-0.4780548597977031,-0.4780548597977031,1.0003622730377455,0.0011900204579474705
-0.47759035302879055,-0.47759035302879055,1.0002280120411293,0.0011979738162946995
-0.4771924517859588,-0.4771924517859588,1.000336400679044,0.00110668762128224
-0.4767407951731002,-0.4767407951731002,1.0000417591541289,0.0012107742933953325
-0.4762691936564806,-0.4762691936564806,1.0006830709260617,0.0013195460199019462
-0.47591483491414693,-0.47591483491414693,1.000222912438645,0.0010993833990763147
-0.47556932978332045,-0.47556932978332045,1.0014330616283122,0.0011682264379222751
-0.4751480523162172,-0.4751480523162172,0.9987025610309506,0.0011832671636200355
-0.4750022136620828,-0.4750022136620828,1.000220019769877,0.001171762304267089
-0.47457503764671854,-0.47457503764671854,0.9999878200552569,0.0013018070836330997
-0.4741692137125938,-0.4741692137125938,0.9989050469738882,0.0010910079355366063
-0.4739407351073169,-0.4739407351073169,0.9996596845618321,0.0011673745878470465
-0.4736160997847037,-0.4736160997847037,0.9995418679563988,0.0012683185123211053
-0.4734143385081552,-0.4734143385081552,1.0003506077201973,0.0011681538709268377
-0.4732149968898739,-0.4732149968898739,0.999888328122499,0.001173814467390355
-0.47290384873049335,-0.47290384873049335,1.001272061156041,0.0010760573996294195
-0.47261651623339274,-0.47261651623339274,0.9991234105763442,0.0011606998492001354
-0.4723882301346748,-0.4723882301346748,0.9988771314556264,0.001250446304210217
-0.4721500495848886,-0.4721500495848886,0.9997595253034399,0.001248587977215203
-0.47186406441396683,-0.47186406441396683,0.999786481341386,0.0011080401271722669
-0.47166991470585345,-0.47166991470585345,0.999550997439707,0.001060910624059994
-0.4714432930959447,-0.4714432930959447,1.0004773296599372,0.0011312123479099104
-0.4712382850615541,-0.4712382850615541,0.9981116362466314,0.001216763889266929
-0.47091176942558377,-0.47091176942558377,1.0001495134157046,0.0010797637796948131
-0.47068260435189585,-0.47068260435189585,0.9998761300896314,0.0010770910037174546
-0.4703559026551375,-0.4703559026551375,1.0002078658736955,0.0010644316598340219
-0.47011314911069346,-0.47011314911069346,0.9992567783688372,0.0011319944542951246
-0.46985713402173135,-0.46985713402173135,0.9991412448096726,0.0011036744269193061
-0.46955918452804324,-0.46955918452804324,1.0001225761535912,0.0011979901365956798
-0.4691894798976136,-0.4691894798976136,0.9996259392986813,0.0010558947949918423
-0.4689646025028196,-0.4689646025028196,0.9996029365798534,0.0010859800375453339
-0.46861159590334867,-0.46861159590334867,1.0013248236339194,0.0010811377838577736
-0.46827892030778456,-0.46827892030778456,0.9993942063810575,0.0011518112427948888
-0.46796574001273256,-0.46796574001273256,0.9986565265345269,0.0011077805437685298
-0.4676914243675128,-0.4676914243675128,0.9997538733035818,0.001122024320375247
-0.46722885389972363,-0.46722885389972363,0.9992093092114398,0.0011512373015613135
-0.46697215083040644,-0.46697215083040644,1.0005309269275933,0.0010547170797329847
-0.46674854916273034,-0.46674854916273034,1.000549583680236,0.001109343547757386
-0.4662045543962449,-0.4662045543962449,1.000327813693389,0.0011775296772012806
-0.4658644470364379,-0.4658644470364379,0.9998992891134737,0.0010266978303695327
-0.4653028884167725,-0.4653028884167725,0.9996651009954671,0.0013156692320955839
-0.4647350915751304,-0.4647350915751304,1.001809052606911,0.0011981836271874216
-0.4642670952664048,-0.4642670952664048,1.000173422347935,0.0011428649838734943
-0.46389831305714324,-0.46389831305714324,0.9996496680807224,0.0013231698054742731
-0.46336283399359673,-0.46336283399359673,0.9999926262753019,0.0012411949132348748
-0.4629957112381817,-0.4629957112381817,1.0006994460321836,0.0012982905104899358
-0.4626479282480432,-0.4626479282480432,0.999982012991042,0.0011131835303819324
-0.46224688745860476,-0.46224688745860476,0.9992662739266234,0.001154326635882824
-0.46197836376086343,-0.46197836376086343,1.000144201824658,0.001262254979175655
-0.461634765350027,-0.461634765350027,0.9981540997861715,0.0011619087238300086
-0.46109900616502275,-0.46109900616502275,0.9995747249557814,0.0012583319893824875
-0.46072261175504536,-0.46072261175504536,0.9998441882540275,0.001162189381548455
-0.46040542946357166,-0.46040542946357166,1.000473493607942,0.0011587710242045282
-0.4600110496576235,-0.4600110496576235,0.9993727708580208,0.0011141424600696768
-0.45982746617883097,-0.45982746617883097,1.001684506434791,0.0012718693708286721
-0.4596051731285115,-0.4596051731285115,0.999333330032148,0.0012102300566466141
-0.45926601188693894,-0.45926601188693894,1.0010829283337603,0.001158489495319166
-0.45892100278215364,-0.45892100278215364,1.0002577335509542,0.0010959064673608646
-0.4586797784846567,-0.4586797784846567,1.000075689863852,0.0012439338436961269
-0.45839707717386774,-0.45839707717386774,1.0005055450474916,0.0011317823077234951
-0.4582291391532635,-0.4582291391532635,1.000388156646593,0.0011749698076898667
-0.45795573258656075,-0.45795573258656075,0.9997003855205475,0.0012037926530858371
-0.4576813207619125,-0.4576813207619125,0.9997789141016193,0.001004073942459407
-0.45739449529137344,-0.45739449529137344,1.0001100207929214,0.001108808497072894
-0.4572376757285383,-0.4572376757285383,0.9991333323955477,0.0012531857253972032
-0.4570138113791472,-0.4570138113791472,1.0001431992770746,0.001252349063054317
-0.4566912417736603,-0.4566912417736603,1.0002524733565719,0.0010527204954614371
-0.45644283775254735,-0.45644283775254735,1.0001288578096603,0.0010861704392391997
-0.45613366329926064,-0.45613366329926064,0.999325634896835,0.0011114085865021558
-0.45583647811145056,-0.45583647811145056,1.0000639428269538,0.0010812193011270354
-0.45554794844501884,-0.45554794844501884,0.9998602128295977,0.0011973960970436594
-0.4551320613594726,-0.4551320613594726,1.0002514456691478,0.0010813704777262938
-0.4548875095621042,-0.4548875095621042,0.999983213811246,0.0010601292539953865
-0.4546003771472897,-0.4546003771472897,0.9992693277302788,0.0011310501479727363
-0.454241378729057,-0.454241378729057,1.0016517835585252,0.0011756426636499683
-0.453979305793473,-0.453979305793473,0.999422110485481,0.0010858495767387107
-0.4537520697558648,-0.4537520697558648,0.9996661852736605,0.0011034355999636402
-0.4532530527096242,-0.4532530527096242,0.9987295771699658,0.0011259060188374402
-0.4529430434202368,-0.4529430434202368,0.9993251795736858,0.0011217982770973787
-0.45277253421518254,-0.45277253421518254,1.0013026726942569,0.0010891447120388435
-0.45239770575935834,-0.45239770575935834,0.9998568323928329,0.0011068643435226812
-0.4520007538434584,-0.4520007538434584,0.9988126786714041,0.0011017030217311396
-0.4517571483993379,-0.4517571483993379,0.9997110866177149,0.0010383207453784874
-0.45132423903560265,-0.45132423903560265,0.9994016831499822,0.0011290675209327922
-0.4509675543049525,-0.4509675543049525,0.9987465187242037,0.001302577616011449
-0.4505892733519431,-0.4505892733519431,1.0004542762790465,0.001286853764951257
-0.4501132587392931,-0.4501132587392931,0.9990430223008507,0.0011051713875335184
-0.44972710784713854,-0.44972710784713854,1.0019738508825267,0.0014134372491878843
-0.4492304073246487,-0.4492304073246487,0.9996955487719671,0.001172468198066751
-0.4488150298224355,-0.4488150298224355,0.9988098318459432,0.0011292781225630047
-0.4483484023905476,-0.4483484023905476,0.9994791649081245,0.0011963608106864078
-0.44803082296202773,-0.44803082296202773,0.9999498595210913,0.0011120939821413728
-0.4476539255832904,-0.4476539255832904,1.000642384652789,0.001182405855322322
-0.4472413915435027,-0.4472413915435027,1.0008639265187071,0.0011707194459197588
-0.4467809473928355,-0.4467809473928355,0.997625238094052,0.0012846934169551086
-0.446452733456681,-0.446452733456681,1.0001069139881122,0.00120896682138183
-0.44603791250992797,-0.44603791250992797,0.998901977661923,0.0010422271966102012
-0.44580106699941097,-0.44580106699941097,1.0004553941168464,0.00119427540478878
-0.4454966807948949,-0.4454966807948949,1.001009454333738,0.00123583079305821
-0.4450719225336798,-0.4450719225336798,0.9987127059161149,0.0011553765137273086
-0.4447883074899437,-0.4447883074899437,0.9983452980640276,0.0011600941702162308
-0.4445872340940696,-0.4445872340940696,0.99955922183925,0.0011518892566906539
-0.444301323559921,-0.444301323559921,1.001937768245772,0.0011820080909319046
-0.44412878418079343,-0.44412878418079343,1.0004298969826233,0.0011690154671203095
-0.44385742870072137,-0.44385742870072137,1.0005639610127481,0.001196124816084219
-0.44352284315682483,-0.44352284315682483,1.000162603326901,0.0010541577852386614
-0.44325646501820304,-0.44325646501820304,0.9984146200313576,0.001062635013344151
-0.4430826031391916,-0.4430826031391916,0.9988879256536632,0.0013020328486640386
-0.44282935394003287,-0.44282935394003287,0.9994848624490411,0.0011769406285646908
-0.44257827693072616,-0.44257827693072616,0.9990861055626514,0.0010521875373964503
-0.44232810219036767,-0.44232810219036767,1.0004451029763721,0.0010838324226523088
-0.442142265477014,-0.442142265477014,1.0005908433722561,0.0012050702580048349
-0.4419146083848318,-0.4419146083848318,0.998857200838591,0.0013310062680826648
-0.4416823546118394,-0.4416823546118394,0.9998029803828226,0.0010811177846657203
-0.4412819450473762,-0.4412819450473762,1.0003420486781014,0.0011253334645982814
-0.4409155708694016,-0.4409155708694016,1.000908368649918,0.001086647678478591
-0.4406910745172354,-0.4406910745172354,1.0001210279406394,0.0011007032317770027
-0.4403867501205241,-0.4403867501205241,0.999812298649891,0.0012465434287960726
-0.44001873369561506,-0.44001873369561506,0.9991851240175057,0.0010811590570329844
-0.43976959338760935,-0.43976959338760935,0.9995299152816781,0.0010545727201152525
-0.4394484804040985,-0.4394484804040985,1.001807284342196,0.0011337331012232098
-0.43906019915884825,-0.43906019915884825,0.9993056679687911,0.0011521523141703926
-0.438836344696756,-0.438836344696756,1.0000676133288948,0.0012100433514930155
-0.4386162246824824,-0.4386162246824824,1.0000079731848284,0.0010798458636134107
-0.4381979770427279,-0.4381979770427279,0.9991811594233855,0.0011059314442003589
-0.4379079088292201,-0.4379079088292201,1.0003433645640707,0.0011950288406226074
-0.43770047408979734,-0.43770047408979734,0.9993727040762117,0.00099722007409437
-0.4373359799712489,-0.4373359799712489,1.0000823954641223,0.001111922714819513
-0.43690750652385757,-0.43690750652385757,0.9994756266051941,0.0011335214124662102
-0.4366367168222496,-0.4366367168222496,0.9999633166219114,0.0010259362858965376
-0.43612759473835466,-0.43612759473835466,0.9989337036332371,0.0012409128966193118
-0.4357919192865666,-0.4357919192865666,1.0016602131449286,0.0014070321232239017
-0.4352766419033287,-0.4352766419033287,0.998604099539439,0.0011919541500366136
-0.4348887379237567,-0.4348887379237567,0.9997268833206572,0.0011479781596487643
-0.43445814102960867,-0.43445814102960867,0.9979537396743128,0.0013776539443173237
-0.4339959490142064,-0.4339959490142064,0.9994624819814106,0.001099249469227642
-0.4336204570136033,-0.4336204570136033,1.0007960442574118,0.0013022097091300161
-0.4331588487722911,-0.4331588487722911,0.9988421527450774,0.001156572049594907
-0.4326676224511175,-0.4326676224511175,1.0005336310403647,0.0011890133507324798
-0.4323600315408839,-0.4323600315408839,0.9992355100219139,0.0011171120320455058
-0.43191867974819614,-0.43191867974819614,1.0004488658885788,0.001120928041659639
-0.4316759567336703,-0.4316759567336703,1.0000500306577447,0.0011710237829635705
-0.43131107361186877,-0.43131107361186877,1.0003852134643882,0.0012572993618435268
-0.4309502712378162,-0.4309502712378162,1.0001564583332136,0.0011385484492882926
-0.43069337066044683,-0.43069337066044683,1.0001964528227831,0.001153906706469458
-0.4304806908185128,-0.4304806908185128,1.000602835169847,0.0012498576196195601
-0.4301479518871929,-0.4301479518871929,0.9996789609719556,0.0011263972997500409
-0.4299490478966618,-0.4299490478966618,1.0007064661562837,0.0012493169057413887
-0.42968723570738804,-0.42968723570738804,0.9993474924801304,0.0010990886494768543
-0.4294183482095832,-0.4294183482095832,1.0001543196826987,0.0012455744368358352
-0.42915953326009915,-0.42915953326009915,0.9985527693359592,0.0010696701455791193
-0.4289884290046757,-0.4289884290046757,1.0000683195662434,0.0012393715927206364
-0.4286767624253116,-0.4286767624253116,1.0002076320734592,0.0012293945601072299
-0.42845063762870267,-0.42845063762870267,0.9996061737737225,0.0010030083317499171
-0.4281569725862937,-0.4281569725862937,1.001037517954511,0.0011076780200560679
-0.4279468004511727,-0.4279468004511727,1.0002192054788805,0.0011335244776116123
-0.4276323735539336,-0.4276323735539336,0.9998943595495886,0.0012100194390094847
-0.4273773592809448,-0.4273773592809448,0.9988746155813708,0.0010776412662932896
-0.4270482902269578,-0.4270482902269578,0.9998449107124386,0.0010615848850493985
-0.42672808270872337,-0.42672808270872337,1.0001279313909825,0.0010329690835664564
-0.42641508118249477,-0.42641508118249477,0.9995228585633733,0.001128959532289678
-0.4260533632732404,-0.4260533632732404,0.9992151350224219,0.0011751432398574182
-0.42575464408873814,-0.42575464408873814,1.0009020486060671,0.0010871962798937953
-0.42550577727670313,-0.42550577727670313,1.0006679861297996,0.0011036275812825078
-0.42504950213842674,-0.42504950213842674,1.0004337562965975,0.0011539708515525605
-0.4247891442864784,-0.4247891442864784,1.0001764342745467,0.0010269571074863798
-0.4245835566754977,-0.4245835566754977,1.0004188323687864,0.0011089551763386824
-0.4242357860930497,-0.4242357860930497,0.9981923929622898,0.0011011203246460524
-0.4237912957622029,-0.4237912957622029,1.0003584790609092,0.001122521174397704
-0.4235608777387824,-0.4235608777387824,0.9993244622572787,0.0010886056766631802
-0.42317701014544584,-0.42317701014544584,1.000806389111237,0.0011058579105917813
-0.4227489807170059,-0.4227489807170059,0.9995008922949637,0.0012203984348283434
-0.4224626618772163,-0.4224626618772163,1.0001137895539687,0.001089516747582663
-0.4218903288034198,-0.4218903288034198,0.9995294474113242,0.001244994583494124
-0.421564051455789,-0.421564051455789,0.9997084389201261,0.001328828169750936
-0.42103491285670314,-0.42103491285670314,0.9980649586808156,0.001194066037591941
-0.4206735100597143,-0.4206735100597143,1.000574747854661,0.0011832413004277038
-0.4202325091762759,-0.4202325091762759,1.0000307837584903,0.001353252909879071
