time,time,flux,flux_err
-0.4999368393425054,-0.4999368393425054,0.9998985599043833,0.00011874177849227589
-0.4998373524382866,-0.4998373524382866,0.9999851688755591,0.0001180983691240858
-0.49970473370801,-0.49970473370801,1.0000790215645654,0.00011514459029542705
-0.4995813240399002,-0.4995813240399002,0.9999466095328475,0.0001095655845906352
-0.4993898923377856,-0.4993898923377856,0.9999313814369408,0.00010369500752223236
-0.49923735941410996,-0.49923735941410996,1.000118315897534,0.00010510875521458007
-0.499135818828654,-0.499135818828654,1.0001013099333194,0.00010767620059174096
-0.4989788298276835,-0.4989788298276835,0.9998002054745786,0.00010887258078215742
-0.4988174524754868,-0.4988174524754868,0.9998838136058203,0.00010452343878021529
-0.4986786730863969,-0.4986786730863969,1.0001515968388115,0.00010565107215193437
-0.4985518646397395,-0.4985518646397395,1.0000202371070972,0.00010322945723941961
-0.49846119316353,-0.49846119316353,0.9999963565883825,0.000105788756213969
-0.49832922349887665,-0.49832922349887665,0.999956307552505,0.00010305188360014016
-0.49817096773767844,-0.49817096773767844,1.00000276108209,0.00010774793326546644
-0.49801978053874335,-0.49801978053874335,1.0002334157604886,0.00010810398295354822
-0.49786054453725226,-0.49786054453725226,0.9997883678183191,0.00010420560387398476
-0.49771970427100315,-0.49771970427100315,1.0002002383063222,0.00010469031480407364
-0.49760841278039153,-0.49760841278039153,1.0002182407051445,0.00010253170241814394
-0.4974801585180103,-0.4974801585180103,1.0000964966640589,0.00010719679255923484
-0.4973585300744162,-0.4973585300744162,1.000071946285854,0.0001061664442793239
-0.49727765559218823,-0.49727765559218823,0.9999445980363199,0.00010583925836033371
-0.4971539698744891,-0.4971539698744891,1.0000162881006953,0.00010468760877015113
-0.49696806793508586,-0.49696806793508586,0.9999438551266475,0.00010512018976365653
-0.49690469289926115,-0.49690469289926115,0.9999735975508777,0.00010466433785270344
-0.4968203044263646,-0.4968203044263646,0.9998889858064087,0.0001050030473065188
-0.4966902395477518,-0.4966902395477518,1.0002201228914287,0.0001049340903675693
-0.4964770276506897,-0.4964770276506897,1.00009263053105,0.00010778323723503063
-0.4963899314578157,-0.4963899314578157,1.0000116327971096,0.0001067292604549735
-0.4963003666838631,-0.4963003666838631,1.0000606083517998,0.00010398135782464966
-0.4961942328984151,-0.4961942328984151,1.0001022615653916,0.00010993796651532917
-0.4959976062789792,-0.4959976062789792,0.9998563904514388,0.00010387381827201593
-0.49591837390034926,-0.49591837390034926,1.0000847819852203,0.00010454271205290753
-0.4958184995542979,-0.4958184995542979,0.9999204041863612,0.0001015737859641297
-0.4956401852556155,-0.4956401852556155,1.0000733981131944,0.00010827538887889251
-0.4955025576622575,-0.4955025576622575,1.0000176419568398,0.00010767266425487662
-0.4953799065842759,-0.4953799065842759,0.9999043846445531,0.00010365093892686812
-0.49528939020674445,-0.49528939020674445,1.0000957810695552,0.00011113748772505592
-0.4951818202083814,-0.4951818202083814,0.9999541760263966,0.00010416504991875332
-0.495042934997764,-0.495042934997764,1.000105726113994,0.00010358712255633877
-0.49488259647914673,-0.49488259647914673,0.9999405010143821,0.00010700875708012758
-0.49471748290525286,-0.49471748290525286,1.0000222604013924,0.00010978881094190255
-0.49457686904788717,-0.49457686904788717,1.0000842507040533,0.00010497409118343933
-0.4944177759767626,-0.4944177759767626,1.0001124491532916,0.00010505917030654316
-0.4943157633810188,-0.4943157633810188,1.0000583411521407,0.00010568589551858613
-0.49421872227976565,-0.49421872227976565,0.9999479341616404,0.00010430065915804094
-0.4941560178907821,-0.4941560178907821,1.0000278633356494,0.00010573949948484873
-0.49400956905446947,-0.49400956905446947,1.0001016952249644,0.00010465781853036463
-0.4938534145243466,-0.4938534145243466,1.0000879449175784,0.0001066713303081951
-0.49372618233173854,-0.49372618233173854,1.0000143773225985,0.00010837372123401025
-0.49355823109217456,-0.49355823109217456,1.0001714855450532,0.00010533857651847018
-0.4934599688902381,-0.4934599688902381,1.0000654803036533,0.00010363741762831169
-0.4933821741855354,-0.4933821741855354,0.9999395217513225,0.00010390449699383266
-0.49328585322218715,-0.49328585322218715,1.000090001761297,0.00010654492080375513
-0.4931022641962045,-0.4931022641962045,1.0000371904221872,0.0001071326151001225
-0.4929627075965982,-0.4929627075965982,1.0000578203114652,0.00010444726441257935
-0.4927798029675614,-0.4927798029675614,0.9999655758385071,0.00010312073160991687
-0.492666553928575,-0.492666553928575,0.9999452878834477,0.00010278294782170179
-0.49254423734964803,-0.49254423734964803,1.000063771803362,0.00010880456839129544
-0.49241836636938385,-0.49241836636938385,0.9999289758108937,0.0001043066160679398
-0.49226143275154755,-0.49226143275154755,1.0000782513820863,0.00010323068306706278
-0.49210061540652533,-0.49210061540652533,0.9999313291395607,0.0001038501851996525
-0.4920029200889985,-0.4920029200889985,1.000105280590207,0.00010730786065651248
-0.49185797316313257,-0.49185797316313257,1.0000610415438995,0.00010920885773727819
-0.4917157312505879,-0.4917157312505879,0.9999472866255588,0.00010464399268236022
-0.49165749889361904,-0.49165749889361904,1.0001597819558876,0.00010686903228771102
-0.49156726394576256,-0.49156726394576256,1.0001424956798293,0.00010254169744131452
-0.4914220363323693,-0.4914220363323693,1.0000824919014029,0.00010431971863463085
-0.49127180783398217,-0.49127180783398217,0.9999893857944093,0.000107363628817486
-0.4911535466904752,-0.4911535466904752,1.0000534476738365,0.00010771250422658876
-0.4910265039841761,-0.4910265039841761,1.000083937395465,0.00011006655314263261
-0.4909678630385315,-0.4909678630385315,0.9999128102789925,0.00010741211084942504
-0.49082967909635045,-0.49082967909635045,0.9998996451461437,0.00010210482875209891
-0.4906622530979803,-0.4906622530979803,1.000020084159847,0.0001082660039409095
-0.4905272107134806,-0.4905272107134806,0.9999863602684025,0.00010551185923747398
-0.49041059159935685,-0.49041059159935685,1.0000148992574198,0.00010781272509863773
-0.49024780954641756,-0.49024780954641756,0.9999863163179679,0.00010415819738349838
-0.49010696379700674,-0.49010696379700674,1.0000134656331863,0.0001047639247426866
-0.49003147125331453,-0.49003147125331453,1.0002071343899301,0.00010608870779262535
-0.4899492508644471,-0.4899492508644471,0.9999605951262864,0.00010307317765354339
-0.48988915695226753,-0.48988915695226753,1.0000153359421897,0.00010608499540351615
-0.4897706226809532,-0.4897706226809532,0.9999788853847431,0.00010256550221518444
-0.48955256214103426,-0.48955256214103426,1.0000744761786253,0.00010949899579568984
-0.4894555563267204,-0.4894555563267204,0.9999533797204403,0.0001058689364699717
-0.4892968311862205,-0.4892968311862205,1.0001502205746813,0.00010397437914009804
-0.4891136458652909,-0.4891136458652909,1.0000326478697485,0.00010420886018931766
-0.48891489472880495,-0.48891489472880495,1.000056310204899,0.00010806995645580014
-0.4887556193061755,-0.4887556193061755,0.9999017779739766,0.00010968604261874025
-0.48863333812041676,-0.48863333812041676,1.0000865364615585,0.000103734569324387
-0.4885525950536248,-0.4885525950536248,0.9999112211491197,0.00010301862368916174
-0.4884220131978509,-0.4884220131978509,1.000026871523945,0.00010211050165495888
-0.48829480804415654,-0.48829480804415654,1.0000417021607217,0.00010557976827114358
-0.48814727772551125,-0.48814727772551125,0.9999732574498283,0.00010463123966992694
-0.48797731964295965,-0.48797731964295965,0.9999349319454718,0.00010476473213258838
-0.4878361822324223,-0.4878361822324223,0.9998482604192904,0.00010713065298356276
-0.4877139688454918,-0.4877139688454918,0.9999620859935587,0.00010486499921501518
-0.4875700698903529,-0.4875700698903529,0.9999935968158369,0.00011109486029708973
-0.4874326871256926,-0.4874326871256926,0.9998620631058255,0.00010763544383902422
-0.4873368770044181,-0.4873368770044181,1.0002401636602392,0.0001027256113834926
-0.48725422928255285,-0.48725422928255285,1.0001052578795169,0.00010262801124440963
-0.4870691447620629,-0.4870691447620629,1.0001836607775676,0.0001084225339561818
-0.48693079002841844,-0.48693079002841844,1.0001817590535507,0.00010715891928050306
-0.48682203878997826,-0.48682203878997826,0.9998806849823382,0.00010796531083322694
-0.4867207489834982,-0.4867207489834982,0.9999787207266359,0.00010550715028475716
-0.4866003834016738,-0.4866003834016738,1.0000721458921853,0.00010236163541410591
-0.48647268391068793,-0.48647268391068793,1.0000289615425006,0.00010392881171122654
-0.4863119842440938,-0.4863119842440938,1.0001086625843851,0.00010846301829916217
-0.48618437427066963,-0.48618437427066963,1.0001951822828148,0.00010866307827689992
-0.4860580691616633,-0.4860580691616633,1.0002311829826833,0.00010568024980769034
-0.4859216790369828,-0.4859216790369828,0.9998745131176797,0.00010220392184989381
-0.48582814025721743,-0.48582814025721743,1.0002218199073154,0.00010540805490797272
-0.4857764925225638,-0.4857764925225638,1.000117930322136,0.00010551023243217112
-0.4856636245371192,-0.4856636245371192,0.9999895672363042,0.00010348685298951397
-0.48557752663473364,-0.48557752663473364,0.9999899690713774,0.00010587548600124116
-0.4854257940285606,-0.4854257940285606,0.9999685589446194,0.00010501110113964416
-0.48522743203648133,-0.48522743203648133,1.0001115168875443,0.00011073218359112847
-0.4851290179460193,-0.4851290179460193,1.0000810980860642,0.00010639475375515483
-0.4849143796353019,-0.4849143796353019,1.0001269204083016,0.00010251888645437317
-0.4848045329636079,-0.4848045329636079,0.9999243975555409,0.00010925838975401342
-0.4845635907535325,-0.4845635907535325,1.0001158743310676,0.00010837652681267124
-0.48446018391259715,-0.48446018391259715,0.99991959318497,0.00010981328914105855
-0.48433773814322195,-0.48433773814322195,1.000028891543357,0.00010259083523213207
-0.4842589287130977,-0.4842589287130977,0.9999129929988158,0.00010438732750753208
-0.48415360329527174,-0.48415360329527174,0.9997972634981209,0.00010308500701812417
-0.48399473731114995,-0.48399473731114995,1.000059792436092,0.00010479623990859439
-0.4838181966842967,-0.4838181966842967,1.0001011251348837,0.00010375144365394758
-0.4836084155496792,-0.4836084155496792,0.999976853656551,0.00010336693483783616
-0.48351497895491774,-0.48351497895491774,1.0001641032414306,0.0001119614815917686
-0.48336515233968386,-0.48336515233968386,1.0000631215915678,0.00011074173089155102
-0.4832573783089174,-0.4832573783089174,0.9999888357808004,0.00010569359128217334
-0.4831647338287439,-0.4831647338287439,0.9998942831515784,0.00010584343494950657
-0.4830820311646676,-0.4830820311646676,1.0000187316120404,0.00010262331120560328
-0.4829753074911423,-0.4829753074911423,1.0000154555816003,0.00010399613315314411
-0.482811955260695,-0.482811955260695,0.9999005826553027,0.00010671677293128889
-0.4826308932548272,-0.4826308932548272,0.9999873420985516,0.00010917292694932347
-0.48249305153585736,-0.48249305153585736,1.0000814392861306,0.00010831150105827664
-0.48239915747544726,-0.48239915747544726,0.9999299855223451,0.00010498590636815318
-0.48225123038428136,-0.48225123038428136,0.9999187982432372,0.00010518154775907801
-0.48207656248559944,-0.48207656248559944,1.0000810767226953,0.00010831609185769425
-0.48197279467858606,-0.48197279467858606,1.0001244003058034,0.00010828989215731755
-0.48186276018677743,-0.48186276018677743,1.0000479623334158,0.00010708581779493118
-0.4816966664700885,-0.4816966664700885,1.000056896172716,0.00010501753146472795
-0.4815406055626227,-0.4815406055626227,0.9998321905092483,0.00010426938408514023
-0.48146038497652627,-0.48146038497652627,1.0000380386399819,0.00010602168764411336
-0.48132363454351434,-0.48132363454351434,0.9997384903706978,0.00010538202172788342
-0.48123893209703966,-0.48123893209703966,0.9998329077883014,0.00010445965257029999
-0.4810549661895493,-0.4810549661895493,1.000059578287017,0.0001078875817196429
-0.480913987250824,-0.480913987250824,0.9999757857295372,0.0001097014977008148
-0.48082316624640953,-0.48082316624640953,0.9999762004042758,0.00010418346770693624
-0.480662853497779,-0.480662853497779,1.0000407437088306,0.00010507236551830768
-0.4805367091394146,-0.4805367091394146,1.0000078603970133,0.00010700900552574767
-0.4804106444309582,-0.4804106444309582,1.000020054070253,0.00010635267217137662
-0.4802070838835789,-0.4802070838835789,0.9999343569649355,0.00010804917176209289
-0.4800663735586568,-0.4800663735586568,1.0000806547921086,0.00010302299669067081
-0.4799848543741973,-0.4799848543741973,1.0000385210713452,0.00010294692076670534
-0.47991931733849924,-0.47991931733849924,0.999892837555907,0.00010369286079130915
-0.4797828075403231,-0.4797828075403231,0.9999785306329262,0.00010501075699794081
-0.47965029415063326,-0.47965029415063326,0.9999958192295324,0.00010416839967212486
-0.4794712728340528,-0.4794712728340528,1.0000763996283624,0.00010513873164434717
-0.47931155748374293,-0.47931155748374293,0.999988320308671,0.00010668061736250048
-0.47918642159202135,-0.47918642159202135,0.9997885453611423,0.00011156931615672068
-0.47901784638816025,-0.47901784638816025,0.9998905883220879,0.00010566231876302443
-0.4789612131222384,-0.4789612131222384,1.0000688238554332,0.00010571851110417886
-0.47888376314222114,-0.47888376314222114,0.9999205777408603,0.0001064071213353399
-0.4788090615315014,-0.4788090615315014,1.0000033441749854,0.00010341706086210626
-0.4786786851705983,-0.4786786851705983,1.0001093241086723,0.00010419419124865043
-0.47850316315307284,-0.47850316315307284,1.0001743016745803,0.00010682003660187447
-0.4783145592315122,-0.4783145592315122,0.9999821328334317,0.00011309642976548606
-0.47820694782421924,-0.47820694782421924,0.999949939819229,0.00010635573571432385
-0.4781144197098911,-0.4781144197098911,1.0002129129917343,0.00010496948236859773
-0.47792856670275796,-0.47792856670275796,1.0001339193984535,0.00010512799087583097
-0.4777361441490939,-0.4777361441490939,1.000051751020188,0.00010694321663509148
-0.4775755631781067,-0.4775755631781067,0.9999761188250276,0.00010384002933519029
-0.47740372994157954,-0.47740372994157954,1.0000463554179806,0.00010651309966051472
-0.47726017372187923,-0.47726017372187923,0.9998357700292972,0.000102766446866884
-0.4771817326574819,-0.4771817326574819,0.9998836215870186,0.00011989210185324385
-0.4770031708671013,-0.4770031708671013,0.9999575355388146,0.00010511446185679993
-0.476904853330052,-0.476904853330052,1.0000599935189955,0.00010612879745446767
-0.47668156312865906,-0.47668156312865906,0.9999092980377917,0.00011012651872512897
-0.4765849953313591,-0.4765849953313591,0.9998830486787067,0.00010630000639797856
-0.47648511406150645,-0.47648511406150645,1.000094970247171,0.00010386636820781086
-0.47629428357904546,-0.47629428357904546,0.9999019546546213,0.00010949411519505512
-0.47615331447159404,-0.47615331447159404,0.9998863730086593,0.00010744820998983615
-0.47597216113790636,-0.47597216113790636,1.0000304438174328,0.000106580970466605
-0.4758452966663754,-0.4758452966663754,1.000115565578885,0.000104409965551913
-0.47575191319629084,-0.47575191319629084,1.0000106813777743,0.00010282822466881373
-0.47568801749002887,-0.47568801749002887,1.0002097576633633,0.00010268444906761338
-0.47563898672378857,-0.47563898672378857,1.000125816099756,0.00010412830120947857
-0.47553295779944166,-0.47553295779944166,1.0000207728796036,0.00010860818357616644
-0.4754329226867412,-0.4754329226867412,0.9999365127937206,0.00010478706111534682
-0.4752338418184081,-0.4752338418184081,1.000016834918099,0.00010464015174224893
-0.47508659403247294,-0.47508659403247294,1.000192574658459,0.00010262502101704
-0.4749772636962007,-0.4749772636962007,0.9999694673364281,0.00011544014002932855
-0.47483278565487125,-0.47483278565487125,0.9999224126077049,0.00010467939750621385
-0.4747038472938584,-0.4747038472938584,1.0002297023109257,0.00010431456288974248
-0.4746260431536939,-0.4746260431536939,0.9997615469792939,0.00010596404306985594
-0.47457342786947265,-0.47457342786947265,1.0000796643553846,0.00010323432793053324
-0.47442718138336204,-0.47442718138336204,0.9999661911839791,0.00010231953687181269
-0.4743071290315129,-0.4743071290315129,0.9999760234400863,0.00011287758605788612
-0.474142596690217,-0.474142596690217,1.000120448593537,0.00010751868922197563
-0.4740132045582868,-0.4740132045582868,1.0001604844596015,0.00010948005785315602
-0.47390053585841085,-0.47390053585841085,1.0000472398744005,0.00010891955468629844
-0.47379391806171045,-0.47379391806171045,1.000043728762193,0.00010270688985061362
-0.473594616704213,-0.473594616704213,0.9998231958115802,0.00010517609328191812
-0.4734140605534776,-0.4734140605534776,1.0001860094256911,0.00010623709799372077
-0.4732414971600519,-0.4732414971600519,0.9999746370060668,0.00011066663430083236
-0.4731330290887854,-0.4731330290887854,1.0000334858498725,0.00010659598971838482
-0.4730528061307268,-0.4730528061307268,1.0001007567922655,0.00010361827738210215
-0.47296852328290695,-0.47296852328290695,0.9999227245901003,0.00010471953938282429
-0.47286550447170156,-0.47286550447170156,1.0000298176885967,0.00010520820754096163
-0.4727314396790462,-0.4727314396790462,1.0000343729263466,0.00010490679401639819
-0.472642397119489,-0.472642397119489,0.999943956932967,0.00010387467340136046
-0.47244105305580886,-0.47244105305580886,1.0000602784722648,0.00010667510672584132
-0.47234433548292143,-0.47234433548292143,0.9997743530559365,0.00010662406895758914
-0.47227064955804965,-0.47227064955804965,1.000166717502047,0.00010429900103969116
-0.47217610258521747,-0.47217610258521747,0.9997597414799699,0.00010507977878679157
-0.4720217648646212,-0.4720217648646212,1.000165763213051,0.00011007908481755707
-0.4718901350905071,-0.4718901350905071,1.0002264418535902,0.00010738501594008164
-0.47172045440092913,-0.47172045440092913,0.9999965205580639,0.00010638897632030612
-0.471565083002497,-0.471565083002497,0.9999309307916384,0.00010793029811714942
-0.47144845097500365,-0.47144845097500365,1.000018052197143,0.00010242627726712221
-0.4713751220377162,-0.4713751220377162,1.000126057418426,0.00010471164578318636
-0.4712879653277923,-0.4712879653277923,0.9999034862593522,0.0001043307681710604
-0.47114774744695753,-0.47114774744695753,0.9998984716706818,0.00010358118145355397
-0.47096664487180534,-0.47096664487180534,0.9999273424929154,0.00010339593949923623
-0.4707866953787743,-0.4707866953787743,0.9999575839466643,0.00010912058651152492
-0.4706480055523571,-0.4706480055523571,0.9999016997249992,0.00010596415175256421
-0.47049629510147495,-0.47049629510147495,0.9999874904356691,0.00010512739126379618
-0.4703952653406304,-0.4703952653406304,1.0000190367287882,0.00010489672192822974
-0.4703099453749019,-0.4703099453749019,0.9999550520711418,0.00010601924052253172
-0.4701545340125449,-0.4701545340125449,0.9999526856023533,0.00010292666731179675
-0.47005641025607475,-0.47005641025607475,1.0001167312416404,0.00010780600904811556
-0.46988045539619633,-0.46988045539619633,1.0001063693723249,0.00010825027258747161
-0.46974723544844893,-0.46974723544844893,1.0001757247266851,0.00010838944348430484
-0.46965524551196725,-0.46965524551196725,0.9998946405150745,0.00010620161505385738
-0.4695773110506707,-0.4695773110506707,1.0002229790156094,0.00010216146622974267
-0.46951162073237357,-0.46951162073237357,0.9998704937637862,0.00010612599702413184
-0.4694051301878062,-0.4694051301878062,1.0000530397171257,0.00010314702473994731
-0.46915673523326407,-0.46915673523326407,1.0001478124426364,0.00010782944224582399
-0.46889621587615693,-0.46889621587615693,0.9998295888676502,0.00010566008065276667
-0.46882070710416884,-0.46882070710416884,1.0000596120947678,0.00010531272075214987
-0.46873187826713547,-0.46873187826713547,1.0001451081911676,0.00010123999955055615
-0.4686428403205355,-0.4686428403205355,1.0001962074422075,0.00010574863340876608
