time,time,flux,flux_err
-0.49928662915590394,-0.49928662915590394,1.0033358321566033,0.0032162847556759687
-0.49762160928512456,-0.49762160928512456,0.998980732492598,0.0029280385712066254
-0.4958730264639598,-0.4958730264639598,0.9992431609021304,0.0029410832070925477
-0.49441756331871145,-0.49441756331871145,0.997465763254042,0.0029266167530291086
-0.4927861639895127,-0.4927861639895127,0.9986436004845846,0.0029290322814840906
-0.49118301160560807,-0.49118301160560807,0.998595343392106,0.002933232762116103
-0.4894932233764848,-0.4894932233764848,0.9981781877623721,0.002983193971125973
-0.4872657839645399,-0.4872657839645399,1.0031507840232512,0.0029334594249287764
-0.4855047822537017,-0.4855047822537017,0.9977195499755765,0.0029320416482423854
-0.484187002319959,-0.484187002319959,1.004469557628941,0.0029263860560685
-0.48203926701607996,-0.48203926701607996,1.0043971514718164,0.002933353071665266
-0.4799177273482201,-0.4799177273482201,1.0014130666399859,0.0029676010330907414
-0.4784647089523787,-0.4784647089523787,1.0037162396714925,0.002932223685604499
-0.4768611661820614,-0.4768611661820614,1.0024397317459846,0.0029253627413273657
-0.47484889021143317,-0.47484889021143317,0.9967691947327996,0.00293239180639288
-0.47317036748936514,-0.47317036748936514,0.9996446804099435,0.002942502365348522
-0.4714107826141117,-0.4714107826141117,1.0021817901005017,0.002938657213096673
-0.4697632966643141,-0.4697632966643141,1.0039713996223587,0.0029271541002965132
-0.4680330613417027,-0.4680330613417027,1.0043445389427645,0.0029298802335385355
-0.4661179663380608,-0.4661179663380608,0.9986996318501064,0.0029306781538893404
-0.46456072386790764,-0.46456072386790764,0.999840934287605,0.0029416865422239443
-0.4630626460762869,-0.4630626460762869,1.0003206690795194,0.002923485089990706
-0.4620079579544836,-0.4620079579544836,1.0003067939096115,0.0029298840492604245
-0.46029137078003257,-0.46029137078003257,0.999472843390279,0.0029210550073876366
-0.45880155601917066,-0.45880155601917066,1.0037476220650323,0.0029326579697238446
-0.45748999603601986,-0.45748999603601986,1.0009715316700756,0.002929179994754488
-0.45590751856798306,-0.45590751856798306,1.0008269770523937,0.0029274753334240853
-0.4547017454489833,-0.4547017454489833,1.0013197330015093,0.00293112425499233
-0.45317570323386464,-0.45317570323386464,1.0032916095735995,0.002929499435273107
-0.45142560441672686,-0.45142560441672686,0.9984449950335021,0.0029393811420842754
-0.449979499688925,-0.449979499688925,0.996799988308841,0.0029241201219806323
-0.4483708239051339,-0.4483708239051339,1.0007444161921761,0.002939185475976087
-0.4467341540417692,-0.4467341540417692,0.9997627226869481,0.0029301369561626723
-0.44505271672533125,-0.44505271672533125,1.00226326788527,0.0029396013271634075
-0.4430927378620254,-0.4430927378620254,1.0066128296592673,0.0029294248295138356
-0.4413694523871527,-0.4413694523871527,0.9996908741579128,0.002929087352573767
-0.43984967352298554,-0.43984967352298554,0.9994264158959109,0.002930108798170996
-0.43757446989184245,-0.43757446989184245,1.0006859394995624,0.0029885320232928597
-0.4350064296311757,-0.4350064296311757,1.0035860381917858,0.0029303233351767833
-0.43342059803690064,-0.43342059803690064,1.0005957902519107,0.002932671470819349
-0.43162013103210484,-0.43162013103210484,0.9989831316245417,0.002925389738849346
-0.4294793023909733,-0.4294793023909733,0.9977581566621847,0.0029539674200611274
-0.42803363650964454,-0.42803363650964454,1.000907407824297,0.002935023427800584
-0.4265267237293301,-0.4265267237293301,0.996038928399463,0.002927500612595206
-0.42452244314044946,-0.42452244314044946,1.0005472918910323,0.0029302581208266367
-0.42235116575466236,-0.42235116575466236,0.9990012320256234,0.002937083950623041
-0.4206799798870634,-0.4206799798870634,0.9991956828041018,0.0029358386719286395
-0.41907818736071933,-0.41907818736071933,1.0024448793644873,0.002928407410472865
-0.4175612245730008,-0.4175612245730008,0.9977450926348009,0.0029262142114695206
-0.4158473377421615,-0.4158473377421615,1.0037746404127397,0.002928856338315084
-0.41436083075095664,-0.41436083075095664,1.0018123935288055,0.0029377880192807742
-0.41304495036965816,-0.41304495036965816,1.0053493008122312,0.0029277070812384304
-0.4115229879898834,-0.4115229879898834,1.00354032949372,0.0029319742816568467
-0.410296559753624,-0.410296559753624,0.9998564819646341,0.002923434184910151
-0.4087299691549561,-0.4087299691549561,1.0000975973151836,0.002926456541495473
-0.4069783412698598,-0.4069783412698598,1.0028775374709675,0.0029385269189962644
-0.4054337505782314,-0.4054337505782314,0.9971744267047098,0.0029229854334184586
-0.4035954512233729,-0.4035954512233729,0.998885564980684,0.0029382561973706044
-0.40206620962708256,-0.40206620962708256,1.0012312814149187,0.0029286498788138444
-0.4003177775113727,-0.4003177775113727,1.0020781495156617,0.002943784951437986
-0.39886137811408845,-0.39886137811408845,0.9988746588769443,0.0029278162650395742
-0.3972305223884177,-0.3972305223884177,0.9985044977873283,0.002929455884529273
-0.39562790720665364,-0.39562790720665364,0.9963031830712172,0.0029378355957901205
-0.3938463415091974,-0.3938463415091974,1.0028150783555585,0.003002491680044886
-0.3917104150663363,-0.3917104150663363,1.000129170407967,0.0029319710353949624
-0.389948720074608,-0.389948720074608,1.002407201930417,0.0029328025076337124
-0.3883526406389137,-0.3883526406389137,1.000934680154176,0.0029293798911717668
-0.38600223579487647,-0.38600223579487647,0.9986240827954773,0.002968545592229869
-0.3841873353616393,-0.3841873353616393,0.9978977275673436,0.002930827679046924
-0.38251869755549706,-0.38251869755549706,0.9982884511417895,0.002933558737602803
-0.3808740089625644,-0.3808740089625644,0.9963614737529201,0.0029237754270537443
-0.3789531933827675,-0.3789531933827675,1.0038158873024114,0.002947844527833737
-0.37722838350237,-0.37722838350237,0.9989772286368094,0.002926794141599304
-0.3756600838751183,-0.3756600838751183,0.9971048568479398,0.0029373413083255894
-0.37382884642647696,-0.37382884642647696,0.9956932338553568,0.0029258957965791325
-0.37247702017484696,-0.37247702017484696,0.9969713993232606,0.0029287332022952073
-0.37056246313804875,-0.37056246313804875,0.9996546347927516,0.002931667830098361
-0.36900577503620297,-0.36900577503620297,1.0020776987389257,0.0029414388535797093
-0.3675060413130268,-0.3675060413130268,1.002357629888838,0.0029242081278098688
-0.3664526405693323,-0.3664526405693323,1.0000515971471031,0.0029324178496598925
-0.36473578325749256,-0.36473578325749256,0.9991581024663168,0.0029212367488829234
-0.363245638133958,-0.363245638133958,1.0007947311454974,0.002931565964871971
-0.36193451026556434,-0.36193451026556434,0.9989693494447716,0.002930048938720022
-0.36035122700195643,-0.36035122700195643,1.0024414270307567,0.0029278213090585615
-0.3591462929951376,-0.3591462929951376,1.0042393670960463,0.0029322686042653405
-0.35762028666140394,-0.35762028666140394,0.9942175734480696,0.0029289785919937037
-0.3558703393158794,-0.3558703393158794,1.0003363996400048,0.0029388507669960316
-0.35442329910438275,-0.35442329910438275,1.0004058363547292,0.0029256403451865687
-0.3528153107101389,-0.3528153107101389,1.001623750183097,0.00293878349175715
-0.3511790311888035,-0.3511790311888035,0.9996749526687708,0.0029292190334942124
-0.34949676142059616,-0.34949676142059616,0.9986907441191744,0.002938736018254136
-0.34726416301127755,-0.34726416301127755,1.0022310730757042,0.0029330654237274237
-0.3455094246804947,-0.3455094246804947,0.9997746480450553,0.0029308235709981116
-0.3441070374166884,-0.3441070374166884,1.0027167632375444,0.0029269881991610966
-0.34201890953918335,-0.34201890953918335,1.001374279177941,0.00298448364898407
-0.33945084031802253,-0.33945084031802253,0.9984231379396427,0.0029307438540674942
-0.33786555335245794,-0.33786555335245794,0.9960447844648309,0.002932968348435174
-0.3360231478407513,-0.3360231478407513,1.0038028730820536,0.0029303350381703467
-0.3334453221599688,-0.3334453221599688,1.0025683071145788,0.002955040337043662
-0.3321556352188054,-0.3321556352188054,0.9979436307005554,0.0029319638575434777
-0.33058250715621396,-0.33058250715621396,1.0022968468554905,0.0029285086309617
-0.3284763794821629,-0.3284763794821629,0.9993155009509186,0.0029289223936663483
-0.32652731451089495,-0.32652731451089495,1.0013826223855162,0.0029382569355417367
-0.32474638785570276,-0.32474638785570276,1.0050371262901074,0.002941153332553551
-0.3230973551530042,-0.3230973551530042,0.9991355468165377,0.002928269498439819
-0.3217405969866377,-0.3217405969866377,0.9983160779391549,0.0029266647255516477
-0.32029173279588574,-0.32029173279588574,1.0001734936887425,0.0029279750224250065
-0.3188048964570044,-0.3188048964570044,1.0006297359706786,0.002936352482524278
-0.3174894474235771,-0.3174894474235771,1.003101423552105,0.0029272594415784103
-0.31596731410027135,-0.31596731410027135,1.005284224049155,0.0029320149101343565
-0.3147406006006349,-0.3147406006006349,0.9992164649167264,0.002924417399742092
-0.313174534899008,-0.313174534899008,1.0025348926538893,0.0029266640008120516
-0.3114230610510276,-0.3114230610510276,1.0023904188857216,0.002939026984973196
-0.3098779021471273,-0.3098779021471273,1.0025529190766325,0.002923636578266935
-0.3080397475991049,-0.3080397475991049,1.004194622163292,0.002939469012457399
-0.30651081099931615,-0.30651081099931615,1.0006541257195747,0.002926415063097785
-0.3047625290702854,-0.3047625290702854,0.9975765499940451,0.002944695310149864
-0.30298268120313876,-0.30298268120313876,0.9997376438533395,0.002932604526940932
-0.3013703787677514,-0.3013703787677514,0.999158850246762,0.0029310231827361023
-0.29984785035267125,-0.29984785035267125,0.9992482653449193,0.002932848112028772
-0.2975745781746809,-0.2975745781746809,1.000196087794405,0.003021962509793821
-0.2953522393523599,-0.2953522393523599,0.9991580206977251,0.002934516894784249
-0.29362735549802893,-0.29362735549802893,0.99836631450382,0.002930869377065891
-0.29198820086603516,-0.29198820086603516,1.0031110221005186,0.0029317182425185697
-0.28948035743233047,-0.28948035743233047,1.0003718765444898,0.0029669309511838127
-0.2880339118921256,-0.2880339118921256,1.0000263570122052,0.0029287762575057174
-0.28652423803141575,-0.28652423803141575,1.001818631015044,0.0029289991352626716
-0.2845227841346059,-0.2845227841346059,1.002474832479106,0.002927954211844959
-0.2825162681780057,-0.2825162681780057,0.999073559531855,0.0029504127789451154
-0.2810396721768484,-0.2810396721768484,1.002050675831586,0.0029331091501221184
-0.2794744303624611,-0.2794744303624611,1.0023127930584268,0.00292632825298478
-0.2777846286953718,-0.2777846286953718,1.0004367963942074,0.0029291981077557015
-0.2764565118144674,-0.2764565118144674,1.0001599713289973,0.0029265116371383374
-0.27470049059484153,-0.27470049059484153,1.0037070610204615,0.002938172676636799
-0.2732037230583956,-0.2732037230583956,0.9986413393010712,0.0029337834908746635
-0.2716430299115018,-0.2716430299115018,0.9996890637549616,0.0029274429209145284
-0.2706256656376354,-0.2706256656376354,1.0012294108357322,0.0029265283290084492
-0.26894054195217904,-0.26894054195217904,1.0047180594996186,0.002921132733634861
-0.2673414304634207,-0.2673414304634207,1.0001855271206668,0.002935511291445596
-0.2658647078489594,-0.2658647078489594,1.0016547320612081,0.002928619216810241
-0.26414167971015556,-0.26414167971015556,1.0032666450469692,0.0029359416413215463
-0.26251331964376734,-0.26251331964376734,1.0010470539451404,0.002930026706848965
-0.26101584699426894,-0.26101584699426894,0.993640429503485,0.0029363597403234518
-0.2596134706662269,-0.2596134706662269,1.0005544826324386,0.0029260604277957605
-0.2577877403004095,-0.2577877403004095,0.9979018463818846,0.0029297940584966037
-0.25623304020118665,-0.25623304020118665,0.9969439343779785,0.0029375486395481314
-0.25469436605562806,-0.25469436605562806,0.9995563465581163,0.0029415065928973393
-0.25273782870790457,-0.25273782870790457,0.9958868598500594,0.002930339558460176
-0.250562944165722,-0.250562944165722,0.9998767750265104,0.002928558822993995
-0.2489668025264109,-0.2489668025264109,1.0023353808685296,0.0029330626504852054
-0.24713663415677728,-0.24713663415677728,1.0015368766689694,0.0029331713727531418
-0.2442811192428053,-0.2442811192428053,1.001103472383263,0.0029811019876287807
-0.2425175028249214,-0.2425175028249214,1.0066570205177232,0.0029328251861025344
-0.24087531440673046,-0.24087531440673046,1.0005812009857122,0.0029272612509528943
-0.23836797228868817,-0.23836797228868817,1.001259694442054,0.0029536673564737005
-0.2369224835114437,-0.2369224835114437,1.002557039186107,0.0029380367302003097
-0.23541618481540355,-0.23541618481540355,1.00098702495499,0.0029288553544881053
-0.233428799797548,-0.233428799797548,0.9977190651282145,0.002931797558222011
-0.23158811943721958,-0.23158811943721958,0.9995012640804681,0.002937333530762648
-0.2299239182699239,-0.2299239182699239,1.003781027316062,0.0029373624468631235
-0.22836656168292394,-0.22836656168292394,1.0025087130989179,0.002927136260348328
-0.22659482637536713,-0.22659482637536713,1.000738579253809,0.0029275269123245095
-0.2251313954075158,-0.2251313954075158,0.9967243491172182,0.0029270524007183165
-0.22372017625020818,-0.22372017625020818,0.9999323800799453,0.0029273475422247315
-0.2223465305585705,-0.2223465305585705,0.9964936411304895,0.0029387122574879563
-0.22106888034104485,-0.22106888034104485,0.9986059879902938,0.0029254427427531115
-0.21978896549044294,-0.21978896549044294,1.0011179285928227,0.002927174652131159
-0.2180688775566523,-0.2180688775566523,0.9997012997549712,0.0029293136782377618
-0.21657474650564837,-0.21657474650564837,1.001134380960624,0.002931461220535117
-0.21516794213966933,-0.21516794213966933,1.0051677033921464,0.0029240113107831607
-0.2133449810607999,-0.2133449810607999,1.0002156149701102,0.002926822330620924
-0.21178719309682492,-0.21178719309682492,1.0022837520112458,0.0029396739113796222
-0.2102518472202064,-0.2102518472202064,0.9991509640697769,0.0029364327532613393
-0.20872199568402722,-0.20872199568402722,1.0025615307121991,0.0029335997713586977
-0.20664494322409155,-0.20664494322409155,1.0007702499458708,0.0029327617792547942
-0.20512368243653328,-0.20512368243653328,1.001356150413666,0.002931413164305841
-0.20353644956849165,-0.20353644956849165,0.997372470116509,0.0029290066541063915
-0.20095867183845256,-0.20095867183845256,0.998516470427918,0.0030176453631604325
-0.19914613594446565,-0.19914613594446565,0.999170405219753,0.0029350176856531096
-0.1976303340292361,-0.1976303340292361,0.9986452538247613,0.0029284368612703645
-0.19537286634367773,-0.19537286634367773,1.0005253106353789,0.002934444582667743
-0.19325160270673222,-0.19325160270673222,1.0022167717334716,0.002962343935520923
-0.19179731077165343,-0.19179731077165343,0.9988885511629058,0.0029326618954032086
-0.19019394048882532,-0.19019394048882532,1.000786801024448,0.002924846514517498
-0.18818173833351465,-0.18818173833351465,1.0024481753748211,0.0029337431870278016
-0.18650380945036887,-0.18650380945036887,0.9977121426524107,0.0029393108319143548
-0.18474465899998904,-0.18474465899998904,1.0020353538740785,0.0029377710902074423
-0.18309678834775694,-0.18309678834775694,1.0015055306965799,0.0029302988539394352
-0.1816560466089868,-0.1816560466089868,0.9984145432165971,0.0029249775287500906
-0.1798624353526975,-0.1798624353526975,0.9989008319479801,0.0029305071089021665
-0.1780822581058601,-0.1780822581058601,1.000737219464374,0.0029395278182472507
-0.17673716829449404,-0.17673716829449404,1.000223440970616,0.00292424771370928
-0.17548273008069373,-0.17548273008069373,0.999137139314634,0.002936481795794247
-0.17401923811412418,-0.17401923811412418,0.9995439278123115,0.00292482458698009
-0.17247943123365986,-0.17247943123365986,0.996775908198833,0.00293217516356642
-0.17098944735625993,-0.17098944735625993,1.000919381328446,0.0029326220775293278
-0.1690417458237789,-0.1690417458237789,1.0000803775713,0.0029276298317441043
-0.167438155371201,-0.167438155371201,0.9979671819767532,0.0029324699595987243
-0.16612196779824445,-0.16612196779824445,1.0041000417116472,0.0029295161532263986
-0.16458977960865012,-0.16458977960865012,0.998157148945916,0.0029418722306976805
-0.16289494403390564,-0.16289494403390564,1.0050670547382385,0.0029282811611117295
-0.1614493529588799,-0.1614493529588799,1.0032213405440324,0.002937538309837089
-0.16006879137203214,-0.16006879137203214,1.0008691541967836,0.002929049298068964
-0.15838485465064878,-0.15838485465064878,0.9998808314287331,0.002941519084724613
-0.15615340086296783,-0.15615340086296783,0.9962897459970513,0.002931778500283068
-0.15439726904805867,-0.15439726904805867,0.9973924290206645,0.0029304041320932415
-0.1527954467710515,-0.1527954467710515,1.0032791264359533,0.002927479769281954
-0.15029914926781202,-0.15029914926781202,1.003080594891254,0.0029833970378113977
-0.14803432747430634,-0.14803432747430634,1.000856491558947,0.0029332473950994375
-0.14652189432235901,-0.14652189432235901,0.9989070412164427,0.002926191090017807
-0.14426286245288794,-0.14426286245288794,0.9995243471449171,0.0029313461580974154
-0.14205905878552585,-0.14205905878552585,1.0006049124406469,0.0029504276484997377
-0.1402984687134449,-0.1402984687134449,1.005179776930989,0.0029381148951452725
-0.1386518731393153,-0.1386518731393153,0.9996335628463939,0.0029290331767023673
-0.13692539563926404,-0.13692539563926404,1.0001691851552912,0.0029342402870240676
-0.13500653691808112,-0.13500653691808112,0.9976993572842904,0.0029278722752959503
-0.1334454166746582,-0.1334454166746582,1.0016549968454296,0.002941184965316502
-0.13187857531156624,-0.13187857531156624,0.9991341339389439,0.0029234152681699745
-0.1308952275699994,-0.1308952275699994,0.9983311640794248,0.0029280062736871215
-0.12918052904642535,-0.12918052904642535,0.9987213998047327,0.0029285126654841178
-0.12769303044115077,-0.12769303044115077,0.9997217630784636,0.002934561716234419
-0.12657366803396145,-0.12657366803396145,0.9996778374990779,0.0029275343654835534
-0.1251641292219574,-0.1251641292219574,1.0009186602777063,0.0029265185121984468
-0.12395618390000891,-0.12395618390000891,1.0017778070663297,0.0029241259967013253
-0.1222783228935441,-0.1222783228935441,0.9998338118857854,0.002931583062039801
-0.12067334067614865,-0.12067334067614865,0.997407683297074,0.002931903457934166
-0.11923829724037205,-0.11923829724037205,1.0017435824401282,0.002920512585746935
-0.11759790603246074,-0.11759790603246074,1.0006733724764785,0.0029375829359716095
-0.11584688886141521,-0.11584688886141521,0.9969291983738078,0.002932215274438477
-0.11434537339009694,-0.11434537339009694,1.000391587223446,0.002938609372034277
-0.1123275906618801,-0.1123275906618801,0.9961560898444514,0.0029258621339715474
-0.11056360502334428,-0.11056360502334428,0.9990549039781295,0.0029255202477989476
-0.10896260630543111,-0.10896260630543111,1.004550791558381,0.0029383286111887537
-0.10713791960952221,-0.10713791960952221,1.0023148332318108,0.002930386971501121
-0.1044212563378096,-0.1044212563378096,1.0005247511672895,0.003012325991364263
-0.10290563609814854,-0.10290563609814854,0.9971007048011462,0.0029337800771594372
-0.10130905941841775,-0.10130905941841775,0.9985906153539952,0.002927997222267409
-0.09882973491330631,-0.09882973491330631,0.9992945924591956,0.002964822228077311
-0.09722832659244887,-0.09722832659244887,1.00426226746886,0.002925911490008361
-0.0956501390421181,-0.0956501390421181,1.0028063767216757,0.002933311613295344
-0.09379973630420864,-0.09379973630420864,0.999735739452287,0.002927391482776101
-0.09182237485874793,-0.09182237485874793,0.9996438183769116,0.0029418491921952526
-0.09025570826488546,-0.09025570826488546,1.0030624007150717,0.0029383481370178527
-0.08875309537615976,-0.08875309537615976,1.0004459841167588,0.0029267599547086473
-0.0867802967382886,-0.0867802967382886,0.9994353524122366,0.0029323357807866197
