time,time,flux,flux_err
-0.4999444291803229,-0.4999444291803229,1.0000608353613132,0.0005316218736284038
-0.4997966177201306,-0.4997966177201306,1.0006560689910564,0.0004818822754511395
-0.49967205530556386,-0.49967205530556386,0.9995357450401638,0.00044174004491518684
-0.49956172445672564,-0.49956172445672564,1.0002384380156912,0.0005138684775432133
-0.49930460058676546,-0.49930460058676546,0.9993638543547523,0.0005233909005962846
-0.4991489179818018,-0.4991489179818018,1.0001127271158414,0.00047334040896343277
-0.4990049898864527,-0.4990049898864527,1.000354611956801,0.0005707581550756445
-0.49887907835072837,-0.49887907835072837,1.0000433294783462,0.0005103424294458396
-0.4987886047369102,-0.4987886047369102,1.0004591943270946,0.00048417762112953796
-0.4986424272188742,-0.4986424272188742,0.9998162820756722,0.0005079494427955961
-0.4984262118872721,-0.4984262118872721,1.0002058772576563,0.00045626315695290883
-0.49833288456429725,-0.49833288456429725,1.0002547037611813,0.000531551420964241
-0.49825046492987896,-0.49825046492987896,1.0006256227704005,0.0005411151099554204
-0.49810745279319235,-0.49810745279319235,0.9995470719606245,0.00056064800497663
-0.4980311046638235,-0.4980311046638235,1.0002270274064073,0.0006796168704106076
-0.4979080127166526,-0.4979080127166526,0.9990983624128166,0.00046710115357935045
-0.49777797851202193,-0.49777797851202193,1.0006692856426047,0.0005386278527959919
-0.49764905171323337,-0.49764905171323337,1.0004391714812286,0.0005466613213788906
-0.49751716480604957,-0.49751716480604957,0.9995182964590665,0.0006079732149923598
-0.49738323823185054,-0.49738323823185054,1.0003721698167531,0.0005535171232098056
-0.49730102553148753,-0.49730102553148753,0.9999316500371276,0.0005915746251039676
-0.49721731144236403,-0.49721731144236403,0.9998828141458702,0.0004998349049533688
-0.49700515642907706,-0.49700515642907706,1.0007478001984937,0.0005389272859196283
-0.4968316766928183,-0.4968316766928183,0.9996465322398423,0.0005016171162052041
-0.4967298085932271,-0.4967298085932271,0.9997607443272767,0.000511238153436811
-0.4966105905928998,-0.4966105905928998,1.0003681096714068,0.000501401827202497
-0.4964718107657973,-0.4964718107657973,1.0000406115071852,0.00046008342202535896
-0.49637690450472294,-0.49637690450472294,1.0004257120683016,0.0005312521102535478
-0.49629528914883847,-0.49629528914883847,1.0001457726917162,0.00042635379991811187
-0.49615325290287726,-0.49615325290287726,1.000413571616237,0.0005027403564016433
-0.4959887530421838,-0.4959887530421838,1.000100494634729,0.0005052285480379147
-0.49587898895406396,-0.49587898895406396,1.0001278441649353,0.0004363512870078098
-0.49580034412720125,-0.49580034412720125,0.9995267712201177,0.0005284377558442547
-0.4957149148613098,-0.4957149148613098,0.9997948930947025,0.000552635169569296
-0.49562898311050957,-0.49562898311050957,1.0001270591174083,0.0005325617484179936
-0.49550838846334955,-0.49550838846334955,1.0003859902270413,0.0005148470134352019
-0.49537867345061387,-0.49537867345061387,1.0011221635488907,0.00047788300886114036
-0.49516909249286983,-0.49516909249286983,1.0003200132003212,0.0005147353232921425
-0.49508801269548713,-0.49508801269548713,0.9987772304152772,0.0005295364326214599
-0.4950190012139501,-0.4950190012139501,0.9998524393050161,0.0005117331335597094
-0.49491663661538043,-0.49491663661538043,1.0005338062741305,0.0005394920831246569
-0.4947874172583397,-0.4947874172583397,1.0005458487647414,0.0006305193392234874
-0.4946726463007508,-0.4946726463007508,0.999887598679855,0.0004709499278928092
-0.4945889205271669,-0.4945889205271669,1.000393120349119,0.0005364224835462328
-0.49442641814239324,-0.49442641814239324,1.0004210732277357,0.000541322589092823
-0.494342716979736,-0.494342716979736,1.0000961303780032,0.0004899592880185272
-0.4942416099307593,-0.4942416099307593,1.0003150022301635,0.0005999713260599824
-0.4941370553642628,-0.4941370553642628,1.0000709893913213,0.0005470824171412007
-0.4940733602430555,-0.4940733602430555,1.0000066695320513,0.000551987423034374
-0.49393515524716347,-0.49393515524716347,0.9998420485188687,0.0005047746836126861
-0.4937514355464373,-0.4937514355464373,1.0001270196139653,0.0005401260245896391
-0.4935406920485548,-0.4935406920485548,1.0001772526275174,0.00047704881918990774
-0.49342480356572194,-0.49342480356572194,0.9995378629433598,0.0005604215920276345
-0.4932958545301517,-0.4932958545301517,1.000326852281696,0.0005351038606542434
-0.49319380998058476,-0.49319380998058476,0.9999784284799432,0.0004254225507987539
-0.49311956145247676,-0.49311956145247676,1.0002439046317027,0.0005844315099374508
-0.49306937617366203,-0.49306937617366203,1.0006900124751001,0.0006926466870039127
-0.49299448602105256,-0.49299448602105256,1.0007114562576949,0.0005093307890485112
-0.4928571117823594,-0.4928571117823594,0.9993143646560524,0.0005243907652895324
-0.49272179823819895,-0.49272179823819895,0.9999985628043856,0.0004919248038815036
-0.49258521529336574,-0.49258521529336574,0.9996039277616597,0.0005060108262701016
-0.4924988962317002,-0.4924988962317002,1.000776234075369,0.0005537334962232332
-0.4924188070188393,-0.4924188070188393,0.9995927329466395,0.0005613244957962881
-0.49231811669596937,-0.49231811669596937,0.9994676766292188,0.00047596247827864013
-0.492216525884578,-0.492216525884578,0.9988743351316212,0.0006207803698034555
-0.4920478981010092,-0.4920478981010092,1.0002328063215162,0.0004820568233215924
-0.49186757667484926,-0.49186757667484926,0.9999394107517136,0.0005273761282938761
-0.4918019760851166,-0.4918019760851166,0.9998805131590686,0.0004969532868697715
-0.4916508893322316,-0.4916508893322316,1.0001095227875383,0.0005350890723257159
-0.49154165186046156,-0.49154165186046156,0.9998929828922135,0.0005928884265042873
-0.491435524111148,-0.491435524111148,0.9989445459551224,0.0005131509262290488
-0.4913222981020226,-0.4913222981020226,0.999644622290031,0.0005097870328605286
-0.491179157292936,-0.491179157292936,0.999735316497936,0.0005199589036306203
-0.49107736119258333,-0.49107736119258333,1.000039888860662,0.0005182883511834898
-0.49098864553598104,-0.49098864553598104,0.9998248956566703,0.0005637168407868502
-0.4908989618510532,-0.4908989618510532,1.0000079040585987,0.0005653102157968073
-0.49082888921548146,-0.49082888921548146,1.0001764867221303,0.000562824905597168
-0.4907094335598231,-0.4907094335598231,0.999604230760635,0.000511384144090033
-0.4905161539369146,-0.4905161539369146,1.0007842468982326,0.000547566594701276
-0.4903152869446785,-0.4903152869446785,0.9998153921175195,0.0005383059443361171
-0.4901731455276604,-0.4901731455276604,1.0001705605573321,0.0005262790384935132
-0.4901202703709714,-0.4901202703709714,1.0003333937909464,0.0005135724609240454
-0.4899943253105448,-0.4899943253105448,1.0004779462719395,0.0005061671979089947
-0.4898871788805991,-0.4898871788805991,0.9993072688148473,0.0004959569092629797
-0.4898189322993858,-0.4898189322993858,0.9995674222036397,0.0005162391581487156
-0.48975919310250904,-0.48975919310250904,0.9987943513943567,0.0005228625066239707
-0.48958718436188065,-0.48958718436188065,1.0003062763834056,0.0005172685999538093
-0.48939419262023875,-0.48939419262023875,1.000750777677579,0.0004925339383231301
-0.4892649104913289,-0.4892649104913289,0.9999054483353262,0.0005034702993062828
-0.48918441907226223,-0.48918441907226223,0.9993790257800855,0.0005562584730888754
-0.4890524886941421,-0.4890524886941421,0.9998955385650982,0.0005497259226211736
-0.48895339702794444,-0.48895339702794444,1.0008529350618898,0.0004821150416026425
-0.4886644711943518,-0.4886644711943518,1.0006204968420374,0.000515469161736263
-0.4885401382103737,-0.4885401382103737,1.000281158733747,0.0005022226322746314
-0.4884157350148598,-0.4884157350148598,1.0000258428092077,0.0005466788136711307
-0.48834460672005664,-0.48834460672005664,1.000512708137283,0.0006147911913275061
-0.4882498507766286,-0.4882498507766286,0.9994365886707628,0.0005404737878102067
-0.4881258187757339,-0.4881258187757339,0.9995192927752798,0.00043091655020335287
-0.48795455963263523,-0.48795455963263523,1.0005831522448458,0.0005964713936730825
-0.4878588882049371,-0.4878588882049371,1.0001086839570419,0.0005124949390963636
-0.48776465426635696,-0.48776465426635696,1.0002563479092967,0.0005179383757611196
-0.4876634448599361,-0.4876634448599361,1.0003906048488247,0.0005649311111492322
-0.48756464415928347,-0.48756464415928347,0.9998245501813295,0.0005647733248912944
-0.48740282568032856,-0.48740282568032856,0.999629948612788,0.0005454002524772541
-0.4871752584018395,-0.4871752584018395,0.999265784423151,0.000552070631538526
-0.4870240004143852,-0.4870240004143852,1.0004974561794309,0.0005913879061003518
-0.48694000647155916,-0.48694000647155916,1.0002043582423732,0.0005013668921008566
-0.4868802551420231,-0.4868802551420231,0.999998882652427,0.0005216184593133113
-0.4867656984701171,-0.4867656984701171,0.9996871765634567,0.0005340993057160834
-0.4866378092505329,-0.4866378092505329,0.999578162028547,0.0005453114299089085
-0.4865211104894115,-0.4865211104894115,1.000346034781285,0.0004261483728821013
-0.4864393576790462,-0.4864393576790462,0.9994223637021612,0.0005318865080227394
-0.4863274687624653,-0.4863274687624653,0.999936894310407,0.0005471954147735752
-0.48616617945372126,-0.48616617945372126,1.000364382349695,0.0004695797551681659
-0.4860339823018876,-0.4860339823018876,0.9998111719348108,0.0005210973120388704
-0.48594830599031413,-0.48594830599031413,0.9999525717155275,0.0005655537097330953
-0.48583676652342545,-0.48583676652342545,0.9994075794873799,0.0005633764778314707
-0.4856812218160485,-0.4856812218160485,1.0001745939420352,0.0004654830954251454
-0.4854762973380275,-0.4854762973380275,0.9996907294794637,0.00046665638011501734
-0.4853127053735079,-0.4853127053735079,0.9998809607660979,0.0005191542013137276
-0.48517529418168126,-0.48517529418168126,0.9998701191310847,0.0005373326411230317
-0.485074086394161,-0.485074086394161,0.9996008804846273,0.0005804224269527174
-0.4849677693797275,-0.4849677693797275,0.9996821692355514,0.0005396708788863692
-0.48484528186818354,-0.48484528186818354,0.9998630024606484,0.000452482789364754
-0.4847392217350716,-0.4847392217350716,1.00018927431701,0.0005624622623221449
-0.4846215280951583,-0.4846215280951583,0.9993299083312394,0.0005296469760167678
-0.48456903367550697,-0.48456903367550697,1.0000091540327662,0.0005427285761834325
-0.48444220782985215,-0.48444220782985215,1.0006679643529135,0.0005516114772775359
-0.4843180170551932,-0.4843180170551932,0.9995359285250945,0.0005125207158265583
-0.4841061828592501,-0.4841061828592501,1.000144570540849,0.0005591258364717426
-0.4838842901015596,-0.4838842901015596,0.9994517451059994,0.000606101822656956
-0.48373486811105976,-0.48373486811105976,1.0000083263658321,0.0006132513056088049
-0.4836654902494047,-0.4836654902494047,0.9999727196881325,0.0005301732461695243
-0.4836095537088113,-0.4836095537088113,0.9999128025808582,0.000520701314798584
-0.4834292696410557,-0.4834292696410557,1.0008720607359858,0.0005357242355236399
-0.4832598263368709,-0.4832598263368709,1.0000053950777994,0.000603544912843153
-0.48316734624459057,-0.48316734624459057,0.9997848344441141,0.0005154294632510928
-0.48307156082446456,-0.48307156082446456,0.9996829948711394,0.0005198036651418794
-0.48291251029659177,-0.48291251029659177,1.0004684406700322,0.0005658573987267679
-0.4827885602440801,-0.4827885602440801,0.9997613242795179,0.00044305283218758397
-0.4827246214605111,-0.4827246214605111,0.9999336926885819,0.0005760736416157434
-0.4826219381102419,-0.4826219381102419,1.0003539493403402,0.0005295857849937898
-0.48246943262638525,-0.48246943262638525,0.9998321096316154,0.0005123770574997674
-0.48234849388099976,-0.48234849388099976,1.0000062746931344,0.0005145963805564433
-0.4822002565284492,-0.4822002565284492,0.9995246096902399,0.0004858944577048405
-0.4820252816323773,-0.4820252816323773,0.9998033942787016,0.0005136694157420501
-0.48190887410892175,-0.48190887410892175,1.0002954672015165,0.0005312298806029461
-0.48183698032880784,-0.48183698032880784,0.9999302808144088,0.0005682525149783233
-0.48177972634803157,-0.48177972634803157,0.9998714789490155,0.0004964205081502763
-0.48163050931179896,-0.48163050931179896,1.0001253047653291,0.0005116223859899129
-0.48151095354623974,-0.48151095354623974,1.0000059928126679,0.00042509953980226736
-0.481443587110698,-0.481443587110698,0.9994237682594116,0.0005703584179978714
-0.48137904487230115,-0.48137904487230115,1.000076359756821,0.0005486338945224957
-0.4813281169503171,-0.4813281169503171,1.0003619205734506,0.0005089609413280299
-0.48123741555100424,-0.48123741555100424,0.9995856872640607,0.0004945614370677409
-0.4811776875765645,-0.4811776875765645,1.000043111008305,0.0005680067373038248
-0.48100305969492185,-0.48100305969492185,0.999466153744117,0.0005603598535918709
-0.4807654335752886,-0.4807654335752886,0.9999286953488242,0.0005115527319217296
-0.4805926599095983,-0.4805926599095983,1.000288495795654,0.0005544357159547752
-0.48048939263899226,-0.48048939263899226,0.999456634193016,0.0005770469682643336
-0.48042729453518407,-0.48042729453518407,1.0005271866683203,0.0005472990547698323
-0.4803407828934724,-0.4803407828934724,1.000061316489052,0.0005062201756168014
-0.4800815092436096,-0.4800815092436096,0.9997164035430531,0.0005460830596635655
-0.4799553349694179,-0.4799553349694179,0.9994944387188364,0.0006200763469663519
-0.4798942158435239,-0.4798942158435239,1.0000414341225425,0.0004615159731106716
-0.47983384298931925,-0.47983384298931925,1.0000899591518444,0.000504237529281831
-0.47968613938355703,-0.47968613938355703,0.9999484803639908,0.0006132128739433386
-0.4795278481040441,-0.4795278481040441,1.0002524221455757,0.0005147780788549909
-0.4794274059109739,-0.4794274059109739,1.0003384678839393,0.0005633917374590979
-0.4792885461865808,-0.4792885461865808,0.9994554910152665,0.0005039118460143206
-0.4791939376074879,-0.4791939376074879,0.999541968410656,0.000587340199490415
-0.4790643412838108,-0.4790643412838108,1.0008347020742463,0.000482054239679022
-0.47886716258726664,-0.47886716258726664,0.9997001773894079,0.0005007849261833154
-0.4787156500417041,-0.4787156500417041,0.9993682733870344,0.0005692615622718141
-0.47858416749804744,-0.47858416749804744,1.0003929612176936,0.0005920109408455315
-0.4784528295029304,-0.4784528295029304,1.0004345978492408,0.0005373977537142511
-0.47826233053347095,-0.47826233053347095,1.0001084606356159,0.000463776509150615
-0.47818008902104336,-0.47818008902104336,1.0001704310901292,0.0005485646009283051
-0.4781307543031289,-0.4781307543031289,0.9999917899200991,0.0005293483174159338
-0.47807889710456947,-0.47807889710456947,1.0005405758208639,0.0005108951115661117
-0.47800325626521956,-0.47800325626521956,1.000743031944129,0.00048196035437978325
-0.4779122207481123,-0.4779122207481123,0.9998084973024998,0.0005501896339146597
-0.477730674106715,-0.477730674106715,0.9997701021278758,0.0005735478262719523
-0.47760995157732394,-0.47760995157732394,1.0000953293740638,0.0005349986018623325
-0.4774836489057634,-0.4774836489057634,1.0004532784053262,0.0004902404527414335
-0.4773613998797373,-0.4773613998797373,0.9998327518541764,0.0005337066900694407
-0.4772566947118321,-0.4772566947118321,1.000608297431721,0.0005964284422571783
-0.4771849454788025,-0.4771849454788025,0.9996386134877466,0.0005196353715630939
-0.47708591465925565,-0.47708591465925565,0.9992916093339147,0.000568256918693104
-0.4768536450137617,-0.4768536450137617,0.9994368021837328,0.00048393766890641706
-0.4766992645643768,-0.4766992645643768,1.0000726088500858,0.0005873358376523692
-0.476620162546169,-0.476620162546169,1.0001241369588247,0.0004822841891649766
-0.4765208879398415,-0.4765208879398415,0.9997044441876065,0.0005994052398544914
-0.47634672374188086,-0.47634672374188086,0.9997667142320843,0.0005925327064644563
-0.4761959168230533,-0.4761959168230533,1.0001713847686555,0.0004781541331952189
-0.4760932789373328,-0.4760932789373328,1.000116914509386,0.0005275162730138826
-0.475994335476571,-0.475994335476571,0.9999097616584225,0.0005259376359494507
-0.47586832110828253,-0.47586832110828253,1.000482652127073,0.0005277921628782194
-0.47575044244440506,-0.47575044244440506,1.000292372260046,0.0004661389097556671
-0.47553821866822543,-0.47553821866822543,0.9994903579386222,0.0005534765511562695
-0.4754078590478457,-0.4754078590478457,1.0003689861610128,0.000587470140471386
-0.47529621370631503,-0.47529621370631503,0.9997384651200587,0.0005509766589060481
-0.4751244819432031,-0.4751244819432031,0.9998695387257163,0.0005036283530776728
-0.4749912488092377,-0.4749912488092377,0.9998013542783226,0.0005454017253404308
-0.4749172540032305,-0.4749172540032305,1.000594571328343,0.0005367103557718648
-0.4748632686023484,-0.4748632686023484,1.0003019010260448,0.000490093847308732
-0.47475703134186914,-0.47475703134186914,0.9999992295075429,0.00047369062905503823
-0.4746427352758474,-0.4746427352758474,0.9994959561412997,0.0005314514359209109
-0.47436228975275296,-0.47436228975275296,0.9998388631745161,0.000515314132711076
-0.4742206384267774,-0.4742206384267774,0.9996653091531502,0.0005058440729545236
-0.47408528329251565,-0.47408528329251565,1.000413158418322,0.0005638737777509059
-0.4739945111607085,-0.4739945111607085,1.000104862559326,0.0006037292100553737
-0.47393332347783146,-0.47393332347783146,1.0006233162400844,0.00044934034199084813
-0.4738165143491642,-0.4738165143491642,0.9995968196754539,0.0004979331366106294
-0.4735646713845199,-0.4735646713845199,1.0000777786095645,0.000534865270232844
-0.4734497218756587,-0.4734497218756587,0.9999805096775048,0.0005208514034965985
-0.4733824263661518,-0.4733824263661518,0.999654921963324,0.0005137102563666442
-0.47327692772742014,-0.47327692772742014,1.00005646617089,0.0005851725472597496
-0.4731648669468996,-0.4731648669468996,0.9999376838263657,0.0005252423668381095
-0.4730082518930431,-0.4730082518930431,0.9998130832778036,0.0005266522231446624
-0.4728841651842231,-0.4728841651842231,1.0003175933386605,0.0005097793771057324
-0.47281038266446557,-0.47281038266446557,1.00057585021317,0.0004925209488261223
-0.4727089735810296,-0.4727089735810296,1.0001029774027852,0.0005446846818026591
-0.47257462850320736,-0.47257462850320736,1.0002445181386597,0.00046245850754676396
-0.472340268966218,-0.472340268966218,1.0002038292677147,0.0005329145449370216
-0.4722133940493222,-0.4722133940493222,0.9998007217275532,0.0005745869200117269
-0.4721334451955045,-0.4721334451955045,0.999902644973267,0.0005393272655836244
-0.47201101267128254,-0.47201101267128254,1.0007768412683808,0.0005383769214173759
-0.471793306642212,-0.471793306642212,0.9998331630994901,0.0005343650847692055
-0.4716719709096651,-0.4716719709096651,0.9996374522824745,0.0005339784490532934
-0.47158534794143636,-0.47158534794143636,0.9996320401067539,0.0004132810259146216
-0.4714995990681928,-0.4714995990681928,0.9999334271878905,0.00046199453316332986
-0.4713109273638111,-0.4713109273638111,0.9998916295164351,0.00043666726605873083
-0.47103333042759915,-0.47103333042759915,1.00029620862353,0.00047613227855559747
-0.47085259451778255,-0.47085259451778255,0.9999696011888988,0.0005462937199716871
-0.470760585948301,-0.470760585948301,0.9996624264993302,0.0005769658047260774
-0.4706810137227876,-0.4706810137227876,1.000515795645701,0.0005256990332516968
-0.4705828870384721,-0.4705828870384721,1.000479856896246,0.00047019951412512846
-0.47040444580561597,-0.47040444580561597,0.9995214599790424,0.000476925446547018
-0.4702398287998221,-0.4702398287998221,0.9994173458551285,0.0005306606832214337
-0.4701543591312657,-0.4701543591312657,0.9997480673376755,0.0005603705446809417
-0.4700233977935568,-0.4700233977935568,1.0000825945482976,0.0005821571996249597
-0.4699055076998775,-0.4699055076998775,1.000073025986109,0.0005093324887950394
-0.4697502210961829,-0.4697502210961829,1.0005787534904425,0.0005156944850727366
-0.4695882211191929,-0.4695882211191929,0.9997006085896919,0.0005097838957660204
