time,time,flux,flux_err
-0.4999165827133159,-0.4999165827133159,0.9998949171149927,0.0002417759111736191
-0.4998338844619866,-0.4998338844619866,0.9999658135587847,0.00024178598004993184
-0.4997699292071047,-0.4997699292071047,1.0001385750733338,0.00021824433201100648
-0.49971983088107663,-0.49971983088107663,1.0000775601994785,0.0002477078355386371
-0.4995818296192738,-0.4995818296192738,0.99964748574438,0.00023645687170506337
-0.49945049717643997,-0.49945049717643997,1.000102740671472,0.00022191337278004583
-0.4993920422683004,-0.4993920422683004,0.999777753792676,0.0002188807082004892
-0.49928941569669405,-0.49928941569669405,0.9999813081036238,0.000222740749526669
-0.49920479132197215,-0.49920479132197215,1.0000291530282066,0.00021971949035633497
-0.49905643020611024,-0.49905643020611024,1.0000175171818033,0.00026537738814813106
-0.49891287142163493,-0.49891287142163493,1.0001854341213694,0.00021976131306523523
-0.49869488897311387,-0.49869488897311387,0.9999240100580262,0.00022522295273479472
-0.4985777386275004,-0.4985777386275004,1.0001480874731232,0.0002185964374177801
-0.49849710279886494,-0.49849710279886494,0.9997182656533532,0.00023881815570152336
-0.4984023062032065,-0.4984023062032065,0.9996610346657745,0.00025757695602194084
-0.49827643505777813,-0.49827643505777813,0.999752593623267,0.0002209190755228063
-0.49794544811593366,-0.49794544811593366,1.0002259505689886,0.0002216533517590462
-0.4977823999732209,-0.4977823999732209,1.0001729474855974,0.0002365136574990683
-0.49771573715115663,-0.49771573715115663,0.9996060485366781,0.00023412452135672352
-0.4976576370638213,-0.4976576370638213,1.0002308256185033,0.0002575558692414187
-0.49755958432142505,-0.49755958432142505,1.0001857571621247,0.00022209136353884933
-0.49738650214349034,-0.49738650214349034,0.9998760488344542,0.0002166098741795337
-0.49723518186219734,-0.49723518186219734,1.000021260787895,0.00022557920397923227
-0.4971130346508289,-0.4971130346508289,1.0002076103956572,0.0002446758452685111
-0.49704600003678934,-0.49704600003678934,0.9999217082114784,0.00024349498086208453
-0.4969728272248176,-0.4969728272248176,1.000027039580368,0.0002553346075046657
-0.496856493561063,-0.496856493561063,0.9999047603065332,0.00023689624503104757
-0.49672465307012315,-0.49672465307012315,0.9997330920890137,0.0003175312992791206
-0.4965949586454371,-0.4965949586454371,0.999924731623936,0.0002403211140967768
-0.49647442773348305,-0.49647442773348305,1.0002032467003352,0.0002197828407426149
-0.49635909102362347,-0.49635909102362347,0.9999628189623028,0.00026134692688207633
-0.49627819691741026,-0.49627819691741026,1.0000139275320232,0.0002442973357806409
-0.4961942860121781,-0.4961942860121781,0.9995640011475924,0.00024047568705818325
-0.4960100311567658,-0.4960100311567658,1.000295673641531,0.00024524592560326564
-0.4959045114228502,-0.4959045114228502,0.9998578356635847,0.0002561935606038008
-0.4957947768380109,-0.4957947768380109,1.0000386836252648,0.0002189306529442559
-0.4956574866606388,-0.4956574866606388,0.9999885484176396,0.00024025136589426302
-0.4955240667419275,-0.4955240667419275,1.0001255827326507,0.00024154803081010708
-0.49541420328096136,-0.49541420328096136,0.9998314808995611,0.00022058977519459153
-0.49526521281441094,-0.49526521281441094,1.0001813704647993,0.000225256583253219
-0.495122923352028,-0.495122923352028,0.9997268165791919,0.00023840642539623664
-0.49499931935715724,-0.49499931935715724,0.9999573705325433,0.00024016303010378367
-0.49484947411328906,-0.49484947411328906,1.0000786671636426,0.00023481500983019214
-0.49468899305938974,-0.49468899305938974,1.0001788389164523,0.0002565474603506149
-0.4946055001761124,-0.4946055001761124,1.00024524580713,0.0002251873257406755
-0.4944511317531578,-0.4944511317531578,0.9999271769623359,0.00024240140229759693
-0.4942289767372131,-0.4942289767372131,1.0001126050666609,0.00022133052417103792
-0.4941447522884118,-0.4941447522884118,1.0004098854570862,0.00026088242260707313
-0.4940122175881697,-0.4940122175881697,1.0001390849074867,0.0002745243491637319
-0.49389533021385434,-0.49389533021385434,0.9998424296342543,0.0002417428831119279
-0.49381589598342546,-0.49381589598342546,0.9996474289934929,0.00021835934198798052
-0.49374235043433146,-0.49374235043433146,1.0000006599998088,0.00023845658779911798
-0.4935991370337433,-0.4935991370337433,1.0002385181978493,0.00024111473015262313
-0.493443900722923,-0.493443900722923,0.9999482214954891,0.0003181820240926871
-0.49332997911042187,-0.49332997911042187,1.00018612377813,0.0002427364596618156
-0.49325960986170686,-0.49325960986170686,0.9999345395403573,0.00024411094019158633
-0.49318241353757913,-0.49318241353757913,0.9998933044687706,0.00022894241806438296
-0.49310015082446623,-0.49310015082446623,0.9998936871857174,0.00022920277591472943
-0.4930418395786546,-0.4930418395786546,1.0001349602809557,0.00024865045226059714
-0.4929409728691098,-0.4929409728691098,0.9998929086229505,0.00021779973158130876
-0.49283956058934564,-0.49283956058934564,1.0000846780383914,0.00027322198913667516
-0.4927632357852417,-0.4927632357852417,1.0002302270005479,0.0002451391299086503
-0.4926622166756715,-0.4926622166756715,1.0001135995976793,0.00023850576297470508
-0.4925502982820035,-0.4925502982820035,0.9998142125919356,0.0002251274346570026
-0.49241406522487524,-0.49241406522487524,0.9999506934597694,0.00022270891814746334
-0.49224031339108476,-0.49224031339108476,1.0000634291095387,0.00022374791343013293
-0.49213371349833324,-0.49213371349833324,1.000007356871653,0.00024403793599641013
-0.49205988446701665,-0.49205988446701665,1.0001551353988913,0.00021900876229734973
-0.4920060429161822,-0.4920060429161822,0.9998823089713831,0.00025832444209799557
-0.4918742932008172,-0.4918742932008172,0.9998000246236541,0.00022420403229163043
-0.49173617570413625,-0.49173617570413625,0.9997793418896735,0.0002227293062290933
-0.4916572285241273,-0.4916572285241273,1.000593185519163,0.0002176655327359512
-0.4915345285895455,-0.4915345285895455,0.9999111885620323,0.0002206085261539789
-0.4914474604927818,-0.4914474604927818,1.0002212741958083,0.00022170831816681154
-0.49127711243199884,-0.49127711243199884,1.000380819161867,0.00022393366605430917
-0.491068578841805,-0.491068578841805,0.9997886286217522,0.00022046228716823975
-0.49088626528755414,-0.49088626528755414,0.9997362234471762,0.00022495782524482947
-0.49081317017335097,-0.49081317017335097,0.9999459991497824,0.00021573777809199976
-0.4907532758770685,-0.4907532758770685,0.999829380612152,0.00025582131928640736
-0.49066461418915425,-0.49066461418915425,1.0002416099530511,0.00024393571108203394
-0.4904448598870658,-0.4904448598870658,1.000037022593525,0.0002253155308515368
-0.490270153824531,-0.490270153824531,1.0000975350441403,0.00021646213251004976
-0.4901008193854068,-0.4901008193854068,1.000439625875074,0.00023699248273307893
-0.4900217189584509,-0.4900217189584509,0.9998171439345309,0.0002460665542806415
-0.4899637167814944,-0.4899637167814944,1.000030393748616,0.0002582700735736053
-0.48985672640556005,-0.48985672640556005,1.0002667536322947,0.0002184919150068584
-0.48962229012395253,-0.48962229012395253,1.0001647233408826,0.0002296919382990452
-0.48955844403753873,-0.48955844403753873,1.0000140344276356,0.00022970755867046585
-0.4894561932553188,-0.4894561932553188,0.9997509519309782,0.0002591104174239859
-0.48936076119643984,-0.48936076119643984,1.0001193453096877,0.00023788895941482456
-0.48930398025986505,-0.48930398025986505,1.0003866691740284,0.0002631202131472189
-0.48920537549056464,-0.48920537549056464,1.0002532275712572,0.0002353591923109256
-0.48907758044806543,-0.48907758044806543,1.0001335116494492,0.00022630643405961948
-0.48894751691696003,-0.48894751691696003,0.9996653992613105,0.0003174907540067931
-0.48883245148026616,-0.48883245148026616,0.9997094854071171,0.00023983489429955977
-0.4887089388554159,-0.4887089388554159,1.0001238985918788,0.00023550545121098316
-0.48864042885543313,-0.48864042885543313,1.0004342493206735,0.00024164229806663355
-0.48854889589274536,-0.48854889589274536,0.9996683784383151,0.00024194444071031605
-0.4884368865547003,-0.4884368865547003,1.0003384259585801,0.00023879309889861594
-0.4882723828530288,-0.4882723828530288,1.0003407037633216,0.00022304052942771535
-0.4881948421403649,-0.4881948421403649,1.000020868308456,0.0002560510556678811
-0.4880996598170896,-0.4880996598170896,0.9999107742068354,0.00021894412886487672
-0.4879562332876958,-0.4879562332876958,0.9997667373380172,0.00023780571125572256
-0.48782709313964007,-0.48782709313964007,1.0000821420884147,0.00024237128993426254
-0.48765925789484754,-0.48765925789484754,1.0001656834993822,0.00022366428428583174
-0.48749371314188467,-0.48749371314188467,1.000502386001029,0.00023978814253515528
-0.4873383177437063,-0.4873383177437063,0.9998992785092533,0.0002404623410228373
-0.48715807085609414,-0.48715807085609414,0.9996074346167537,0.00023635606576077666
-0.48699783795673285,-0.48699783795673285,1.0000594067746924,0.0002368334014698224
-0.4869337732663553,-0.4869337732663553,1.0001149064810047,0.00024043126083375636
-0.48680501622511657,-0.48680501622511657,0.9998994613727555,0.00021913075258189223
-0.4866588872639113,-0.4866588872639113,1.0001114042174561,0.00023872108195959314
-0.48651112011721126,-0.48651112011721126,0.9996550771437105,0.00022697588563938038
-0.4864322812441969,-0.4864322812441969,0.9999763374254942,0.0002739029967450633
-0.48631513402724524,-0.48631513402724524,1.00004423395474,0.00025953557846721654
-0.48618615447194313,-0.48618615447194313,0.999805653992035,0.0002407113900866089
-0.48611395081388764,-0.48611395081388764,1.0001067378457464,0.00021876668984180766
-0.4860434584050381,-0.4860434584050381,1.000013310113994,0.00024045641469632646
-0.4858632499308442,-0.4858632499308442,0.9999272473307241,0.00024201332705799878
-0.4857625573335099,-0.4857625573335099,0.9999051247281013,0.00030268445443922795
-0.48565346396717357,-0.48565346396717357,0.9994771311734418,0.0002742454447302729
-0.4855362809896178,-0.4855362809896178,1.0002899060536463,0.00022449614453228238
-0.48546262011659563,-0.48546262011659563,0.9999405088878905,0.0002254669843973878
-0.4854067265659978,-0.4854067265659978,0.9998119126133073,0.00022463944184860398
-0.4853419745944848,-0.4853419745944848,1.0000443805070751,0.000253059135352608
-0.4852207475865725,-0.4852207475865725,1.0000926543306083,0.0002387143793272982
-0.48513021595717876,-0.48513021595717876,0.999767238252609,0.00025830890110106395
-0.4850759375462076,-0.4850759375462076,0.9998103927027074,0.00024393951034693906
-0.4849970246730663,-0.4849970246730663,0.9997500605041398,0.00026206536339137864
-0.48485576621897053,-0.48485576621897053,0.9997215080690596,0.0002261478306193512
-0.48472640098189,-0.48472640098189,1.00045559455526,0.00022085180590697453
-0.48458297768884223,-0.48458297768884223,0.9997158106681896,0.00022256937627437168
-0.4844572495399916,-0.4844572495399916,0.9998261684306942,0.0002450466083425801
-0.48438558371926776,-0.48438558371926776,1.0000279857926724,0.00022381119072499884
-0.48433275147690436,-0.48433275147690436,0.9996722718688872,0.0002480034553560505
-0.48425288505241043,-0.48425288505241043,0.9999478441963996,0.00021739923934593888
-0.48408669469499727,-0.48408669469499727,1.0002894628113148,0.00022210973940027943
-0.4839836177896359,-0.4839836177896359,0.9999691097499726,0.00021620773459424136
-0.48386208494921445,-0.48386208494921445,1.0001577497128475,0.00022403319248069515
-0.48377282922810994,-0.48377282922810994,0.9998650052980367,0.00021894660071788613
-0.4836229309803457,-0.4836229309803457,0.9999041410788051,0.00022564358532667014
-0.48339238441112686,-0.48339238441112686,0.9998870299786468,0.00022612652503117785
-0.48323556631585235,-0.48323556631585235,1.0001537286616005,0.00021530490063278426
-0.4831532785086893,-0.4831532785086893,0.9998374686233928,0.00022405422343769205
-0.4830809894679987,-0.4830809894679987,0.9999750562683483,0.00023875626745621637
-0.4829891130357282,-0.4829891130357282,1.0000574823384716,0.00024051808036862143
-0.48283228921864063,-0.48283228921864063,1.0000953958487082,0.0002230579218171534
-0.4826027861177863,-0.4826027861177863,1.000123839152296,0.0002219241950976481
-0.4824048309434147,-0.4824048309434147,0.9997131822326262,0.0002370623958353702
-0.48232360530382723,-0.48232360530382723,1.0004404719820605,0.0002663416949598932
-0.4822789022939105,-0.4822789022939105,1.0000117829323438,0.00023717230824751973
-0.4822443002914952,-0.4822443002914952,0.9999079905455466,0.000240924220225085
-0.4820785903655633,-0.4820785903655633,0.9998759592721875,0.00021848739614651705
-0.4818762844741286,-0.4818762844741286,1.0001417985932133,0.0002286913788981767
-0.4818139608214551,-0.4818139608214551,1.0000003560814885,0.0002410319871041396
-0.4817117679405783,-0.4817117679405783,0.9998267755299246,0.00024733645774734656
-0.4816609039742616,-0.4816609039742616,0.9999268569215154,0.00025777701047066047
-0.4816175996129459,-0.4816175996129459,0.9999709621864739,0.00024733020737835546
-0.4814702024239523,-0.4814702024239523,1.0002957810329605,0.00023550970658368155
-0.4813444004634221,-0.4813444004634221,0.9999869382277022,0.0002481745145860889
-0.48120191297566633,-0.48120191297566633,0.9999970950455367,0.00023934307586117565
-0.4810920605530555,-0.4810920605530555,0.999729741769943,0.00022303145879464027
-0.4810072327782109,-0.4810072327782109,0.9997507261141019,0.0002559158553550565
-0.48091909586801196,-0.48091909586801196,1.0000526871799482,0.00022191616253065764
-0.4807856341940351,-0.4807856341940351,0.9999294682568589,0.00024056967637881813
-0.4805970510904444,-0.4805970510904444,1.0003067310582938,0.00022634366150245307
-0.4805159408984764,-0.4805159408984764,1.0003114815258365,0.0002561783617511807
-0.48043122961898915,-0.48043122961898915,0.9995933192199873,0.00022309494794509922
-0.4802715599173098,-0.4802715599173098,0.9999967017542412,0.00023828347902471206
-0.4801133334294718,-0.4801133334294718,1.0000132840885223,0.00023965747400110958
-0.4799332533046254,-0.4799332533046254,0.999986630056609,0.00022051303371656473
-0.479806584934704,-0.479806584934704,1.0000491898695105,0.00023986819304167825
-0.4796747289146879,-0.4796747289146879,0.9998802140112801,0.0002255443714318169
-0.47950051411171446,-0.47950051411171446,0.9998619638617677,0.00023760210114611856
-0.4793198859653785,-0.4793198859653785,0.9996250627962237,0.0002367482898359901
-0.47923883531912,-0.47923883531912,1.0004218091272603,0.00024230077580489332
-0.4791204215878679,-0.4791204215878679,1.0001609345817257,0.00021806054895306793
-0.47900080877298024,-0.47900080877298024,0.9996920253542013,0.0002383565929455655
-0.47885829225488125,-0.47885829225488125,1.0004495251628291,0.00022091123314043937
-0.4787716492828622,-0.4787716492828622,1.000081557976544,0.00026120262432440883
-0.47863834687086637,-0.47863834687086637,0.9998634625205364,0.00027730639894109436
-0.4784843993162212,-0.4784843993162212,1.0002414049516213,0.00024413543707399376
-0.4783795352304878,-0.4783795352304878,0.9998730807472775,0.0002222184884857269
-0.47824096772747,-0.47824096772747,1.0001091085055769,0.0002587079941780417
-0.47810955020904655,-0.47810955020904655,1.000179845513124,0.00023909418006238834
-0.4780536387050233,-0.4780536387050233,1.00003390533333,0.00028347835552457325
-0.4779286100587342,-0.4779286100587342,0.9997245908902277,0.00025793120805229526
-0.4778272609502892,-0.4778272609502892,1.000003185209089,0.00022148811071414113
-0.4777523197022674,-0.4777523197022674,1.0001953552200862,0.00022150906057577876
-0.4777021446097933,-0.4777021446097933,0.9995379328827021,0.00022374830006960766
-0.4775995499701821,-0.4775995499701821,0.9999825148291478,0.00025236295294798095
-0.4774560064106481,-0.4774560064106481,1.0000482394325423,0.0002729186430027731
-0.47738763857705635,-0.47738763857705635,1.0002151528064185,0.00024853801592893485
-0.4773092427436495,-0.4773092427436495,0.9995258999554657,0.00023928227486364547
-0.477150763355894,-0.477150763355894,0.9999130687665291,0.0002251908244266238
-0.47703015712395425,-0.47703015712395425,1.0000240590233809,0.00021761668425166361
-0.47692398502185823,-0.47692398502185823,1.0002905632688215,0.0002247193551097835
-0.4767609558432014,-0.4767609558432014,0.9999841924528339,0.0002412036404026643
-0.4766911614067794,-0.4766911614067794,0.9998979633387852,0.0002192098271732178
-0.4766296084759233,-0.4766296084759233,1.000288896539612,0.00023662942818978216
-0.47653947759317816,-0.47653947759317816,1.000180001590293,0.0002326211339203859
-0.4763718909649469,-0.4763718909649469,0.999983390380869,0.00022208017801592014
-0.4762941918103024,-0.4762941918103024,1.0000678543673551,0.00021885949387251413
-0.47620799923242885,-0.47620799923242885,0.9999669234735963,0.0002244299803946999
-0.47611477243408445,-0.47611477243408445,1.000252572372268,0.00021910533198362834
-0.4760288990953995,-0.4760288990953995,1.00007125558694,0.00022488203393340104
-0.4758772877263254,-0.4758772877263254,0.9997866752811572,0.00022266259234239344
-0.47571648879966233,-0.47571648879966233,0.9997367581832781,0.00022192004871313017
-0.47561919541622044,-0.47561919541622044,1.000353060712134,0.00022620122817830954
-0.47550550936066427,-0.47550550936066427,0.9999529266860823,0.0002144341862466538
-0.4754252803963027,-0.4754252803963027,1.0001596669126485,0.00023898014257835867
-0.47536352486567923,-0.47536352486567923,0.9998872974164359,0.0002562858842614453
-0.47527053828380306,-0.47527053828380306,0.9998539459462273,0.00024283507768762275
-0.4750963261933066,-0.4750963261933066,1.0000148868057441,0.0002248600533135206
-0.47490031910128894,-0.47490031910128894,1.000426083793711,0.00022208783626847945
-0.4747257401504612,-0.4747257401504612,0.9999254952713006,0.0002406391645721798
-0.4746489018914872,-0.4746489018914872,1.0004176599134518,0.00023663659846203045
-0.47458825160574636,-0.47458825160574636,1.000002875129752,0.00025492866995123644
-0.47454676526685946,-0.47454676526685946,0.9998132936663255,0.00023771645179771183
-0.474485582907073,-0.474485582907073,1.0005141986126591,0.00021874772245532962
-0.4743589666017215,-0.4743589666017215,1.0000634960529535,0.00022258627824695321
-0.47417073278847965,-0.47417073278847965,0.9999421618308219,0.0002462103272533148
-0.4740886511783174,-0.4740886511783174,0.9997772720907749,0.00022693029924824586
-0.47398492483989685,-0.47398492483989685,0.9998347114099214,0.000262795898590899
-0.4739105185108201,-0.4739105185108201,1.0004217583533623,0.0002609178282243371
-0.47373106928862396,-0.47373106928862396,1.0002946893834421,0.0002173423012473504
-0.473619191920443,-0.473619191920443,0.9998966513582074,0.00023947323922807228
-0.4734732745077054,-0.4734732745077054,1.00027499029131,0.00023564435111100694
-0.4733510382968234,-0.4733510382968234,1.0001197607052075,0.00024255455486581857
-0.47329142788803436,-0.47329142788803436,0.9997156729874364,0.00023518261534242443
-0.47315532456341314,-0.47315532456341314,1.0001946622364328,0.0002427944998251792
-0.47299003620937585,-0.47299003620937585,1.0000071691178019,0.00022220111083338638
-0.4728977568949631,-0.4728977568949631,1.0004217952872345,0.00024490713377205067
-0.47283181914608574,-0.47283181914608574,0.9998496320143045,0.0002382998068267917
-0.47274146776253473,-0.47274146776253473,0.999885538568488,0.00022022339010090643
-0.47263050295659925,-0.47263050295659925,1.0002153099989888,0.00023990232263795618
-0.4725307802691532,-0.4725307802691532,1.000177460184526,0.00021946106375508837
-0.47245038117835064,-0.47245038117835064,1.000359418272678,0.0002576126545353136
-0.47234066728706237,-0.47234066728706237,1.0002437544894363,0.0002218775231791168
-0.47218195505265614,-0.47218195505265614,0.9996025498363654,0.00021876742356151984
-0.47207539517112307,-0.47207539517112307,0.9998689686434789,0.00024173559476408962
-0.47189975285728,-0.47189975285728,1.0001350867639467,0.000223774312555219
-0.4717066238146799,-0.4717066238146799,0.9999631193089462,0.00023399347303955414
