time,time,flux,flux_err
-0.49996954077081074,-0.49996954077081074,1.000006184602909,0.00014178017142675752
-0.4998591581796063,-0.4998591581796063,0.9997246092034132,0.00012840753049811086
-0.49971851735244854,-0.49971851735244854,0.9998656082861805,0.00012209611152303224
-0.49962728412501745,-0.49962728412501745,1.000065737534154,0.0001261655443366437
-0.49957883964161737,-0.49957883964161737,1.0000652915465538,0.00012842413308003275
-0.49947228456949233,-0.49947228456949233,0.9999350404367189,0.00012945725506038016
-0.49933936253073624,-0.49933936253073624,0.999952412348615,0.0001273788931571099
-0.49926655609742737,-0.49926655609742737,1.0002488363208533,0.0001293661784280008
-0.499098873406183,-0.499098873406183,0.9999702258542582,0.00012988499822677346
-0.4989354732511856,-0.4989354732511856,0.9999798019125562,0.00013079281808939895
-0.4988287300271622,-0.4988287300271622,0.9999709426838581,0.00012917983006091493
-0.49876535012372186,-0.49876535012372186,0.9997875328954396,0.00013184602272785814
-0.4986251312075183,-0.4986251312075183,1.0000363391115294,0.00012839981040474279
-0.4985046175963362,-0.4985046175963362,0.9999930738289375,0.00012703518076383322
-0.49842098827066367,-0.49842098827066367,0.99998678155916,0.0001266778569770155
-0.4983086901396746,-0.4983086901396746,0.999982820245814,0.0001254676073971271
-0.4981389184256841,-0.4981389184256841,0.9998438661933081,0.0001284635389074869
-0.49798754840448967,-0.49798754840448967,0.9998782630404678,0.00012948691685917528
-0.49792230923631,-0.49792230923631,0.9998954386059877,0.00012832532666673377
-0.4978557688606088,-0.4978557688606088,1.0002629613916034,0.0001284595776042256
-0.4976808263148996,-0.4976808263148996,1.0000813966816882,0.00012955944293107245
-0.4975482106936397,-0.4975482106936397,1.0002058134438223,0.00012661080327438183
-0.4974351338489214,-0.4974351338489214,1.0000816557756216,0.00013299742564075825
-0.49728079249252916,-0.49728079249252916,1.000025531967683,0.00012782202902386416
-0.4972307505187928,-0.4972307505187928,0.9999906116354241,0.00013451830814518266
-0.4970594306927524,-0.4970594306927524,1.0001247264537376,0.00012237480776568116
-0.4969820273545338,-0.4969820273545338,1.0001230333553766,0.0001261789745681197
-0.4968695248913718,-0.4968695248913718,1.0000326657054899,0.00013198586210292176
-0.4967062333205831,-0.4967062333205831,0.9999420968664505,0.0001289802713139008
-0.4965903007585439,-0.4965903007585439,1.0000422632437713,0.00012972229773866345
-0.4964665413310286,-0.4964665413310286,0.9999257669053543,0.00012723940642512833
-0.49637971783668033,-0.49637971783668033,0.9998673374365696,0.0001290556969016785
-0.4962864253335283,-0.4962864253335283,0.9998169610366385,0.00013032787653923544
-0.49617201485307305,-0.49617201485307305,0.9998777138875161,0.00012043260034414929
-0.4960917220923875,-0.4960917220923875,1.00013433409933,0.00012867395289896424
-0.4960241129760107,-0.4960241129760107,0.9998391412073984,0.00012560347370656351
-0.4959647251336719,-0.4959647251336719,0.9998925388681368,0.00013220563648455979
-0.4958367371764325,-0.4958367371764325,0.9999075644161678,0.0001227147502161022
-0.49572812335391064,-0.49572812335391064,0.9998965237843944,0.00013332451522469249
-0.4956594671930361,-0.4956594671930361,0.9997656321910753,0.0001246310496810205
-0.4955461553225177,-0.4955461553225177,0.9999460175510665,0.00012769542673072884
-0.49539659105139433,-0.49539659105139433,1.0001369118757502,0.0001298099575131098
-0.49525343500645247,-0.49525343500645247,0.9999549447409366,0.00012960605936361203
-0.4951927546746447,-0.4951927546746447,1.0001407557580269,0.00012812698332692442
-0.4950971939135343,-0.4950971939135343,1.0000085296520909,0.00012958009617090383
-0.49495509893313283,-0.49495509893313283,0.9999970078814038,0.00012636737752310233
-0.49486632157713756,-0.49486632157713756,0.9999943187157898,0.00012622415903692342
-0.49472741155768746,-0.49472741155768746,1.0000536562819757,0.000129685843891727
-0.4945517375737836,-0.4945517375737836,1.000088630591904,0.00013166412650736148
-0.49442659671403816,-0.49442659671403816,1.0001351213474985,0.00012940665735454158
-0.49434584691771305,-0.49434584691771305,1.0000282353700354,0.00012778985553353383
-0.49428326514535004,-0.49428326514535004,0.9999913827645898,0.0001284390935674788
-0.4940886401294847,-0.4940886401294847,0.9999587096778866,0.00012954725273031764
-0.49396221694914855,-0.49396221694914855,0.9999181038139688,0.00013013048610742954
-0.49381383377258314,-0.49381383377258314,0.9998784721005369,0.00013009510040250526
-0.4936826352917706,-0.4936826352917706,1.000171080978251,0.0001280397979256922
-0.4935736015482689,-0.4935736015482689,1.0000976012514744,0.00013237753837155226
-0.4934352739692258,-0.4934352739692258,1.0000138975032165,0.00012499140851124027
-0.49336385048372905,-0.49336385048372905,1.0002414167682094,0.00012561767157745848
-0.4932534990890417,-0.4932534990890417,0.9999095341488268,0.0001320770016925767
-0.49316987799538764,-0.49316987799538764,0.9998987504020113,0.000128672331820644
-0.4930328367103357,-0.4930328367103357,1.0002412387501012,0.0001281713599604691
-0.49292245064571033,-0.49292245064571033,1.000005752067904,0.00013069535382231984
-0.4928104239850654,-0.4928104239850654,0.9999722376049937,0.00012716793089969036
-0.49271228036886894,-0.49271228036886894,1.0000161334127222,0.00013053516766963063
-0.49255532822935494,-0.49255532822935494,0.9999149315244737,0.00012152930057593688
-0.49248483589326497,-0.49248483589326497,1.0001992421973633,0.00012765294047848563
-0.4924173107610841,-0.4924173107610841,1.0000452447499901,0.00013213919089970924
-0.4923532041575527,-0.4923532041575527,0.9998481709022897,0.00012891293565592312
-0.4922438673558645,-0.4922438673558645,0.9998817661538533,0.00012661056721665527
-0.49210752355429577,-0.49210752355429577,0.9999638104452316,0.00013117417744920888
-0.49201664629290465,-0.49201664629290465,1.0000564151812688,0.00012662347097596802
-0.4919076361860789,-0.4919076361860789,0.9998235216996809,0.00012908833757922333
-0.4917469908883504,-0.4917469908883504,1.0002248993371161,0.00012764926603191636
-0.49164313342189414,-0.49164313342189414,0.9999554660254655,0.0001291095918473705
-0.4915841001769877,-0.4915841001769877,0.9997837214505678,0.00013170657142153665
-0.4913962588980212,-0.4913962588980212,0.9999094883207201,0.00012651919192818646
-0.4913128481930471,-0.4913128481930471,1.0000813077114163,0.00012210070224284944
-0.49118961889180357,-0.49118961889180357,1.0000655136955952,0.0001293522250757533
-0.4909660135730519,-0.4909660135730519,1.0000071963902846,0.00013027017301076618
-0.49083253424760187,-0.49083253424760187,1.000137502402675,0.0001303725598215302
-0.490756676793535,-0.490756676793535,1.000100766356778,0.00013200952203580298
-0.4906704865927168,-0.4906704865927168,1.0001909099299973,0.00012583149342929408
-0.4905076669099799,-0.4905076669099799,0.9999526373464868,0.00012699440653117514
-0.49038536170919544,-0.49038536170919544,0.9998829828925503,0.00012910572513873036
-0.49024314346315806,-0.49024314346315806,0.999890365369953,0.00012693779141475096
-0.4901211022617645,-0.4901211022617645,1.0000344203908231,0.0001408263135671048
-0.489954982749623,-0.489954982749623,0.9996891835247442,0.00012314461551018958
-0.4898300253858906,-0.4898300253858906,1.0000776739575785,0.00012829581205277708
-0.48974922619818245,-0.48974922619818245,1.0000804860034236,0.00013062984887052492
-0.4896390335539763,-0.4896390335539763,1.0000525120026897,0.00012638867850931398
-0.4895061517148861,-0.4895061517148861,0.9999818338831247,0.000128872488275603
-0.48939790703807373,-0.48939790703807373,1.0001062211956162,0.00012629826888872273
-0.48930573988182,-0.48930573988182,1.0000068502011474,0.00012438095583263515
-0.4892312000883976,-0.4892312000883976,1.0000445683714037,0.00012717459573288219
-0.4891520839897566,-0.4891520839897566,0.9998512287419906,0.0001290782189138016
-0.4890452756815648,-0.4890452756815648,0.9999720613868055,0.00012624548811110908
-0.48891985838999974,-0.48891985838999974,0.9998208657004911,0.00012854938628955573
-0.48882971650673424,-0.48882971650673424,1.000188089334714,0.00013058303237029683
-0.4887939682805154,-0.4887939682805154,1.0000761635596844,0.00013435716708958255
-0.4886754529994505,-0.4886754529994505,0.9998436834816526,0.00012628266203306026
-0.48851027006239744,-0.48851027006239744,0.9998630864230019,0.00012937424483809711
-0.48842249453955444,-0.48842249453955444,1.0000955433108654,0.00012890701977035017
-0.4883320350643771,-0.4883320350643771,1.0000220662576418,0.00012758983251365616
-0.4881955969714909,-0.4881955969714909,0.9999898411949859,0.00013359806751128044
-0.4880584398189967,-0.4880584398189967,1.0000095267192095,0.0001260638769370037
-0.48799604482846914,-0.48799604482846914,1.0000383808387658,0.00013121573859217823
-0.48781510746339335,-0.48781510746339335,0.999726434112227,0.00012335922893149347
-0.4877328880873392,-0.4877328880873392,0.9999156226046342,0.00012525918184632894
-0.48762612544815054,-0.48762612544815054,1.000253287862425,0.00012839593715327236
-0.48749389815711763,-0.48749389815711763,0.9997782827634245,0.00012464344503125639
-0.48731998731091153,-0.48731998731091153,0.9997754350147655,0.00013021554468959073
-0.4872053427614446,-0.4872053427614446,1.0002079986061072,0.00012971176764761991
-0.4871582904248498,-0.4871582904248498,0.9999467081974587,0.00013086974797799653
-0.48704460667140664,-0.48704460667140664,0.9999333280277083,0.00012782665287934335
-0.4868603022427124,-0.4868603022427124,1.0000707699363829,0.00012897287085626645
-0.48673114631528736,-0.48673114631528736,0.9998835923320959,0.00013040542601455802
-0.48657757812543423,-0.48657757812543423,0.9999252261081392,0.00013018427519496644
-0.4864405647931562,-0.4864405647931562,1.0000289650858933,0.00013977269757296936
-0.4862517344605294,-0.4862517344605294,0.9999280955257683,0.00012897060605303532
-0.486172355353483,-0.486172355353483,1.000127063118995,0.00012976990258368895
-0.4860626690475328,-0.4860626690475328,1.0001637493952862,0.00012836219758824479
-0.48590354694752025,-0.48590354694752025,1.0001764957952861,0.00012968835091867295
-0.4857901540519379,-0.4857901540519379,0.9999747439498977,0.00012606664362316018
-0.4856843564695737,-0.4856843564695737,1.000053370060271,0.00012942393967360286
-0.48559128172128113,-0.48559128172128113,0.9998982761049611,0.0001271289002474738
-0.4854668785454123,-0.4854668785454123,0.9998797543516748,0.0001249119716740053
-0.4853432529875136,-0.4853432529875136,1.0000129002527969,0.00012855103390500337
-0.48529113481199604,-0.48529113481199604,0.9999636066840061,0.00012556983664575706
-0.48523468227140254,-0.48523468227140254,0.9999589268635862,0.00012942776550853996
-0.48518323815587794,-0.48518323815587794,0.9999638251214129,0.00012803041221163847
-0.4850795846927213,-0.4850795846927213,1.0001016105347609,0.00012645424772031488
-0.4849409444635967,-0.4849409444635967,1.0001273002230582,0.00013083757351877164
-0.48485862923262174,-0.48485862923262174,0.9998243869429334,0.00012953968615043104
-0.4847582224436337,-0.4847582224436337,1.0000070566618884,0.0001275806280791198
-0.48466224430303556,-0.48466224430303556,0.999946408628316,0.0001382477465974074
-0.4844846881875128,-0.4844846881875128,0.9999839567841768,0.00012635483944348455
-0.48441704197248325,-0.48441704197248325,0.9999536892320849,0.0001311729797243482
-0.48427421218293604,-0.48427421218293604,1.000012980629739,0.00012496913291140319
-0.48414706686598946,-0.48414706686598946,0.9998148063328267,0.0001252558055659804
-0.48401145091775105,-0.48401145091775105,0.9999764620332096,0.00012406797385809698
-0.4838544472637295,-0.4838544472637295,1.0001113418698038,0.00012902973814567548
-0.4836226261832053,-0.4836226261832053,1.0000219003242878,0.00013124447656194163
-0.4835433957938221,-0.4835433957938221,0.9999125716842399,0.00012822158298052673
-0.4834650623204652,-0.4834650623204652,0.999873764902811,0.00012816764525359144
-0.48334394350094956,-0.48334394350094956,0.9999816420699783,0.0001270224904192504
-0.48326128693006465,-0.48326128693006465,1.0000701447787577,0.0001272494844773073
-0.4831169794531888,-0.4831169794531888,0.9999957780112269,0.00012878846377329845
-0.4830211542568577,-0.4830211542568577,0.9999833659719048,0.00012954164908865302
-0.4828765758080408,-0.4828765758080408,0.9998661341420414,0.00014607171452796629
-0.48270912191001114,-0.48270912191001114,0.999735820928492,0.00012936297091787713
-0.4826307236704451,-0.4826307236704451,0.9999073882126719,0.00012734043480988917
-0.48257137930195315,-0.48257137930195315,0.9998746017341649,0.00013224186513784982
-0.4824091580332606,-0.4824091580332606,0.9999979264654908,0.00012916630859669958
-0.48226073237819944,-0.48226073237819944,1.0000199626441375,0.00012684743166428402
-0.48218954939293324,-0.48218954939293324,0.9998329975777095,0.00012601878042735017
-0.4821137926002848,-0.4821137926002848,0.9998691651999365,0.00012739655164958148
-0.48201571893732764,-0.48201571893732764,0.9997830083686893,0.0001275957104904107
-0.48192955416452604,-0.48192955416452604,0.9999163176554837,0.00013042634724997427
-0.48180445790567317,-0.48180445790567317,1.0001737779887248,0.00012693550859693364
-0.48172715104519737,-0.48172715104519737,0.9999871949616457,0.00012639697862234787
-0.48166677695626275,-0.48166677695626275,1.0001132394419954,0.00013241654297914637
-0.4816090817657823,-0.4816090817657823,1.0000327541425515,0.0001274539994699448
-0.4814803656641743,-0.4814803656641743,1.0000249281693763,0.0001326337276919641
-0.4813196654227795,-0.4813196654227795,1.0001112972924808,0.0001247278331758901
-0.4812363483128138,-0.4812363483128138,1.0002887379646308,0.00012866491300130887
-0.4811453978829377,-0.4811453978829377,0.9998423860544443,0.00013438379695995947
-0.4810240631610213,-0.4810240631610213,0.9998890288699599,0.0001338521875959964
-0.4808646810939535,-0.4808646810939535,0.9998873073528378,0.00012739786258374595
-0.48080389321039546,-0.48080389321039546,0.9999276021566734,0.00012917755447209358
-0.48062429649507976,-0.48062429649507976,0.9999119678846486,0.00012396443394092552
-0.4804889291342988,-0.4804889291342988,0.9999554332191923,0.00012424093598168464
-0.4803288487870304,-0.4803288487870304,1.000053512678989,0.00013097346277459902
-0.4800796093586541,-0.4800796093586541,0.9999866819163223,0.00012805888026905335
-0.47998683063633507,-0.47998683063633507,0.9997661173863633,0.00012760741221936567
-0.4799111464591988,-0.4799111464591988,1.0000810028261382,0.00012704436041983963
-0.4797609382047085,-0.4797609382047085,1.0000600318087938,0.00013059432499571945
-0.4796244837845734,-0.4796244837845734,1.0000014751903357,0.00012843705315126636
-0.4794909431999258,-0.4794909431999258,0.9999856587423785,0.00013094808365284228
-0.4793807623740577,-0.4793807623740577,1.0000542709114826,0.0001287677291709139
-0.47916976243723186,-0.47916976243723186,1.000204923795914,0.00012835580900931112
-0.47906794141890713,-0.47906794141890713,0.9998509327555822,0.00012596442323688787
-0.47901698567075074,-0.47901698567075074,1.0001767389857201,0.00013179946324199407
-0.4789422780711902,-0.4789422780711902,1.0000842796897373,0.00013206662183773998
-0.4787953445171297,-0.4787953445171297,1.0001534881013767,0.00012872063222568465
-0.47867352627872606,-0.47867352627872606,1.0001226458760757,0.00012590003318606937
-0.47862417931755774,-0.47862417931755774,1.0001024404108603,0.00012703359947367315
-0.47854063699705873,-0.47854063699705873,0.9998646996110949,0.00012634539893107539
-0.4784428991988534,-0.4784428991988534,0.9999238212128908,0.00012760103727982362
-0.47833413217304044,-0.47833413217304044,1.000185593816223,0.000128295108559359
-0.47823297721843117,-0.47823297721843117,1.00008123468986,0.00012693729875726186
-0.4781531646505755,-0.4781531646505755,0.9999857971526867,0.00012566764956602693
-0.4780735467589693,-0.4780735467589693,0.9999700539572893,0.00013012507886538274
-0.47799907066728337,-0.47799907066728337,1.0003794508476198,0.0001308469349664767
-0.47785812842776065,-0.47785812842776065,0.9999372752284197,0.00013083637501333766
-0.47770141118380705,-0.47770141118380705,1.0001234905792549,0.00012857520400895255
-0.4776361932817963,-0.4776361932817963,1.0000086239206716,0.0001270996831706552
-0.4775712379647302,-0.4775712379647302,0.9996220395963327,0.0001371962046692225
-0.4774933012195106,-0.4774933012195106,1.0000189328977582,0.00013290970223612112
-0.47730221904203063,-0.47730221904203063,0.9998221504828535,0.00012962201045619805
-0.4772133504389785,-0.4772133504389785,1.0000927785731377,0.0001280159373790459
-0.47704479281237583,-0.47704479281237583,1.0000687130319448,0.00012397269194943582
-0.47693761023983827,-0.47693761023983827,0.9999114667214457,0.0001243476794722268
-0.47676101766337525,-0.47676101766337525,1.0000020890424672,0.00012699557353762129
-0.47657980388394205,-0.47657980388394205,0.9999244544339356,0.00012630203170968854
-0.4764384181369678,-0.4764384181369678,0.9999371158963182,0.00012920593349601087
-0.4763428228405246,-0.4763428228405246,1.000048631840301,0.00012637157101050574
-0.47624039005604574,-0.47624039005604574,1.0000839179771082,0.00012712641531104643
-0.47612081142360696,-0.47612081142360696,1.00008763129122,0.0001304073258545987
-0.4760077447295771,-0.4760077447295771,1.0000005072488525,0.00012784754133292415
-0.47586751123744764,-0.47586751123744764,0.9998597381198916,0.00013110680046951546
-0.4757636129579623,-0.4757636129579623,0.9998674253854523,0.00012847807628984574
-0.47559508515914783,-0.47559508515914783,0.9999511007281324,0.0001278528948561762
-0.47547992825420804,-0.47547992825420804,1.0000390080889552,0.0001280423493181975
-0.4754261099929863,-0.4754261099929863,0.9999073495686324,0.0001295146934565371
-0.47530337524949573,-0.47530337524949573,0.9999276945723107,0.00013092900961118853
-0.47511988453479714,-0.47511988453479714,0.9999511678579515,0.00013036052327753962
-0.47506641051222687,-0.47506641051222687,1.0000414369405062,0.0001282575183716668
-0.4749991522738128,-0.4749991522738128,0.9999806590948248,0.00012347391995426687
-0.4749495070755074,-0.4749495070755074,0.9999875934902775,0.00012636057358228437
-0.47481604082931883,-0.47481604082931883,0.9999153785009621,0.00012760084485331717
-0.474717412237078,-0.474717412237078,0.9998961111279794,0.00012640823298690364
-0.4746078853670042,-0.4746078853670042,0.9998698470775185,0.0001248765268598602
-0.4745193473798281,-0.4745193473798281,0.9999807857943873,0.000131741196015334
-0.474453723692568,-0.474453723692568,1.0001681205214816,0.00012739512838395213
-0.4743559697206365,-0.4743559697206365,1.000122417601117,0.0001288930487638386
-0.4742226241818571,-0.4742226241818571,0.999960506162866,0.0001325611008151333
-0.4741315807565115,-0.4741315807565115,1.000063649503182,0.00012945830223609823
-0.4740448668955651,-0.4740448668955651,0.9999085641466767,0.0001288928867768666
-0.4739800144619949,-0.4739800144619949,0.9999647220599389,0.00013793982054302291
-0.47381589284486836,-0.47381589284486836,0.9999292099379364,0.00013257968542961033
-0.4736716887418879,-0.4736716887418879,1.0003215772700358,0.00013001905370820186
-0.4735860207947553,-0.4735860207947553,1.0000197705048692,0.0001258202446208036
-0.4734496326374938,-0.4734496326374938,1.0002153670687668,0.00012353437470574905
-0.4733055031443655,-0.4733055031443655,0.9998401100550176,0.00012673111992215553
-0.4730792463378748,-0.4730792463378748,1.0001614853170213,0.00012893146172357766
-0.4728671674092766,-0.4728671674092766,0.9999392954452752,0.00012843797185425795
-0.4727831551324925,-0.4727831551324925,1.0000952749343905,0.000127703644413831
-0.47270741747270223,-0.47270741747270223,0.9998649428996021,0.00012872614870253733
-0.4725761754474661,-0.4725761754474661,0.9998534575368628,0.0001285186167262047
-0.47246135511086323,-0.47246135511086323,0.9998364941213899,0.0001279639273227739
-0.4723211174525204,-0.4723211174525204,1.0000245099668406,0.00012862577700401657
