time,time,flux,flux_err
-0.49987800042557257,-0.49987800042557257,0.9999798476858816,6.850910095823108e-05
-0.49965017784961674,-0.49965017784961674,0.9999037030761183,6.669578027963536e-05
-0.49940941538564704,-0.49940941538564704,1.0000549879018377,7.002440012243241e-05
-0.49910696295919477,-0.49910696295919477,1.000111749408918,6.212240052962642e-05
-0.498867847067595,-0.498867847067595,1.000065922218227,6.086104242046619e-05
-0.4985197231340862,-0.4985197231340862,1.0000494609094825,6.45680005487848e-05
-0.4983519598361454,-0.4983519598361454,0.9999834596217886,6.102998854108276e-05
-0.4981441144525888,-0.4981441144525888,0.9998605109861259,6.411035812903306e-05
-0.49795541776911706,-0.49795541776911706,1.0000028664301788,6.009227713877404e-05
-0.49776727247153757,-0.49776727247153757,0.9999251206995922,6.388809796553723e-05
-0.4974785170677933,-0.4974785170677933,0.9999407766116051,6.396666292694984e-05
-0.4970848077733535,-0.4970848077733535,0.9999461255217449,6.223580982984175e-05
-0.4968532619110192,-0.4968532619110192,1.0000975002874621,6.264772170061542e-05
-0.49647746237023965,-0.49647746237023965,0.9999633859892931,6.26557164830806e-05
-0.4962744188582292,-0.4962744188582292,0.9999335920961385,6.218165130356657e-05
-0.49617471497913357,-0.49617471497913357,0.9999697725934782,6.382506172223279e-05
-0.4960790700155485,-0.4960790700155485,1.0000523333497087,6.339099947235698e-05
-0.49591619779384927,-0.49591619779384927,1.0000300575146313,6.124141517902067e-05
-0.4956741337875428,-0.4956741337875428,1.0000449738228947,6.41385083351988e-05
-0.49535575734407755,-0.49535575734407755,0.9999342710940489,6.18134858554123e-05
-0.4951581711888139,-0.4951581711888139,0.9999613809043388,6.106109606958414e-05
-0.4949668594475952,-0.4949668594475952,1.0000761805507905,6.444916065966342e-05
-0.49439592598137094,-0.49439592598137094,0.9999758310442555,6.0088654043636454e-05
-0.4941902103826578,-0.4941902103826578,0.9998755558634637,6.0777381420139136e-05
-0.49404186545361883,-0.49404186545361883,0.9999533020963718,6.388210189615609e-05
-0.4939065441969433,-0.4939065441969433,1.0000631132259319,6.29453880043819e-05
-0.49361786050358203,-0.49361786050358203,1.0000624902931967,6.249357487818949e-05
-0.49316205039795025,-0.49316205039795025,0.9999885998476316,6.301912284106517e-05
-0.49293507623369803,-0.49293507623369803,1.0000237518018302,6.05241190801512e-05
-0.4925363586808089,-0.4925363586808089,0.9998899520669422,6.585925012493938e-05
-0.492289311800414,-0.492289311800414,0.9999840264225893,6.243750067020489e-05
-0.49201983887614914,-0.49201983887614914,0.9999658835756307,6.094761811471529e-05
-0.49179429435389466,-0.49179429435389466,0.9999614427587578,6.49803793055435e-05
-0.49157045634347013,-0.49157045634347013,1.0000426265258062,6.383237929389911e-05
-0.49121243416666405,-0.49121243416666405,0.9999106618017457,6.206026277935008e-05
-0.4910905337041186,-0.4910905337041186,0.9998631983165408,6.008266720462928e-05
-0.4909251866447448,-0.4909251866447448,0.9999756224839963,6.283836399289001e-05
-0.49063464217761066,-0.49063464217761066,0.9999996156115254,6.604686109655965e-05
-0.49027918529100134,-0.49027918529100134,1.0000132810074558,6.244079397556485e-05
-0.4899751239150646,-0.4899751239150646,1.000061545742735,6.259188122747163e-05
-0.48981848434123093,-0.48981848434123093,0.9999350274564233,6.168039344806535e-05
-0.48959722998479266,-0.48959722998479266,1.000041954271682,6.299124153888932e-05
-0.4892915847769473,-0.4892915847769473,0.9999994122227495,6.224793620353444e-05
-0.48904223083663967,-0.48904223083663967,1.000001053084866,6.286249069484906e-05
-0.4888684893499885,-0.4888684893499885,0.9999726518329339,6.083949289606935e-05
-0.4887160616228357,-0.4887160616228357,0.9999335218103009,6.173748087186085e-05
-0.4884633209912863,-0.4884633209912863,1.0000196780399901,6.26261726915215e-05
-0.488052107499243,-0.488052107499243,0.9998832966742002,6.032286879329935e-05
-0.48771747706559837,-0.48771747706559837,0.9999549774603883,6.478126894705553e-05
-0.4875798590372142,-0.4875798590372142,0.9999883945527707,6.104002090422895e-05
-0.4873805672228627,-0.4873805672228627,0.9999762436583806,6.156280358033448e-05
-0.48716286410126486,-0.48716286410126486,1.0000074128925012,5.965995149866765e-05
-0.48695635647527524,-0.48695635647527524,0.9999042795411943,6.459430310618406e-05
-0.4864574640065257,-0.4864574640065257,0.9999339468106827,6.432043813043897e-05
-0.48607123198962654,-0.48607123198962654,0.9999872647944,6.262562780353979e-05
-0.48584762707032497,-0.48584762707032497,0.9999818446463319,6.404234339528863e-05
-0.48559727107567596,-0.48559727107567596,1.0000108648060952,6.4766758175558e-05
-0.48545601130390426,-0.48545601130390426,0.9999616720793176,6.367410506253254e-05
-0.4853323050578183,-0.4853323050578183,1.0000460951773953,6.486199044220299e-05
-0.4851713170799485,-0.4851713170799485,1.0000614431238364,6.12395383615134e-05
-0.48491649622956173,-0.48491649622956173,0.9999435363492015,6.202441420762629e-05
-0.4846112303639529,-0.4846112303639529,1.000026714359164,6.18690333487139e-05
-0.48437265600368845,-0.48437265600368845,1.0001390044824374,6.506463595894218e-05
-0.484144230572565,-0.484144230572565,1.0000484866693191,6.03162074397839e-05
-0.4837222407441004,-0.4837222407441004,0.9999612956078984,6.340512812261174e-05
-0.48343589358846656,-0.48343589358846656,0.9999370357279656,6.128440186566277e-05
-0.4832232977321837,-0.4832232977321837,0.9998903826123617,6.313411955962476e-05
-0.4830732935784908,-0.4830732935784908,0.9999458051724117,6.289705497390849e-05
-0.48267927597335075,-0.48267927597335075,1.0000107230680821,6.164811092954401e-05
-0.48235051681404,-0.48235051681404,0.9999142148969042,6.335199447584501e-05
-0.4821274522662861,-0.4821274522662861,0.9999823780866027,6.037059181375841e-05
-0.4817391545526334,-0.4817391545526334,0.9999528460972611,6.184978696056407e-05
-0.48154691547024414,-0.48154691547024414,1.0000716976776438,6.420336630974017e-05
-0.4813175888069964,-0.4813175888069964,1.0000769100236337,6.321173709306893e-05
-0.4811116891010897,-0.4811116891010897,0.9999936043983094,6.162317639946821e-05
-0.4809311756020179,-0.4809311756020179,0.9999555453901985,6.543324919176954e-05
-0.48066160783855594,-0.48066160783855594,1.000054940951491,6.173806897251009e-05
-0.48036709481093565,-0.48036709481093565,1.0000301366808102,6.23546347118825e-05
-0.48020581933451467,-0.48020581933451467,1.0000589256012076,6.271671899109053e-05
-0.4799109783525637,-0.4799109783525637,0.9998722124423175,6.606516820742905e-05
-0.47951504894954267,-0.47951504894954267,1.000054654041573,6.222951638745203e-05
-0.4792117760254769,-0.4792117760254769,1.0000634549165937,6.245464649316069e-05
-0.4790749199601123,-0.4790749199601123,1.000116736461337,6.169224454375843e-05
-0.4789265060760954,-0.4789265060760954,1.0000250387386633,6.160742647132089e-05
-0.4785902905263356,-0.4785902905263356,1.0000668973080564,6.286358943260521e-05
-0.47830374737168313,-0.47830374737168313,0.9999973968271998,6.255981634164189e-05
-0.47813967386246076,-0.47813967386246076,1.000024036944446,6.148843059496758e-05
-0.47790434413909677,-0.47790434413909677,1.0000268946393736,6.458447390396235e-05
-0.47771154799629584,-0.47771154799629584,1.0000437665478157,6.278138673079496e-05
-0.4775006541647599,-0.4775006541647599,0.9999962011185553,6.250127313763401e-05
-0.477017412125133,-0.477017412125133,0.9999646923144645,6.183334138551983e-05
-0.4768530752378865,-0.4768530752378865,1.0000059887941242,6.49413334055045e-05
-0.47665967215434646,-0.47665967215434646,1.000004916935413,6.128555084624288e-05
-0.4763561431907874,-0.4763561431907874,0.9999575686878976,5.99158676372071e-05
-0.4762434313612175,-0.4762434313612175,0.999968752936461,6.202681877389498e-05
-0.4759401429859281,-0.4759401429859281,1.0000101615860364,6.397646347002615e-05
-0.4755767098220531,-0.4755767098220531,0.9999780391965061,6.25013740294943e-05
-0.47524083095995595,-0.47524083095995595,1.000030880588723,6.247727799918558e-05
-0.47495281326555416,-0.47495281326555416,0.9999549730376845,6.473466437089011e-05
-0.474782078442513,-0.474782078442513,0.9999847509983969,6.199686008323631e-05
-0.474650463135913,-0.474650463135913,0.9999816458074482,6.567070680748736e-05
-0.47452492043594247,-0.47452492043594247,0.9999743226061522,6.365097672722909e-05
-0.4742873838520609,-0.4742873838520609,0.9999896828634969,6.0468049485246255e-05
-0.4740213675861014,-0.4740213675861014,1.0000790570351996,6.406114389161132e-05
-0.47370071063487557,-0.47370071063487557,0.9999882229950698,6.0979405051755266e-05
-0.47349731766589687,-0.47349731766589687,1.0000105266196473,6.255240392457964e-05
-0.4729640335215663,-0.4729640335215663,1.000053118210579,6.491086641696858e-05
-0.47272505621513117,-0.47272505621513117,0.9998615456850126,6.047901932965039e-05
-0.47252567990581157,-0.47252567990581157,0.9999655595711066,6.231567607173862e-05
-0.4723703081435815,-0.4723703081435815,1.0000296326252092,6.113572317219802e-05
-0.472220124584419,-0.472220124584419,0.9999634129185644,6.19575323195386e-05
-0.4717737669867347,-0.4717737669867347,0.9999585870775052,6.465987267121245e-05
-0.4714616907745949,-0.4714616907745949,1.0000260315572147,6.265222543523203e-05
-0.47129245531978087,-0.47129245531978087,1.0000521532069755,6.260708785018469e-05
-0.4709902296192013,-0.4709902296192013,1.000020540800598,6.198300852865206e-05
-0.4708135190543544,-0.4708135190543544,1.0000157424621186,6.189726366359827e-05
-0.4706103680880915,-0.4706103680880915,1.0001632320540461,6.442669028044126e-05
-0.4704140530433506,-0.4704140530433506,0.9999469218659615,6.14268336996778e-05
-0.47024052585766185,-0.47024052585766185,0.9999450979287975,6.266936484586314e-05
-0.4700155653008551,-0.4700155653008551,0.9999236167196507,6.39675072365334e-05
-0.4697506477670686,-0.4697506477670686,0.9999281866728218,6.212049595973385e-05
-0.46949948837282135,-0.46949948837282135,0.9999820526115928,6.435128851189895e-05
-0.46919877539985466,-0.46919877539985466,0.9997896381575897,6.454864628743909e-05
-0.46870519029253044,-0.46870519029253044,0.9999287432559104,6.029069449214844e-05
-0.4684453990499605,-0.4684453990499605,0.9999607160695005,6.463435521379953e-05
-0.46829763816785996,-0.46829763816785996,0.9999226253836536,6.342215885826357e-05
-0.46813273109000875,-0.46813273109000875,0.9999819206619518,6.165068202071456e-05
-0.46792149286775386,-0.46792149286775386,1.000108786007102,6.353009348351689e-05
-0.46763836062600606,-0.46763836062600606,0.9999644598961245,6.028068818089905e-05
-0.4674353550108208,-0.4674353550108208,1.0000297957674718,6.335269934126922e-05
-0.46727252946875525,-0.46727252946875525,0.9999345818482972,5.98339588423808e-05
-0.4670525472574809,-0.4670525472574809,1.0001327808817297,6.398490654731847e-05
-0.46676892994946684,-0.46676892994946684,0.9998998306744464,6.283939675616449e-05
-0.4665531478261983,-0.4665531478261983,0.9998204350727684,6.23965707962592e-05
-0.4662150151219976,-0.4662150151219976,1.0000026463635567,6.371504157260157e-05
-0.4660503171922755,-0.4660503171922755,0.9999851289460796,6.286600208136648e-05
-0.46589507447279177,-0.46589507447279177,1.0000295809896182,6.128067348653745e-05
-0.4655649818538222,-0.4655649818538222,1.0000924287877309,6.011976292244161e-05
-0.465373918053956,-0.465373918053956,0.9998940367505579,6.397873725685587e-05
-0.4650816668166954,-0.4650816668166954,0.9999112146357383,6.2723784009306e-05
-0.4647100214511738,-0.4647100214511738,0.9999804588338765,6.456163935327167e-05
-0.4644216566310206,-0.4644216566310206,1.0000638711913732,6.234262066762505e-05
-0.4642320986065897,-0.4642320986065897,0.9998800301494513,5.977245116298512e-05
-0.46407144719923965,-0.46407144719923965,0.9999161377740297,6.283846130725432e-05
-0.46393083930015566,-0.46393083930015566,0.9999758899785883,6.552149123817579e-05
-0.4637480545563449,-0.4637480545563449,1.0000787803624749,6.569592220026296e-05
-0.46346861079655355,-0.46346861079655355,1.0000509316137305,6.0586134829012523e-05
-0.463288843112241,-0.463288843112241,1.0000175071363178,6.222435655880228e-05
-0.4631001831781759,-0.4631001831781759,1.0000674572982722,6.183388346757365e-05
-0.46281299288893935,-0.46281299288893935,1.000051366203619,6.326427943861688e-05
-0.4624189641333942,-0.4624189641333942,0.9999938988365038,6.213455507643231e-05
-0.4619249531984678,-0.4619249531984678,0.9999671931485506,6.045890478879528e-05
-0.46171526331818313,-0.46171526331818313,1.0000821547116039,6.249906718150535e-05
-0.46147703911919963,-0.46147703911919963,1.000013527675714,6.307733843608442e-05
-0.46105523483784056,-0.46105523483784056,1.0000212484707518,6.243850475793508e-05
-0.4607235633659002,-0.4607235633659002,1.0000559563049598,6.274185544245459e-05
-0.4604970355903788,-0.4604970355903788,0.999990368969217,6.450365575459861e-05
-0.4601774170980207,-0.4601774170980207,1.0000281031746074,6.17708092179864e-05
-0.46004384778352686,-0.46004384778352686,1.000096064139377,6.202272469658799e-05
-0.4598250743561948,-0.4598250743561948,0.9999747098986645,6.442337167264378e-05
-0.4596947085607098,-0.4596947085607098,0.9999936510301868,6.161183096337961e-05
-0.45952203709166495,-0.45952203709166495,1.0000409560659342,6.10782066628072e-05
-0.4593844615781563,-0.4593844615781563,1.0000234568387107,6.341532589177853e-05
-0.4592137631487276,-0.4592137631487276,1.0000410688839305,6.378594155225217e-05
-0.4588189593254356,-0.4588189593254356,1.000092797150328,6.242991293419194e-05
-0.4585217187945091,-0.4585217187945091,1.0000397044524687,6.486050593307418e-05
-0.4578856262342015,-0.4578856262342015,1.0001123130212537,6.052252338914451e-05
-0.45762593113759065,-0.45762593113759065,0.9999221238832444,6.52658859011543e-05
-0.4574906468988047,-0.4574906468988047,1.0000331232486368,6.280905539218673e-05
-0.45730127276692656,-0.45730127276692656,0.9999816853831925,6.159401314231175e-05
-0.45690822417745947,-0.45690822417745947,1.0000327643843239,6.249329132847125e-05
-0.4567040375717625,-0.4567040375717625,0.9999680362715837,6.096772462952902e-05
-0.4565111324591271,-0.4565111324591271,0.9999807812276031,6.071995196857954e-05
-0.45624210746827887,-0.45624210746827887,1.0001040403918995,6.188251759254859e-05
-0.45603188403038075,-0.45603188403038075,1.0000253401927683,6.281905306688743e-05
-0.45577185924121294,-0.45577185924121294,0.9999531385751663,6.124142390025667e-05
-0.45539448571871616,-0.45539448571871616,1.0000326842167255,6.426718047956115e-05
-0.455160039083421,-0.455160039083421,0.9999578547226985,6.335374936348453e-05
-0.45477095053793165,-0.45477095053793165,0.9998898470350944,6.203408428012388e-05
-0.4545221364554891,-0.4545221364554891,1.0000598781869203,6.169866651935446e-05
-0.45425849110106353,-0.45425849110106353,1.000101785441097,6.28359281452312e-05
-0.4540724090555159,-0.4540724090555159,0.9999289249050175,6.442696567818032e-05
-0.45378494150645565,-0.45378494150645565,0.9999382860356805,6.440827904955748e-05
-0.4535267676692456,-0.4535267676692456,1.0000840033146257,6.212665302387526e-05
-0.45328315473452674,-0.45328315473452674,1.0000955561154197,6.085423345493191e-05
-0.453106088401546,-0.453106088401546,1.0000829683689652,6.730481415975443e-05
-0.4529628697076987,-0.4529628697076987,1.0000114027499536,6.371684500500753e-05
-0.45269611931871623,-0.45269611931871623,1.0000991513618407,6.058817913547598e-05
-0.4524620302581752,-0.4524620302581752,0.9999524527282075,6.196469497547939e-05
-0.4521699523029383,-0.4521699523029383,0.9999683692284631,6.080088027620793e-05
-0.4518624331416504,-0.4518624331416504,0.9999556293255288,6.239742222789805e-05
-0.4513740634560236,-0.4513740634560236,1.0000178781762983,6.388578260861698e-05
-0.4511438763358456,-0.4511438763358456,0.9998871219519151,6.061489674536002e-05
-0.4509766651048267,-0.4509766651048267,1.0000803481273017,6.246789350014938e-05
-0.4507338816889387,-0.4507338816889387,0.999941686080407,6.507890348748977e-05
-0.4504717042480479,-0.4504717042480479,1.0000092567666061,6.196258820613332e-05
-0.4500580410727707,-0.4500580410727707,1.0000659043730422,6.335029353782977e-05
-0.44977622017177055,-0.44977622017177055,1.0000242123885956,6.471961286493892e-05
-0.44944358703869514,-0.44944358703869514,0.9999850978700028,6.380762681080074e-05
-0.449277266801073,-0.449277266801073,1.000020282479243,6.19286793749324e-05
-0.4490666412908467,-0.4490666412908467,0.9999107225408063,6.236176811092044e-05
-0.44896138745898495,-0.44896138745898495,1.0000242803596353,6.523673746527558e-05
-0.44884457077860135,-0.44884457077860135,1.0000812939001285,6.0795281585320175e-05
-0.4487540135203744,-0.4487540135203744,1.0000461315648081,6.206727950327778e-05
-0.44857489362620984,-0.44857489362620984,0.9998471998457671,6.499324114551792e-05
-0.4481821560548269,-0.4481821560548269,0.9998981580472585,6.007232039150802e-05
-0.44794287624245044,-0.44794287624245044,1.0000426973514476,6.29056742432292e-05
-0.4474375620324281,-0.4474375620324281,0.9999005887211598,6.398867128527136e-05
-0.44701223408192164,-0.44701223408192164,0.9999211362096609,6.433992877237826e-05
-0.4468344867156702,-0.4468344867156702,0.9999655634991378,6.405433576412011e-05
-0.4467111256657518,-0.4467111256657518,0.9998519803371838,6.283376502922064e-05
-0.44658371308032657,-0.44658371308032657,0.9999584053414408,6.159584418671297e-05
-0.4461886391538428,-0.4461886391538428,1.0000982472783726,6.166061850538344e-05
-0.44592415035294836,-0.44592415035294836,0.9999669653199399,6.148769598917711e-05
-0.44569951326338925,-0.44569951326338925,1.0000394084883002,6.037059660466691e-05
-0.4454109913567663,-0.4454109913567663,1.0000470428524684,6.275240604923795e-05
-0.4451619530285825,-0.4451619530285825,1.0000807493954293,6.312634310960916e-05
-0.44494037622134786,-0.44494037622134786,0.9998683743867118,6.0058973039791814e-05
-0.4446257096111367,-0.4446257096111367,1.0001197481546868,6.421675852164383e-05
-0.44438254303022406,-0.44438254303022406,1.0000764368452224,6.3397459541467e-05
-0.44399282916274385,-0.44399282916274385,1.0000817393024926,5.989797466098473e-05
-0.44368118500351555,-0.44368118500351555,1.0000001148010642,6.473896880066323e-05
-0.44336635682411724,-0.44336635682411724,1.000006482848439,6.396536473906854e-05
-0.4430622795909585,-0.4430622795909585,1.0001080648811445,6.263046112827072e-05
-0.4428437416347151,-0.4428437416347151,1.0000438115638697,6.446035121417648e-05
-0.4425684553498286,-0.4425684553498286,0.9999997679792333,6.16912395945258e-05
-0.4424921433121199,-0.4424921433121199,1.00000447942988,5.996969973594118e-05
-0.4423311143000319,-0.4423311143000319,0.9999654494565469,6.614193867348021e-05
-0.4421571596591093,-0.4421571596591093,0.999948905614499,6.694778870899507e-05
-0.4418988721285132,-0.4418988721285132,1.0000747612794494,6.073981949858944e-05
-0.44159363961589404,-0.44159363961589404,1.0000431278707365,6.202825091982558e-05
-0.44137065377435647,-0.44137065377435647,0.9999684744674464,6.062281306184023e-05
-0.44105703683089814,-0.44105703683089814,0.9999044421296048,6.243799403974875e-05
-0.4406484482147789,-0.4406484482147789,0.9999025973073332,6.39094201936107e-05
-0.4403761443172698,-0.4403761443172698,1.0001037927325922,6.096923802160311e-05
-0.4402456937743409,-0.4402456937743409,1.00001738899805,6.237183425608495e-05
-0.43998881060106215,-0.43998881060106215,0.999989751484281,6.508774681009942e-05
-0.43970196635345926,-0.43970196635345926,0.9999811064967133,6.389128114397628e-05
-0.4392173094616737,-0.4392173094616737,1.000032977135291,6.080594490941979e-05
-0.4389586858196708,-0.4389586858196708,1.000053862986809,6.470453009156188e-05
-0.4386303900828352,-0.4386303900828352,0.9999385127780048,6.378511338069508e-05
-0.4385096953374159,-0.4385096953374159,1.0000143197003328,6.074289915548633e-05
-0.43830706052322055,-0.43830706052322055,1.0000294820359676,6.220036210610378e-05
-0.43821058445973904,-0.43821058445973904,0.999930451201094,6.432064918892119e-05
-0.4380943253694568,-0.4380943253694568,1.0000514119636583,6.159479457925891e-05
