time,time,flux,flux_err
-0.4998567903991595,-0.4998567903991595,1.000412617376613,0.00037410602280315045
-0.4997337021959538,-0.4997337021959538,0.9995019420967525,0.0003567068655054613
-0.4996277694721357,-0.4996277694721357,0.9999149526542006,0.00034362470910541344
-0.4995522292709211,-0.4995522292709211,0.9995881232680673,0.0003095235656195954
-0.49950406274947456,-0.49950406274947456,0.9999295946147626,0.0003055206486397882
-0.4994223679044808,-0.4994223679044808,0.9996854996540998,0.0002960548329122781
-0.4993230543746904,-0.4993230543746904,1.0001290925230268,0.00038945220053122827
-0.49921558359492335,-0.49921558359492335,1.0000846525027367,0.0003553457063695263
-0.4990656832247623,-0.4990656832247623,1.0000512582280412,0.0002883319184981256
-0.4989684954867698,-0.4989684954867698,1.000280833027944,0.00029820535294849254
-0.498843490134459,-0.498843490134459,1.0001303619664443,0.0002996296571904309
-0.4987338352504594,-0.4987338352504594,0.9999683327186455,0.00030433398185367893
-0.49864678429075865,-0.49864678429075865,0.9993979790565252,0.0003046268816861085
-0.4985202118194138,-0.4985202118194138,1.0001444595268727,0.00040230766219628096
-0.49839291152893567,-0.49839291152893567,1.0001123456146512,0.0004001619084230437
-0.4982502337115875,-0.4982502337115875,1.0003171327927065,0.00038446960103257535
-0.49809993827948346,-0.49809993827948346,1.000073535655498,0.00031185474586663736
-0.4978523516547284,-0.4978523516547284,1.0002430492521446,0.0002798166947216026
-0.49774825285785484,-0.49774825285785484,0.9996330960414628,0.00038786023641370845
-0.4976352903242514,-0.4976352903242514,1.0001172047120641,0.00039693567503772917
-0.4974250494757143,-0.4974250494757143,0.9999989227750309,0.00030849973101144403
-0.4972413814830361,-0.4972413814830361,0.9998476613023539,0.00034740659512318606
-0.49712690585802194,-0.49712690585802194,1.000105757969057,0.00034977736358052735
-0.49702244372383575,-0.49702244372383575,0.9999607269400176,0.00033484824560588687
-0.49694191286689604,-0.49694191286689604,0.9994908578315013,0.0003175146405395033
-0.49690467619657286,-0.49690467619657286,1.0001345422087673,0.00030422876477322806
-0.4968405698753486,-0.4968405698753486,0.9998293626028687,0.0003054590576487716
-0.49676908111650847,-0.49676908111650847,1.0004973376543536,0.00034141480722392476
-0.4966578329986078,-0.4966578329986078,0.9999884708890882,0.00034967921939136915
-0.4964919359968917,-0.4964919359968917,0.9997815767651682,0.00034649887097908306
-0.49636547145200893,-0.49636547145200893,0.9999044054506324,0.00029825187907407886
-0.4962711672465957,-0.4962711672465957,0.9995851049678333,0.0002990147401284797
-0.4961548689992924,-0.4961548689992924,1.0000367326679362,0.00029787463245066004
-0.49603670703509123,-0.49603670703509123,1.0000011543419691,0.00030237446230402395
-0.4959468203727738,-0.4959468203727738,0.9996216532288809,0.0004006937820923378
-0.49581764469839984,-0.49581764469839984,0.9998248902560954,0.0003604297328452417
-0.49567266054727954,-0.49567266054727954,1.0002836146976375,0.00046993679005721416
-0.49549224465954467,-0.49549224465954467,1.0001102437445795,0.0003275179054217476
-0.4952521887229523,-0.4952521887229523,1.0002659537167005,0.0002800892687113568
-0.4951700802848791,-0.4951700802848791,0.9998990726040674,0.00034171520891770814
-0.4951218606765906,-0.4951218606765906,0.9996274299676141,0.00038142237686949885
-0.4950284668346285,-0.4950284668346285,1.0002584462144966,0.00039612238295254023
-0.4947555980448669,-0.4947555980448669,0.9999658485799104,0.00028985231753763426
-0.4946250157925533,-0.4946250157925533,0.9998505719779086,0.0003533749937334837
-0.4945141912801773,-0.4945141912801773,0.9999450037657741,0.0003417012610644496
-0.4943925583807868,-0.4943925583807868,1.0000310136066255,0.0003365407059599122
-0.4943247971554229,-0.4943247971554229,0.9998601540901779,0.00030847559032664705
-0.49427250744483897,-0.49427250744483897,0.9998341439762031,0.0002979604584476635
-0.4942127143025573,-0.4942127143025573,1.0000500286651528,0.0003068671635357169
-0.49405246474343584,-0.49405246474343584,1.000068285719146,0.0003494781216697126
-0.4938595831816201,-0.4938595831816201,1.0003212999470672,0.0002986944222718372
-0.49374346227123167,-0.49374346227123167,0.9997499243841188,0.00028809203041379176
-0.4936663068619964,-0.4936663068619964,0.9996097391738369,0.00029909684209485554
-0.49355803715006913,-0.49355803715006913,1.0003988286583223,0.0002979509044039114
-0.49344385594231427,-0.49344385594231427,0.9998824165877153,0.0003032578094296893
-0.4933062723299372,-0.4933062723299372,0.9999429682234245,0.00036374508855486
-0.49318774232597207,-0.49318774232597207,0.9997900124102067,0.00039888113755446605
-0.49303848754207136,-0.49303848754207136,0.9998275636550312,0.0004147638238253525
-0.49287965223775243,-0.49287965223775243,1.000037130204865,0.00034550452294275074
-0.49265953923240885,-0.49265953923240885,0.9999521956979004,0.0002704615587057356
-0.492585047952889,-0.492585047952889,1.0000297667978018,0.00034255687151240894
-0.4924999985130853,-0.4924999985130853,0.9996511475257609,0.00039141161060133125
-0.4924201238514797,-0.4924201238514797,0.9998371292611585,0.0003445885899883829
-0.49220646859394035,-0.49220646859394035,1.0000103800289928,0.00034588793073068487
-0.49203606811206557,-0.49203606811206557,1.0001028337603242,0.0003419655265878212
-0.4919033363374183,-0.4919033363374183,1.0001366976952426,0.00035064978891461264
-0.49175156902492745,-0.49175156902492745,0.999634077507144,0.0003466127187788547
-0.49169692554787614,-0.49169692554787614,1.0001764629881449,0.0003174265256290736
-0.49162926697608783,-0.49162926697608783,0.999807089137778,0.00029185163545736396
-0.4914886391881737,-0.4914886391881737,1.0000418755660752,0.00034354666684256903
-0.4913227395460126,-0.4913227395460126,1.0001598815010078,0.00030298787266777583
-0.4911975678820454,-0.4911975678820454,0.9999173097216574,0.00029057861792627633
-0.49111147647854525,-0.49111147647854525,0.999537046852863,0.00028958521354981376
-0.49103846706420884,-0.49103846706420884,1.000109983549891,0.0002937294894908181
-0.4909076125237334,-0.4909076125237334,0.9995231731885038,0.00030936906373693016
-0.49079652761429315,-0.49079652761429315,0.9999364246675742,0.0003000802104870211
-0.49063277146560724,-0.49063277146560724,1.0000521482662763,0.00035755131496948415
-0.4905718202040589,-0.4905718202040589,0.999599224677743,0.00039895412894657225
-0.49043045318103395,-0.49043045318103395,1.0001516312704908,0.00038470315819736376
-0.4903236564096005,-0.4903236564096005,0.9997950517996426,0.0003581136709802329
-0.4901378568414657,-0.4901378568414657,0.9997693779115089,0.0002798333761960342
-0.48999908818368565,-0.48999908818368565,1.0001722695578472,0.00029120512606197954
-0.4898928344962769,-0.4898928344962769,0.999524901276701,0.0003402792556773669
-0.4898268207958608,-0.4898268207958608,1.0000367933723546,0.00043007791062969194
-0.4896565241186181,-0.4896565241186181,0.9997587750810876,0.0003549025465846943
-0.48951381305014363,-0.48951381305014363,0.9996570708545789,0.0002844008680877582
-0.4893957733635034,-0.4893957733635034,0.9993714293965767,0.00035259361888952297
-0.4892491330057965,-0.4892491330057965,1.0002468211665543,0.00034104352819749537
-0.48911737058806465,-0.48911737058806465,1.0001740593822954,0.00031604647155078025
-0.48904457619573805,-0.48904457619573805,1.0003499990079785,0.00030790932177912985
-0.4889041294096387,-0.4889041294096387,1.0000456501742592,0.0003483234630917075
-0.4886794207501225,-0.4886794207501225,1.0002439100811527,0.00029417468423909216
-0.48860317915459744,-0.48860317915459744,1.000195538673555,0.00029540129062103384
-0.4885259478163789,-0.4885259478163789,1.0002949544781021,0.00028314706692215876
-0.4884301935635449,-0.4884301935635449,1.000013539578259,0.00030581153425227026
-0.4882825418077118,-0.4882825418077118,1.0000254214740874,0.0003131163717324686
-0.4881786284757254,-0.4881786284757254,0.9999704966265177,0.0002857289019745925
-0.48806698913685975,-0.48806698913685975,1.0002510313319433,0.0003566201403915262
-0.48798771030997157,-0.48798771030997157,0.9997228861903548,0.0003152116979769336
-0.487864236193127,-0.487864236193127,0.9997054344709608,0.0004275853430035314
-0.48774468397095916,-0.48774468397095916,1.0005245310076796,0.00040022869535868413
-0.48746574408723975,-0.48746574408723975,0.9997764820197796,0.0002886455563233889
-0.4873271775439207,-0.4873271775439207,1.0001102123654586,0.00034610951426122317
-0.4872557370668801,-0.4872557370668801,0.9999448502840748,0.00040422506463212515
-0.48715843384925395,-0.48715843384925395,1.0001635328139031,0.00039199740039613925
-0.48697497408938945,-0.48697497408938945,1.000128210984038,0.0003156908645463509
-0.4868444912135601,-0.4868444912135601,0.9995944560137323,0.00028780019858162516
-0.48669608236959905,-0.48669608236959905,0.9998632461257934,0.0003845426776017519
-0.4866010099030973,-0.4866010099030973,0.9999731454658886,0.0002948123650635825
-0.4864647677321045,-0.4864647677321045,1.000139405614018,0.00032831127298820715
-0.4863469964824617,-0.4863469964824617,0.9998871067327103,0.00034934129671060826
-0.4861646409983223,-0.4861646409983223,0.9999560240963128,0.00034342344163442595
-0.48602718941838247,-0.48602718941838247,0.9999951807917761,0.0003035180097440835
-0.48594871853711086,-0.48594871853711086,1.000014391070543,0.0002799223567822475
-0.48584846486337485,-0.48584846486337485,1.0000172845619224,0.0002963875040516301
-0.485774383291573,-0.485774383291573,1.0002381456958402,0.0002993767333558913
-0.4856269831747341,-0.4856269831747341,0.9999980782299263,0.0003113373410158686
-0.4854655209412158,-0.4854655209412158,0.9998630924504706,0.0003099699578522526
-0.4853885983371583,-0.4853885983371583,0.9999946757859325,0.0003577387881200804
-0.4852801956687472,-0.4852801956687472,0.9999196970681303,0.00038790913649077786
-0.4851998891950643,-0.4851998891950643,0.999884923604494,0.00040035823754257515
-0.4850994238448038,-0.4850994238448038,1.0000384738604509,0.0003514278521732845
-0.48486948425124865,-0.48486948425124865,0.9997545890433097,0.00028576925701767695
-0.4847334490121284,-0.4847334490121284,1.0002683116238555,0.00035406056802790705
-0.48461885246579184,-0.48461885246579184,0.9998019944110862,0.00038438604628070606
-0.4845286455711175,-0.4845286455711175,0.9997149059226782,0.00039746514424078246
-0.48437253736919955,-0.48437253736919955,0.9997642762140266,0.0003158076343263988
-0.48426984593825184,-0.48426984593825184,1.0002116267574095,0.00030127599997284606
-0.4841235518026224,-0.4841235518026224,0.9999021604484062,0.00034296015220932675
-0.4840186896202795,-0.4840186896202795,0.9996848381255671,0.0003413855573772644
-0.48387273658736374,-0.48387273658736374,1.0001828973893399,0.0003334625261352133
-0.4837680265882227,-0.4837680265882227,0.999974788018885,0.00035601294794853727
-0.4835757275359356,-0.4835757275359356,1.000219067849806,0.00033668037067827725
-0.48342817794109577,-0.48342817794109577,1.000484022244692,0.00030215339034611545
-0.48333797896848407,-0.48333797896848407,1.0003724220385046,0.00028083453682716507
-0.48323793212184685,-0.48323793212184685,0.9999501816069193,0.0003108021949923967
-0.48314870484318817,-0.48314870484318817,0.9997999042751167,0.0003419042535608809
-0.48302675468148665,-0.48302675468148665,1.0004206014736434,0.0003106810610459264
-0.4828534926280554,-0.4828534926280554,1.0003193098478036,0.000312868047122151
-0.48275040073276615,-0.48275040073276615,0.9996204410040752,0.0003927960460780782
-0.4826475801150082,-0.4826475801150082,1.0003986409798054,0.000348231887395869
-0.4825445721078722,-0.4825445721078722,1.0001311440689258,0.00045636093780178106
-0.4823416225517576,-0.4823416225517576,0.9998246431260324,0.0002887708548193249
-0.48212019772545317,-0.48212019772545317,1.0001285269019509,0.00029834405400169523
-0.48204056729809963,-0.48204056729809963,1.0003672505332712,0.00039083081001067615
-0.4819530753309664,-0.4819530753309664,0.9998062789575336,0.00039066511261190114
-0.4817972645207192,-0.4817972645207192,0.9998304929125379,0.0003618760746791974
-0.4816723314557748,-0.4816723314557748,1.0000085613155125,0.0002958841037425602
-0.4814658371717087,-0.4814658371717087,0.9998832682430827,0.00033402914247359115
-0.4813751586661965,-0.4813751586661965,1.0003077803629925,0.0003512383106483282
-0.48124203243423835,-0.48124203243423835,1.0000554602879486,0.0003332914321943501
-0.4811166816936748,-0.4811166816936748,0.9999377205081219,0.000397615046430419
-0.4809563696813711,-0.4809563696813711,1.0001947937877993,0.00028661454212376973
-0.48085024534302645,-0.48085024534302645,1.0004128457628858,0.00030814971531855555
-0.48077072529122233,-0.48077072529122233,0.9997647883714598,0.00028844082232745434
-0.480649227626418,-0.480649227626418,1.000333518071076,0.0003021117655516646
-0.4805449929452152,-0.4805449929452152,0.9997244428174612,0.0003092885664775195
-0.4804094746628834,-0.4804094746628834,1.0000223919515066,0.00030178717830490727
-0.480294752104237,-0.480294752104237,1.0000630854352455,0.00035881568627834325
-0.48018093526261507,-0.48018093526261507,0.9997507066162157,0.0003599150740489042
-0.48008367396832907,-0.48008367396832907,1.0000803614300944,0.00034861665319803033
-0.47996295403208933,-0.47996295403208933,1.0001236905178175,0.0003977597449042813
-0.4798279953778547,-0.4798279953778547,1.0001968957352343,0.0003517547974014978
-0.47965837041992926,-0.47965837041992926,0.9999465799810642,0.0002888324539414241
-0.4794930777119589,-0.4794930777119589,1.0003937920374235,0.0002952780648953105
-0.479423706952366,-0.479423706952366,0.9998485976855918,0.0003917597833457017
-0.4793260081220069,-0.4793260081220069,1.0001035932583022,0.0003910946299844338
-0.4791928628677852,-0.4791928628677852,0.9994907156480994,0.00035805271350720816
-0.4790924051361799,-0.4790924051361799,0.9996826840939803,0.00034835264834830816
-0.47892701565797324,-0.47892701565797324,0.9999129802727109,0.0003516967436318646
-0.4787614890250552,-0.4787614890250552,0.9999670741778516,0.00035992775709827016
-0.47863518324229515,-0.47863518324229515,1.0002817457324766,0.00033569782955121313
-0.4785284708115796,-0.4785284708115796,0.9998098409444383,0.0003578574764066749
-0.47840716082864676,-0.47840716082864676,0.9999006214892378,0.00029750210591578016
-0.4783289925653662,-0.4783289925653662,1.0003443735704152,0.0002960636886575272
-0.4782190666592214,-0.4782190666592214,0.9994995631919952,0.000294649928151281
-0.4781287247016735,-0.4781287247016735,0.9997450873600939,0.0003032355514984683
-0.4779903626869782,-0.4779903626869782,0.9994641457592508,0.0003053540170651746
-0.4778787357841793,-0.4778787357841793,0.9999739644993586,0.0003491908816829506
-0.4777569391684665,-0.4777569391684665,1.0000167473622725,0.00031103082496861367
-0.4776590546993248,-0.4776590546993248,1.0002391460598,0.0003562249708419818
-0.47755211612311543,-0.47755211612311543,1.0001836006531202,0.0003551628401091386
-0.4774406101758359,-0.4774406101758359,0.9998841314653275,0.00034986353008246523
-0.47732856218208325,-0.47732856218208325,0.9994883409929912,0.0004121000487368417
-0.47717950822116106,-0.47717950822116106,0.9999624906840919,0.0003404200717809119
-0.4769851852477586,-0.4769851852477586,0.9991958484468955,0.0005515014770429373
-0.47687419962821875,-0.47687419962821875,0.9996164714045491,0.00030542087727586067
-0.47679948426448393,-0.47679948426448393,0.9996113240125337,0.0004297945073116841
-0.47671336651401364,-0.47671336651401364,1.0000843389544558,0.0003478045181807299
-0.4766088994234451,-0.4766088994234451,1.0000538559367755,0.0003598013287449276
-0.47652195941263925,-0.47652195941263925,1.0002204362473937,0.0003261731367333462
-0.47641847365157447,-0.47641847365157447,0.9998923331954448,0.000297980874862426
-0.4762312207785726,-0.4762312207785726,1.0004372700318935,0.00039156696293498537
-0.4760840937778994,-0.4760840937778994,1.0000756417057668,0.0003326923018239329
-0.475989159065648,-0.475989159065648,0.9998784787468467,0.00030965047506348586
-0.4758081724292424,-0.4758081724292424,1.0001050114218542,0.0003380032356495997
-0.47569524560676657,-0.47569524560676657,0.999956099294551,0.00029681943611493424
-0.47562678084432264,-0.47562678084432264,0.999930808925965,0.00028409556473514726
-0.4755581536897807,-0.4755581536897807,1.0002492963481449,0.00028042110980010867
-0.4754446599006769,-0.4754446599006769,0.9999006222373399,0.00029893190279728897
-0.4753768812181079,-0.4753768812181079,0.9997739543353745,0.0003587391062886635
-0.4752831630517903,-0.4752831630517903,1.0003666372946038,0.00034809872142050377
-0.47511917607116627,-0.47511917607116627,0.9995457704251491,0.0003177788620205873
-0.47502391655361864,-0.47502391655361864,0.9999251963591276,0.0003455035688329934
-0.4749280819487467,-0.4749280819487467,1.000152747218546,0.0003488691113066771
-0.47483521804388146,-0.47483521804388146,0.999706890013775,0.00036542008013058374
-0.47471162922665827,-0.47471162922665827,1.0000192337520903,0.0004130792244045063
-0.474552965023031,-0.474552965023031,1.0000913740995423,0.0003510699296265656
-0.47436677937366767,-0.47436677937366767,0.9997661564835834,0.0003070596315465729
-0.47426487109769366,-0.47426487109769366,0.999832898760609,0.0003193040944962264
-0.4742105444347544,-0.4742105444347544,1.0000979092410804,0.00034855236113560224
-0.4741321412679099,-0.4741321412679099,1.0000211066488607,0.0004337364314270328
-0.47403404791402864,-0.47403404791402864,1.0003685417608854,0.00035701248158266695
-0.4739252430925262,-0.4739252430925262,1.00007241633825,0.0003634551273185569
-0.4738156168365094,-0.4738156168365094,1.0000339887205245,0.0003103166772242402
-0.47366006199881666,-0.47366006199881666,0.9999905015464344,0.00034323239706713135
-0.4734541054072906,-0.4734541054072906,0.99989517058294,0.00037559561553198925
-0.47329907504172297,-0.47329907504172297,1.0003189924205969,0.00030645889211285674
-0.47313644805763033,-0.47313644805763033,0.9995185063203079,0.00034371020629899845
-0.47302510193330816,-0.47302510193330816,0.9998133721744754,0.00029481191237609033
-0.47293806385132486,-0.47293806385132486,0.9996460051992043,0.00028833035102411776
-0.47280686736412464,-0.47280686736412464,0.9997009643007055,0.00029352982026363826
-0.47275574019586203,-0.47275574019586203,0.9999658915232329,0.0003555894561489019
-0.4725958446768345,-0.4725958446768345,0.9998897925724031,0.0003049260650550466
-0.47244549243914663,-0.47244549243914663,1.0000401561864056,0.0003515575989852174
-0.47229691872926194,-0.47229691872926194,0.9997670819904879,0.00040270508884530454
-0.4721760862455994,-0.4721760862455994,0.999665189481241,0.0003661035711167562
-0.47203208400242147,-0.47203208400242147,0.9999081061193615,0.0004131853955680298
-0.47184066368427013,-0.47184066368427013,0.9997850041452818,0.0002799452587671216
-0.47171413491887504,-0.47171413491887504,0.9995869293176737,0.00031512671626871154
-0.47162022754419014,-0.47162022754419014,0.9998895057618746,0.0003509848061496398
-0.47154537588430684,-0.47154537588430684,1.000019419451666,0.00039658691993297023
-0.4714321299266885,-0.4714321299266885,0.9997548394327842,0.00034992965903622665
-0.47129359323953396,-0.47129359323953396,1.0000205244961304,0.00031742319194067185
-0.4711406248876301,-0.4711406248876301,1.0004132867966762,0.0003583818334839559
-0.47096154852188193,-0.47096154852188193,1.0002897989701638,0.00034325179926025454
-0.4707894554645463,-0.4707894554645463,1.0002047673582812,0.00031555493597726
-0.4706352790672099,-0.4706352790672099,0.9998692460757542,0.00034313408802467385
-0.470480807738204,-0.470480807738204,0.9999584382152802,0.0003040093880040812
-0.4704130123151117,-0.4704130123151117,0.9997012839242612,0.0002949061533189449
-0.4703308250544069,-0.4703308250544069,1.0000057730547371,0.00029665711077533056
-0.47022500796520034,-0.47022500796520034,1.0000408649477555,0.0003049988733453245
-0.4701277826781734,-0.4701277826781734,0.9998228141279306,0.00035874279447051894
