time,time,flux,flux_err
-0.4995473644060742,-0.4995473644060742,0.9999904733102571,8.759490723972947e-05
-0.49869936048768676,-0.49869936048768676,1.0000660207583607,8.929854351748502e-05
-0.4982430721799271,-0.4982430721799271,1.0000116709063465,8.821941872963937e-05
-0.49713738916216244,-0.49713738916216244,1.0000018173714023,8.871670906794182e-05
-0.4961144227658224,-0.4961144227658224,1.000026437825157,8.032859059062844e-05
-0.4953123327861249,-0.4953123327861249,0.9999495178478508,8.077394258748858e-05
-0.4947774271153321,-0.4947774271153321,0.9999463236628229,8.142965876602374e-05
-0.4944209891356877,-0.4944209891356877,0.9998871754386706,8.15504360310532e-05
-0.4936677429563133,-0.4936677429563133,1.000004704967251,8.08329676034553e-05
-0.4928663111444621,-0.4928663111444621,0.9999139354131346,7.951864602244529e-05
-0.49197834475926355,-0.49197834475926355,1.0000133905537116,8.013453520600362e-05
-0.49137430589689757,-0.49137430589689757,0.999946486651958,8.07732584231679e-05
-0.4907704451776226,-0.4907704451776226,1.0000697806812755,8.155288719430495e-05
-0.49046028778830075,-0.49046028778830075,1.000005987993982,8.147964281068169e-05
-0.48997549992927814,-0.48997549992927814,1.0000096574488229,7.954266645300044e-05
-0.4889659538050182,-0.4889659538050182,0.9999066153650734,8.076131905283135e-05
-0.4882528591246228,-0.4882528591246228,1.0000502611377091,7.952180635445096e-05
-0.48769679079196065,-0.48769679079196065,0.9998246460927112,8.130696812649096e-05
-0.48703160211371144,-0.48703160211371144,1.0000261335543483,8.079821642054005e-05
-0.4866593834281957,-0.4866593834281957,0.9999250107632627,8.157130400759493e-05
-0.4862532184750307,-0.4862532184750307,0.9998682965202045,8.085453680502257e-05
-0.4854943864127563,-0.4854943864127563,0.9999827770087106,8.01854039288237e-05
-0.48472816777866684,-0.48472816777866684,0.9999405222551389,8.013007686727622e-05
-0.4838479253958212,-0.4838479253958212,1.0000071268209878,7.957559715001038e-05
-0.4832927804935025,-0.4832927804935025,1.0001796273447063,8.138373848104745e-05
-0.48268467340240023,-0.48268467340240023,1.0001498094436425,8.150597146665461e-05
-0.48226658178900833,-0.48226658178900833,1.0000609371282425,7.955172690601774e-05
-0.48138962652592454,-0.48138962652592454,0.9999192402875131,8.016827612782688e-05
-0.48056723135377977,-0.48056723135377977,0.9998492967199377,8.075781544324637e-05
-0.4798558468806732,-0.4798558468806732,1.0001027067661927,8.09960177236848e-05
-0.4790628090842802,-0.4790628090842802,1.000057617168364,8.080302455180047e-05
-0.47871302790081244,-0.47871302790081244,1.0000015016333066,8.16570636598867e-05
-0.47829267537526904,-0.47829267537526904,1.000108689595612,8.08522054856553e-05
-0.47744863556799827,-0.47744863556799827,1.000049054158977,7.953556472594707e-05
-0.4765541511158517,-0.4765541511158517,0.9999634061191072,8.083229014400084e-05
-0.4756354110111715,-0.4756354110111715,0.9999971249200392,7.951394561760727e-05
-0.4751104936127376,-0.4751104936127376,0.9999418669764243,8.140617208971627e-05
-0.47457268648795436,-0.47457268648795436,1.0001798592763316,8.147943746577621e-05
-0.4738662716074032,-0.4738662716074032,0.9999240390489227,8.018256705269795e-05
-0.4727985139514203,-0.4727985139514203,0.9999757769941956,7.953476708172552e-05
-0.47200146511095226,-0.47200146511095226,1.0000015308534866,8.078645281183703e-05
-0.47109414764345275,-0.47109414764345275,0.9999738892079728,8.080120078395903e-05
-0.47072352519753624,-0.47072352519753624,1.0001607184799182,8.177203710522314e-05
-0.46994388175808127,-0.46994388175808127,1.000123547707932,7.955811216006411e-05
-0.4691418450245692,-0.4691418450245692,0.9999939901227481,8.016119989362912e-05
-0.4680171214298753,-0.4680171214298753,1.0000001852039122,8.014642028006418e-05
-0.4671901267131034,-0.4671901267131034,1.0000779323676419,8.081527539917508e-05
-0.46662345992226617,-0.46662345992226617,0.999614475748426,8.147308055089363e-05
-0.4657603392835881,-0.4657603392835881,0.9999015461081913,8.018419305628471e-05
-0.4646721546560002,-0.4646721546560002,0.9998526455292154,8.014140355302892e-05
-0.4638403773467871,-0.4638403773467871,1.00000738163257,8.083989501098793e-05
-0.4630376747431001,-0.4630376747431001,0.9999342325640039,8.01913917500439e-05
-0.4626569857398863,-0.4626569857398863,1.0000267163925276,8.191093885480477e-05
-0.4616880902780395,-0.4616880902780395,1.000100215181291,8.019066321095178e-05
-0.4605185769782111,-0.4605185769782111,0.999932926336187,8.013074809719357e-05
-0.45949900681225697,-0.45949900681225697,0.9999510750002166,8.077178584446936e-05
-0.4588411280434229,-0.4588411280434229,0.9999855927948236,8.149469054748286e-05
-0.4584646807255922,-0.4584646807255922,0.9997081897594743,8.021331821798561e-05
-0.45744058728887466,-0.45744058728887466,1.0000521827644382,8.01638441227535e-05
-0.45651417610788486,-0.45651417610788486,0.9999582774251377,8.013813550069561e-05
-0.4556722970344708,-0.4556722970344708,0.9999434767068998,8.153598905121153e-05
-0.4550107478207792,-0.4550107478207792,0.9999229829721565,8.019989169895062e-05
-0.454160866804159,-0.454160866804159,0.9999352755902955,8.020062714054063e-05
-0.45307145552505973,-0.45307145552505973,0.9997230759980725,8.077340205795807e-05
-0.45183906432794174,-0.45183906432794174,0.9999358846423074,7.953191741287919e-05
-0.4511307671731629,-0.4511307671731629,1.0000096603254187,8.146063769967385e-05
-0.4506535830150824,-0.4506535830150824,1.0000588172698524,8.086104509613345e-05
-0.449535674303479,-0.449535674303479,1.000030664174726,8.017755825681301e-05
-0.4485550860539661,-0.4485550860539661,1.0000208446174212,8.01336324761064e-05
-0.4477132244493987,-0.4477132244493987,0.9998529616016499,8.162259195945826e-05
-0.4470389886337216,-0.4470389886337216,1.000042856784835,8.020255368761236e-05
-0.4461735073971795,-0.4461735073971795,0.9999176355354276,8.083234131176797e-05
-0.44488857184624064,-0.44488857184624064,0.999677348250254,8.013177579346655e-05
-0.44372827271727144,-0.44372827271727144,0.9999972432177755,7.951292406939237e-05
-0.44320127807877724,-0.44320127807877724,0.9999479116488279,8.143357808125751e-05
-0.44277652060918626,-0.44277652060918626,1.0000183464384507,8.148041118736864e-05
-0.44183823762868996,-0.44183823762868996,0.9999344303803431,8.018468215668409e-05
-0.4407621765138174,-0.4407621765138174,1.0001000225209977,0.00010193412466215118
-0.44014411611569815,-0.44014411611569815,0.9999738235854444,8.061926237993766e-05
-0.43923529399035033,-0.43923529399035033,1.0000134476152425,8.079168924831896e-05
-0.43883005265524844,-0.43883005265524844,0.9998463871813648,8.021239477387205e-05
-0.4379007394389191,-0.4379007394389191,1.0001037737811735,8.020272592229782e-05
-0.4366130916198017,-0.4366130916198017,1.0001183016122748,8.074279357937391e-05
-0.4355954415535962,-0.4355954415535962,0.9998426905736375,8.017378479583104e-05
-0.4350323477956408,-0.4350323477956408,1.0001206382773968,8.148288291026355e-05
-0.4345725758867047,-0.4345725758867047,1.0000008316150781,8.083255861823506e-05
-0.4333627098967554,-0.4333627098967554,1.0000448466911038,8.015513364468096e-05
-0.43248641780373875,-0.43248641780373875,0.9999197622688898,9.56944552750043e-05
-0.4316160330308776,-0.4316160330308776,1.0001203481048146,8.20193677551161e-05
-0.43104438388036215,-0.43104438388036215,1.0000957343340122,8.021611673781717e-05
-0.43038600349318584,-0.43038600349318584,0.9999656241868664,8.01748911709221e-05
-0.42916700639834743,-0.42916700639834743,1.0000418097454662,8.014528560969651e-05
-0.4282206599658821,-0.4282206599658821,0.9999660732250533,8.503308175533679e-05
-0.4275131568319921,-0.4275131568319921,0.9999271530029553,8.07961186744845e-05
-0.42703189318344814,-0.42703189318344814,1.0000448346520374,8.150059301408356e-05
-0.426422994510358,-0.426422994510358,1.000030684191171,8.020379618335879e-05
-0.42512271828745724,-0.42512271828745724,0.9999964937116879,8.073594972338998e-05
-0.42436990890710147,-0.42436990890710147,0.9999218261016501,9.133152902553313e-05
-0.42330853010571445,-0.42330853010571445,1.0001428403179764,8.080259527217226e-05
-0.42298769536137115,-0.42298769536137115,1.0000257531852421,8.08664349419086e-05
-0.4222100871171278,-0.4222100871171278,0.9998799312942473,8.016853770304368e-05
-0.42097947969232336,-0.42097947969232336,0.9999003712933554,8.012852641462085e-05
-0.42007473800113077,-0.42007473800113077,0.9998701116380649,8.321333302517682e-05
-0.4194362971044029,-0.4194362971044029,1.0000170023706567,8.143034489422697e-05
-0.4189993919018889,-0.4189993919018889,0.9998391252185787,8.149808841952467e-05
-0.4180738305010891,-0.4180738305010891,1.0000713013088107,8.08253230656735e-05
-0.4169840069152997,-0.4169840069152997,0.9999768533303781,8.012894297996942e-05
-0.41635839700611543,-0.41635839700611543,0.9999446928280815,8.697227344320161e-05
-0.4155155456683133,-0.4155155456683133,0.9998970707643291,8.141176877287794e-05
-0.41510396807279903,-0.41510396807279903,1.0001712426832516,8.087220497346037e-05
-0.4145758638769621,-0.4145758638769621,1.0000232701927243,7.95376256950895e-05
-0.4135084091918543,-0.4135084091918543,1.000068040387871,8.078604394767349e-05
-0.41267165029785247,-0.41267165029785247,1.0000275890052595,8.20432544591441e-05
-0.4118948928626196,-0.4118948928626196,0.9999354387284602,8.08226215880476e-05
-0.41141250026412307,-0.41141250026412307,1.0000303851983798,8.142141384173847e-05
-0.4110481457595597,-0.4110481457595597,1.000123657744,8.150564275861356e-05
-0.41017284338740867,-0.41017284338740867,0.9998974715159589,8.018490290178813e-05
-0.4091981065059372,-0.4091981065059372,0.999842510135523,8.073832781428178e-05
-0.40838115417791415,-0.40838115417791415,1.000074113333992,7.954068629182713e-05
-0.40766163706211955,-0.40766163706211955,0.9998529116940787,8.201103988194442e-05
-0.4071729076465999,-0.4071729076465999,0.999982403549706,8.08387918423721e-05
-0.4067027092001808,-0.4067027092001808,1.0000362626804116,7.955735183004158e-05
-0.40554163548658834,-0.40554163548658834,1.0000982545994037,8.07790175513072e-05
-0.40470310913660795,-0.40470310913660795,1.0000893568950122,8.132575781996212e-05
-0.4039241775171831,-0.4039241775171831,0.9998191642083217,8.077751125534844e-05
-0.40343155346563436,-0.40343155346563436,0.9998738800132072,8.144160175344042e-05
-0.4030940028045734,-0.4030940028045734,0.999977649678803,8.152218863348685e-05
-0.4021985369901813,-0.4021985369901813,0.999979211171096,8.018775026179e-05
-0.40123598674254024,-0.40123598674254024,1.0000108859733892,8.074258211939999e-05
-0.40040096985321727,-0.40040096985321727,1.0000239990748105,7.953397556235022e-05
-0.3997066567055299,-0.3997066567055299,0.9999486711271859,8.201797442940819e-05
-0.39921608345393905,-0.39921608345393905,1.000217459990545,8.148899014773538e-05
-0.39875090567802546,-0.39875090567802546,0.9999942541353157,7.955252510101753e-05
-0.3975749903023825,-0.3975749903023825,0.9999117774049712,8.078027611693068e-05
-0.3967346843863197,-0.3967346843863197,1.0000172890280807,8.096064791759014e-05
-0.3959535918904294,-0.3959535918904294,1.0000332119735542,8.078920578429729e-05
-0.39548261480085783,-0.39548261480085783,0.9998863062717825,8.148867235767881e-05
-0.3952098757385102,-0.3952098757385102,0.9999111454753311,8.149177608554373e-05
-0.39446461383486164,-0.39446461383486164,0.9999851075960094,8.082614397798947e-05
-0.3936639621810173,-0.3936639621810173,1.000078098489456,7.952684572064279e-05
-0.3927755237622478,-0.3927755237622478,0.999941652827124,8.013271628455151e-05
-0.3921709208036191,-0.3921709208036191,1.0000156955399464,8.077389195606941e-05
-0.3915661122999154,-0.3915661122999154,1.000079490545891,8.156595446450413e-05
-0.39125520547968334,-0.39125520547968334,1.000171885020653,8.149084543553489e-05
-0.39077325779871896,-0.39077325779871896,0.9998575537657386,7.954122011186807e-05
-0.38960847350390393,-0.38960847350390393,0.9999375500817964,8.077230224661046e-05
-0.3888909672998125,-0.3888909672998125,0.9999367920799035,8.073996068744255e-05
-0.38827414588522513,-0.38827414588522513,0.9999679963331424,8.076128105297098e-05
-0.38768895840476036,-0.38768895840476036,1.0000033826404353,8.08114864457271e-05
-0.3873274290293921,-0.3873274290293921,0.9999589834381355,8.222297530638604e-05
-0.386697947428911,-0.386697947428911,0.9998688246602194,7.955274389711166e-05
-0.38607715302714496,-0.38607715302714496,0.9999908276869253,8.080800900598921e-05
-0.38510876994769205,-0.38510876994769205,1.0000834391105116,8.016880650613433e-05
-0.3844102472103259,-0.3844102472103259,0.9999916447584709,7.951962860213505e-05
-0.38386520125350215,-0.38386520125350215,0.9999747203990248,8.141715517686914e-05
-0.38331697921967134,-0.38331697921967134,0.9999087476942405,8.147466829569122e-05
-0.3827957407003851,-0.3827957407003851,1.000080584496469,7.955672748382474e-05
-0.38174588924084674,-0.38174588924084674,1.0000252982378757,8.076177500710276e-05
-0.3810728880904207,-0.3810728880904207,1.0000061990087286,7.951592646580418e-05
-0.3804655445237586,-0.3804655445237586,1.0000059819898823,8.162105608565366e-05
-0.3797808194241952,-0.3797808194241952,0.9998683529108885,8.01802900635473e-05
-0.3794315961495158,-0.3794315961495158,0.9998178355347391,8.227528657122257e-05
-0.3789099463770981,-0.3789099463770981,0.9999639674257276,8.020146826134096e-05
-0.37811011809826595,-0.37811011809826595,0.9999529567663974,8.016293854125801e-05
-0.3771121447607584,-0.3771121447607584,0.9999887113931093,8.019213628454605e-05
-0.37634721110443936,-0.37634721110443936,0.9999816842061193,8.016375404336224e-05
-0.37576343368855303,-0.37576343368855303,1.0000196064012374,8.142417626395903e-05
-0.3753228862675314,-0.3753228862675314,0.9999537003815233,8.084357477132419e-05
-0.3744044723418483,-0.3744044723418483,1.000081428251002,8.017662713810238e-05
-0.3734433785022702,-0.3734433785022702,0.9999902904477409,8.014461235946558e-05
-0.3726020611618878,-0.3726020611618878,0.9999387478226403,8.077956405279283e-05
-0.37180782255163647,-0.37180782255163647,0.9999856381199029,8.019336668143757e-05
-0.3713984452217119,-0.3713984452217119,0.9999901715131593,8.176086007581686e-05
-0.37057114339404507,-0.37057114339404507,0.9999953866716884,8.018428873797297e-05
-0.3697457889727957,-0.3697457889727957,0.9998194362111483,8.013825874866034e-05
-0.3685919299743546,-0.3685919299743546,1.0000161295797743,7.95338330503069e-05
-0.36784035632372253,-0.36784035632372253,1.0000229120582715,8.144887643045663e-05
-0.36736491580377334,-0.36736491580377334,0.9997853808827243,8.084361616328398e-05
-0.36627960644327684,-0.36627960644327684,0.999907285948052,8.01778932773601e-05
-0.36528419872556694,-0.36528419872556694,0.9999309761290196,8.014041129398726e-05
-0.36442741431383185,-0.36442741431383185,0.9999292832066855,8.146258922697414e-05
-0.36377982956400956,-0.36377982956400956,0.9999552110912548,8.020433652984657e-05
-0.36334045262192377,-0.36334045262192377,0.9999539491138443,8.190907934261477e-05
-0.36240773404279025,-0.36240773404279025,0.9999374185925174,7.953216597137576e-05
-0.3613157068932196,-0.3613157068932196,1.0000616116632757,8.014520246967067e-05
-0.3602955546681187,-0.3602955546681187,0.9999268703913747,8.077068794220422e-05
-0.35963390169199555,-0.35963390169199555,0.9996936548092838,8.150107294353312e-05
-0.3591144783000345,-0.3591144783000345,0.9999103989381645,8.019126860510999e-05
-0.3578005781149841,-0.3578005781149841,0.9999703433841128,8.0155175105783e-05
-0.3570029785201768,-0.3570029785201768,0.9999177716066445,8.026679052371347e-05
-0.35612187017541147,-0.35612187017541147,1.0000367773994943,8.141700755957923e-05
-0.3556721060456766,-0.3556721060456766,0.9998921610483171,8.085238860786018e-05
-0.3547320169818704,-0.3547320169818704,0.9998905222439193,8.017873200044763e-05
-0.3536555412771122,-0.3536555412771122,0.9995706769779501,8.01332154009332e-05
-0.3524213754797529,-0.3524213754797529,0.999980819358856,8.017164078028517e-05
-0.3517905321561557,-0.3517905321561557,0.9999278432891497,8.14667841095714e-05
-0.35129393522365715,-0.35129393522365715,0.9998559873494767,8.083564838791859e-05
-0.35010290875216016,-0.35010290875216016,0.9998729709406134,8.01503375708536e-05
-0.3491884344177379,-0.3491884344177379,1.0000473151490432,7.975282740720417e-05
-0.3483245976269245,-0.3483245976269245,0.9999198021673408,8.201814102235251e-05
-0.34777250549013844,-0.34777250549013844,0.9999594863832147,8.020908785098148e-05
-0.34675946380812095,-0.34675946380812095,0.9999913867056733,8.017589655165845e-05
-0.34568556219528546,-0.34568556219528546,0.9997259270713956,8.013343146511948e-05
-0.34452592588131664,-0.34452592588131664,1.0001237397133376,7.95186033794335e-05
-0.3439970071936841,-0.3439970071936841,0.9999343253188562,8.14441498554695e-05
-0.34357140091669863,-0.34357140091669863,0.9998871342655308,8.148188470920864e-05
-0.34263562231572,-0.34263562231572,1.0000014751575583,8.019134426683979e-05
-0.3415589206066215,-0.3415589206066215,0.9998941879086279,0.00010248221429071131
-0.3409415914087731,-0.3409415914087731,1.0001725294199484,8.060074827906479e-05
-0.34003164627138177,-0.34003164627138177,0.999894055593525,8.078997107535061e-05
-0.3396267552401696,-0.3396267552401696,1.000084656781175,8.02164293590467e-05
-0.3386981827985437,-0.3386981827985437,1.000054242095898,8.019826340229099e-05
-0.3374092886471772,-0.3374092886471772,1.0000244402676355,8.074859358732366e-05
-0.33639283994416475,-0.33639283994416475,0.9998078512449171,8.016830808445955e-05
-0.335827272937604,-0.335827272937604,0.9999153894791203,8.147585141171824e-05
-0.3353688182774931,-0.3353688182774931,1.0000784156423812,8.083874345850476e-05
-0.33415984872335686,-0.33415984872335686,0.9999122935918809,8.014515424354064e-05
-0.3332839874216006,-0.3332839874216006,0.9998949246764213,9.624058858678406e-05
-0.332411665028485,-0.332411665028485,0.9999472862985905,8.201995669081835e-05
-0.3318409486295423,-0.3318409486295423,0.9999292741861815,8.021093090917396e-05
-0.3311832551393309,-0.3311832551393309,1.0000323605550212,8.01736588436722e-05
-0.3299640439799987,-0.3299640439799987,0.9999447631168081,8.013989307269125e-05
-0.3290179616364185,-0.3290179616364185,0.9999959789581977,8.524086776330927e-05
-0.32830951084542903,-0.32830951084542903,1.0000612090156733,8.079348231373136e-05
-0.3278266593450098,-0.3278266593450098,0.9999391380976916,8.149335857548988e-05
-0.32722032265519374,-0.32722032265519374,0.9999378076533615,8.019899190639024e-05
-0.3259189620082907,-0.3259189620082907,1.0000044831805943,8.074298955347174e-05
-0.32516745563916627,-0.32516745563916627,1.0000287147338118,9.178056681919948e-05
-0.3241048564450466,-0.3241048564450466,0.9999469271143113,8.078525824275164e-05
-0.323784255724604,-0.323784255724604,0.999985297033344,8.086156271695905e-05
-0.3230070858480758,-0.3230070858480758,1.00000904124181,8.017042024465319e-05
-0.32177642973401815,-0.32177642973401815,0.9998629467886561,8.013705738409889e-05
-0.3208722114264674,-0.3208722114264674,0.9999687026390399,8.335266183197572e-05
-0.32023176452858026,-0.32023176452858026,0.9999382366485765,8.14209164349926e-05
-0.31979452286104787,-0.31979452286104787,0.9999855721201781,8.149805885529722e-05
-0.3188707800087286,-0.3188707800087286,0.9999925867147337,8.080404122294381e-05
-0.31778091291853344,-0.31778091291853344,0.9999363505430224,8.013253190463016e-05
-0.31715605536155633,-0.31715605536155633,0.9999148005499439,8.728987965453607e-05
-0.31631151199835583,-0.31631151199835583,0.9999816011975631,8.1410996084956e-05
-0.31590035242043085,-0.31590035242043085,0.9999179392387092,8.085783686978784e-05
-0.3153733306498907,-0.3153733306498907,1.0001264765670377,7.953779335142665e-05
-0.31430509354759123,-0.31430509354759123,1.0000328547615696,8.078264567420293e-05
-0.31346851053240243,-0.31346851053240243,1.0000136520344,8.213989588448489e-05
-0.31269197168658136,-0.31269197168658136,0.999915326445916,8.083625543964894e-05
-0.312175797503005,-0.312175797503005,1.000109326398797,8.144064678365774e-05
