time,time,flux,flux_err
-0.49993736367954017,-0.49993736367954017,0.9999978390691481,0.0003679785976609935
-0.49976937512352987,-0.49976937512352987,1.0001238225889468,0.0003233668442892846
-0.49963524387567304,-0.49963524387567304,0.9998550213762504,0.00035729624821439696
-0.49950880872832687,-0.49950880872832687,1.0000051490370645,0.00034919151931292724
-0.4993775120034115,-0.4993775120034115,1.000217071500084,0.0003505703881654867
-0.49924065883387814,-0.49924065883387814,1.0001996463867573,0.0003496544140817801
-0.4991276457294589,-0.4991276457294589,0.9996029723013121,0.0003211094727195806
-0.49897551628237125,-0.49897551628237125,0.999724841432044,0.00034056179855398836
-0.49889490071800535,-0.49889490071800535,0.9999862699430875,0.000286550215037406
-0.4988111677201232,-0.4988111677201232,0.999982101088967,0.0003218797721828295
-0.49873746193770785,-0.49873746193770785,0.9999644766072249,0.00032619700839525256
-0.4986499006365193,-0.4986499006365193,0.9997914286207091,0.0003243169926283946
-0.498480944239418,-0.498480944239418,1.000722358542785,0.0002914492957028722
-0.4983745564764831,-0.4983745564764831,0.999980288435364,0.0002975260770681634
-0.49825818451936355,-0.49825818451936355,0.999586743029943,0.0003385838405417907
-0.49812222420296165,-0.49812222420296165,1.0000009979553461,0.0003224723034863196
-0.4979651333938818,-0.4979651333938818,0.9996198449037632,0.00030858420929851004
-0.497892332097399,-0.497892332097399,1.0001735262921145,0.00031993829713101275
-0.4977918154268991,-0.4977918154268991,1.0004106709687317,0.00034946479409891923
-0.49756597335508557,-0.49756597335508557,1.0000805434023605,0.00034947336523613224
-0.49740388490899934,-0.49740388490899934,0.9995969205109733,0.0003343428503066675
-0.4973116140725324,-0.4973116140725324,1.0003729250074542,0.00032695783757231517
-0.4972520843730308,-0.4972520843730308,0.9999448844823643,0.0003306965655011781
-0.49716278672858605,-0.49716278672858605,0.999751802592505,0.00034135988239876463
-0.49695871147850995,-0.49695871147850995,0.999919199775167,0.0003260916703459531
-0.4967062902491307,-0.4967062902491307,0.9999327313323455,0.0003419134287824393
-0.4965214342926629,-0.4965214342926629,1.0003197168599303,0.0003072821382811986
-0.4963661333778873,-0.4963661333778873,0.999405278062498,0.00030853474971378797
-0.4962121943855891,-0.4962121943855891,0.9999335640396119,0.0002884350264636481
-0.4960640824050643,-0.4960640824050643,0.9997865461514766,0.00031411223431976234
-0.49597126146254594,-0.49597126146254594,1.000041612585675,0.0002987640648702841
-0.49590479988546576,-0.49590479988546576,1.0001349854804131,0.00032868908627713226
-0.49576354669115974,-0.49576354669115974,1.0002226714611626,0.0003415838897678072
-0.49563062968372834,-0.49563062968372834,1.0001266520712835,0.0002937768961743793
-0.49547612872556784,-0.49547612872556784,1.000306291897005,0.0003527464545191735
-0.4953747713181656,-0.4953747713181656,1.0003590088143093,0.0003052146731577133
-0.49524168637872207,-0.49524168637872207,0.9995988244881275,0.0003247621232995678
-0.49515841112006453,-0.49515841112006453,1.0002209360849306,0.0002871165591972128
-0.49506500937859527,-0.49506500937859527,0.9996686819989641,0.0003098802583768585
-0.49494559470040256,-0.49494559470040256,0.9999079916219911,0.0003062196662114666
-0.49487343574583065,-0.49487343574583065,1.0008082800058005,0.0004047869384373449
-0.4947364786901744,-0.4947364786901744,1.0002309431723737,0.00032994489604314337
-0.4945693854853744,-0.4945693854853744,1.0001839221439066,0.00036075631077217747
-0.49446143677341753,-0.49446143677341753,0.9995883104739697,0.0003478563378972164
-0.49424490162346046,-0.49424490162346046,0.99970957965204,0.00033826021274946855
-0.49402956127596553,-0.49402956127596553,1.000393726632519,0.0003002956764281173
-0.49386687734222506,-0.49386687734222506,1.000239356174539,0.00029965064649609856
-0.49373408542305697,-0.49373408542305697,1.0000060521884104,0.00030830938015628015
-0.493593206780497,-0.493593206780497,0.9999560218568597,0.0003390482927142644
-0.49350016688986215,-0.49350016688986215,1.0004427398036624,0.0003632562137946419
-0.49341504968178923,-0.49341504968178923,1.0001784464005157,0.00032588749463648305
-0.49321098521759266,-0.49321098521759266,0.9999265991016584,0.0003144466674982096
-0.4930492730200058,-0.4930492730200058,1.00009071720453,0.00034463129103388403
-0.4929527154308744,-0.4929527154308744,0.9999220341116344,0.0002982807277422775
-0.49289795822114685,-0.49289795822114685,1.0001458151904543,0.00033573566162902217
-0.4928437456022948,-0.4928437456022948,1.0000743788822204,0.0002954005087405712
-0.49278005069645586,-0.49278005069645586,0.9997899221346117,0.00030918198976081156
-0.4926074389484711,-0.4926074389484711,0.9997455906279032,0.00030567462667094216
-0.49244728833728,-0.49244728833728,1.0005337756076678,0.00044991014491649084
-0.49238858292519583,-0.49238858292519583,1.000206714423753,0.00032668592137379243
-0.4923070413933601,-0.4923070413933601,0.9996051749141925,0.00028614940671613985
-0.4921794955036603,-0.4921794955036603,1.000158363809365,0.00032352235200367065
-0.4920760081789922,-0.4920760081789922,0.9999081112217209,0.0003122461825448147
-0.49197548944212033,-0.49197548944212033,1.0005609812311573,0.0003007872847650658
-0.4918588259984972,-0.4918588259984972,1.0001092344754174,0.00033139280691354175
-0.4917573055863613,-0.4917573055863613,0.9997575144084877,0.0003281334703068895
-0.49159708963125015,-0.49159708963125015,0.9998972533035728,0.00035080806164687297
-0.4914915921748616,-0.4914915921748616,0.9997263088500589,0.0003421751378009552
-0.4913792470702901,-0.4913792470702901,0.9996329001079586,0.0003270814424495864
-0.4913110941182822,-0.4913110941182822,1.00039091590397,0.00034635740690084954
-0.49120477483957076,-0.49120477483957076,1.0001957899050955,0.00029940961745778016
-0.49102496172126847,-0.49102496172126847,1.0002368149336527,0.00035268456142437707
-0.4907196375541389,-0.4907196375541389,0.9998081192591837,0.0003259754088957862
-0.4905354334914591,-0.4905354334914591,0.999590519653084,0.0003091247392964213
-0.4903223994624568,-0.4903223994624568,1.0002690713649212,0.0003110434158412765
-0.4902747525455197,-0.4902747525455197,1.0002796893836443,0.0003486535779619638
-0.490202992624836,-0.490202992624836,1.0001139051599561,0.0002947364930905161
-0.4900957287492929,-0.4900957287492929,0.9997966015119312,0.00034089508747514434
-0.4899996065796586,-0.4899996065796586,1.0003823679666872,0.0003045644171774739
-0.48988516794051973,-0.48988516794051973,1.0000058738995823,0.00039165673530770046
-0.4897231603215914,-0.4897231603215914,0.9997443327037365,0.0003058013510158468
-0.48962593333853877,-0.48962593333853877,1.0004839837146478,0.00031866534925814637
-0.4894871324853739,-0.4894871324853739,0.9998950783547272,0.0003477783120002304
-0.4893183925189078,-0.4893183925189078,0.9997034743301588,0.00030466392939980223
-0.48922138660855125,-0.48922138660855125,1.0002559855596096,0.000308987700620324
-0.48915183600620366,-0.48915183600620366,1.0002132370305072,0.0003520378679350861
-0.4890918407269055,-0.4890918407269055,0.9998899273075044,0.00037717941532760667
-0.48900030554505064,-0.48900030554505064,0.999574459890245,0.0003282779252277977
-0.488914687698707,-0.488914687698707,1.0002264493770403,0.00030133483226746556
-0.4887782875885023,-0.4887782875885023,1.0001549486317438,0.0003491298338943975
-0.48858113668393344,-0.48858113668393344,0.9999067863984642,0.00036776673009371655
-0.48834946993447376,-0.48834946993447376,0.9993005418702332,0.00035285009689061823
-0.48816122315183746,-0.48816122315183746,0.9995592402010767,0.0003192609144653643
-0.48800512417510616,-0.48800512417510616,0.9996234656765367,0.0003044381131797171
-0.4878702725894982,-0.4878702725894982,0.9995253841875245,0.0003139185222135119
-0.4877264165552333,-0.4877264165552333,0.9998860169694179,0.0003547241931852918
-0.4875617364014033,-0.4875617364014033,1.0003781783621695,0.00034752371730696147
-0.48745694052777255,-0.48745694052777255,0.999932331258246,0.0003220678264380558
-0.4872522394784028,-0.4872522394784028,1.0000781472025533,0.000289186709540962
-0.48714030429546257,-0.48714030429546257,0.9998388947895954,0.0003220490011753085
-0.4870338304142933,-0.4870338304142933,0.9995587547886652,0.0003815134024041248
-0.4869401969859609,-0.4869401969859609,1.0000446481891245,0.0003125744861786282
-0.4868592855986208,-0.4868592855986208,0.9998944561099418,0.00030241848214175246
-0.4867733463324839,-0.4867733463324839,0.999802017758132,0.0003180910238445906
-0.48658337254601064,-0.48658337254601064,1.0002438720641942,0.00032213445762859974
-0.48646189586143007,-0.48646189586143007,0.9995873781205512,0.00033419235782874957
-0.48632852365553847,-0.48632852365553847,0.9999606377363573,0.0003119624169167329
-0.48620789066771974,-0.48620789066771974,0.9998454085445838,0.0003348751884180678
-0.48607825293729545,-0.48607825293729545,0.9998330764308548,0.000306746667322589
-0.48598117238725536,-0.48598117238725536,0.9999782423433186,0.0003231785850560602
-0.48583651017397644,-0.48583651017397644,0.9998833120845539,0.00028998784172645754
-0.48574381242506204,-0.48574381242506204,1.000025534386435,0.0003458580346127514
-0.485621108635678,-0.485621108635678,0.9998596201382108,0.00034414211006605704
-0.4855155504308641,-0.4855155504308641,0.9999914339588001,0.0003588569362356711
-0.48531965126167054,-0.48531965126167054,0.9996299337343693,0.0002981867578860037
-0.48517981088662054,-0.48517981088662054,1.0003633938986405,0.00030785677711584424
-0.4849303799739573,-0.4849303799739573,0.999538063749634,0.0003560007615662832
-0.4846568678534823,-0.4846568678534823,1.0000868043386202,0.00033250299397804314
-0.48446857031667606,-0.48446857031667606,0.9996789037991352,0.0003171304764115174
-0.4843265085859457,-0.4843265085859457,1.0001002431192514,0.0003120782788427083
-0.48420407507219354,-0.48420407507219354,1.000095972899494,0.0003093627004107447
-0.4841162846540101,-0.4841162846540101,0.999800648007023,0.000312898794707144
-0.4840330106264446,-0.4840330106264446,1.0001889294913786,0.00032458218249772203
-0.4838695742189884,-0.4838695742189884,1.0002969301428752,0.00034255803129093926
-0.4836763288156362,-0.4836763288156362,0.9998646989582733,0.0002935996923174388
-0.4835915674892021,-0.4835915674892021,0.999749888598673,0.000312214810518858
-0.48349000975722445,-0.48349000975722445,0.9999173181480968,0.0003096970031897928
-0.4834141693892889,-0.4834141693892889,0.9999344170674209,0.00031216184557859947
-0.483311057681567,-0.483311057681567,0.9995712784369675,0.0003809728142749391
-0.4832572283601621,-0.4832572283601621,1.0002552507820075,0.0003587558861551068
-0.48318604995147324,-0.48318604995147324,0.9998581116838299,0.00031263912368188496
-0.4830893088743323,-0.4830893088743323,1.0001727472993018,0.0003076163181707806
-0.4829913499590475,-0.4829913499590475,0.9998049029599658,0.0003543326539615843
-0.48288197139045225,-0.48288197139045225,1.0003854680726518,0.0003116132526584217
-0.48267704268801026,-0.48267704268801026,1.0002025439763689,0.0003233235332366566
-0.48247741396480703,-0.48247741396480703,0.9997454373240362,0.00033628474527585373
-0.4822288022725843,-0.4822288022725843,1.0001401406763932,0.00032419493329803156
-0.482077172541176,-0.482077172541176,0.9997219967975279,0.0003082958935046409
-0.481978416730999,-0.481978416730999,0.999915238114367,0.00031680945493564144
-0.48187490678392353,-0.48187490678392353,1.0001482701323217,0.00033150604248799513
-0.48177097644365857,-0.48177097644365857,1.0001356227604687,0.0003132407081124186
-0.48161855680227744,-0.48161855680227744,1.0004620551818832,0.00034383479331537997
-0.48148542592534793,-0.48148542592534793,0.9995051677176617,0.00028939321876082037
-0.4813953358738218,-0.4813953358738218,1.0001222086356458,0.00030317619382186193
-0.4812659738236107,-0.4812659738236107,0.9997471981202063,0.00027861505214737785
-0.4811512242333265,-0.4811512242333265,0.999480958356777,0.00035063488581801633
-0.4810969311161898,-0.4810969311161898,0.9998368125469534,0.0003372797632394163
-0.4809686729538953,-0.4809686729538953,0.9993236655228165,0.00034019281711706613
-0.48088246695697306,-0.48088246695697306,0.9995970497123462,0.0002911627319425278
-0.4808231410890585,-0.4808231410890585,1.0000628198838029,0.0003203271027875204
-0.48071832314308266,-0.48071832314308266,0.9999675493086112,0.0003266624119403322
-0.48053388177359013,-0.48053388177359013,0.9996924662703423,0.0003185845678005161
-0.48035668349766636,-0.48035668349766636,0.9999451016988207,0.00031998198566156544
-0.4801994116947753,-0.4801994116947753,0.9999773356739686,0.00031725798050357047
-0.4800729509908706,-0.4800729509908706,0.9998980661820662,0.0003290823730591068
-0.47996058854041623,-0.47996058854041623,1.0000981503042206,0.00033199256597805547
-0.47986591800290623,-0.47986591800290623,1.0003385761314036,0.0003152794722903228
-0.47974132585513873,-0.47974132585513873,0.9999710009022488,0.0003161683968187365
-0.4796584062743932,-0.4796584062743932,0.9999515629991562,0.0003008139988102722
-0.47951513034349774,-0.47951513034349774,0.999828813907164,0.0003416136116161588
-0.4792642735643312,-0.4792642735643312,1.0003905951495438,0.00033794030140987634
-0.47905180309608114,-0.47905180309608114,0.9997978849093577,0.0003341329229091134
-0.47884869539993813,-0.47884869539993813,0.9996673809583084,0.0003156336391409348
-0.4787456918769749,-0.4787456918769749,1.0003850945887707,0.00033314588950105573
-0.47857098403037523,-0.47857098403037523,1.0003060827779016,0.0003407700746952614
-0.47842150667274835,-0.47842150667274835,1.000336276304364,0.00031804115594107914
-0.4783213424903806,-0.4783213424903806,0.9998551492699997,0.00029326493520885166
-0.4782426384073915,-0.4782426384073915,1.0000151560701138,0.0003220400049013314
-0.47815853175125084,-0.47815853175125084,0.9993001472614716,0.00034626184797841356
-0.4780989649676485,-0.4780989649676485,1.00028167329855,0.00029368116368714593
-0.4780123898643069,-0.4780123898643069,1.0001192865493356,0.0003199027773218997
-0.47779807517363226,-0.47779807517363226,1.0014055745078054,0.0002942156046470378
-0.4776449367200257,-0.4776449367200257,0.999804150118648,0.00035291888547677537
-0.47755622540134934,-0.47755622540134934,1.0003998711622724,0.0003374828349989175
-0.47747260810574516,-0.47747260810574516,0.9999096988146906,0.00036425428283389536
-0.4773324755806243,-0.4773324755806243,0.9999022576695424,0.000320594147070057
-0.4772213437827304,-0.4772213437827304,0.9999151231961287,0.00031129114768658984
-0.4771345803252188,-0.4771345803252188,1.0003255609640918,0.0003564264642919786
-0.47701837550266646,-0.47701837550266646,0.9997779731766789,0.0003261081011233743
-0.4768632303195773,-0.4768632303195773,1.000246549362633,0.00031263061291344905
-0.4767042604391463,-0.4767042604391463,1.0002967850269404,0.00032614065689904427
-0.4765223746479023,-0.4765223746479023,0.9999111308076228,0.0003378941185105526
-0.47628793383191803,-0.47628793383191803,1.000240858436733,0.00032533780168308594
-0.47618315612489825,-0.47618315612489825,0.9995744102281512,0.0003301400761440637
-0.4760243832628476,-0.4760243832628476,0.9999361184861997,0.0003508438348121234
-0.47592792121286037,-0.47592792121286037,1.000349347942381,0.00033797619557179794
-0.47584779288736173,-0.47584779288736173,0.9998796932579221,0.00027443659844904154
-0.4757506349356845,-0.4757506349356845,1.0002489160288242,0.000317548401085243
-0.4755402311508078,-0.4755402311508078,1.0003279866726231,0.0003102037476749964
-0.47537996743631084,-0.47537996743631084,0.999596013232978,0.00029076504396308015
-0.47531045839132274,-0.47531045839132274,1.0000481991259282,0.000276539991489497
-0.47524333067703994,-0.47524333067703994,0.999437427356656,0.0003596887776779086
-0.47513478733599185,-0.47513478733599185,0.9992496282258463,0.000327215390002635
-0.4750709250452928,-0.4750709250452928,1.000262673240361,0.0003408263116224299
-0.4750024882639991,-0.4750024882639991,1.0001704312126762,0.0003212933357589437
-0.4748700433352496,-0.4748700433352496,1.000494355233044,0.00030164358459531095
-0.4747679416963365,-0.4747679416963365,1.0002186872246845,0.00028623314297399576
-0.474650510380161,-0.474650510380161,1.0000838405495958,0.00033204162425197524
-0.47447111839428546,-0.47447111839428546,0.9994335932758629,0.000326417429159913
-0.47432785522541965,-0.47432785522541965,0.9996755054808247,0.00032125604661043363
-0.47423718037898654,-0.47423718037898654,1.0003318797081096,0.0003207989896773043
-0.47415808539662974,-0.47415808539662974,1.0001590939850566,0.00032189047323187656
-0.4740974156622542,-0.4740974156622542,0.999788232755062,0.0002903534984211433
-0.4739442982536275,-0.4739442982536275,0.999644636581696,0.0002916553605913553
-0.4738427528180182,-0.4738427528180182,0.9996407768579433,0.00031890755611454726
-0.47370514913636724,-0.47370514913636724,0.9999378226163401,0.00031323783543959794
-0.47362637152546083,-0.47362637152546083,1.000409543962165,0.00028332472128357963
-0.47342160288244484,-0.47342160288244484,1.0000405758077864,0.00033355764868679607
-0.47324674659757876,-0.47324674659757876,0.9995872029322204,0.00032753910355901565
-0.4730876781075494,-0.4730876781075494,0.9998851870676418,0.0003127561933208405
-0.4728978984465357,-0.4728978984465357,1.0000059450401193,0.0003155427435106815
-0.4726963037479436,-0.4726963037479436,1.0000864286204882,0.0003036531844591387
-0.47259654822410085,-0.47259654822410085,1.000024025421601,0.0003548050229294083
-0.4725004045671085,-0.4725004045671085,0.9999378329545404,0.00030394923842526843
-0.4724448052700609,-0.4724448052700609,1.0002260550703705,0.0003047608837345548
-0.4723825036024209,-0.4723825036024209,0.9997970655912477,0.00031570874470904806
-0.4722870891797356,-0.4722870891797356,0.9993716035304893,0.00033640429362643534
-0.47221934274130034,-0.47221934274130034,1.0000626657079745,0.0003390732499970979
-0.47209322601847814,-0.47209322601847814,0.9993406536073175,0.0003313080380921546
-0.47186543803836684,-0.47186543803836684,1.0003796437279098,0.00036106096715184723
-0.4717600442789262,-0.4717600442789262,0.9999040742972669,0.00036438615674455594
-0.4716066462919116,-0.4716066462919116,1.0000872765854592,0.00033662413218596546
-0.4714611330506159,-0.4714611330506159,0.9998995752628534,0.000308739950421062
-0.47139057486783714,-0.47139057486783714,1.000106874540428,0.00031841753015763116
-0.4713559217867441,-0.4713559217867441,0.9998106751910691,0.0003617038158548444
-0.4712527992785908,-0.4712527992785908,1.0001057762993057,0.0003212703999159554
-0.47115044202946593,-0.47115044202946593,0.9999004865909613,0.0003321123527771937
-0.4710056926152902,-0.4710056926152902,0.9997805902222126,0.00031622680905237194
-0.47087757381086703,-0.47087757381086703,1.0000418528876256,0.00031640792576642705
-0.47077315784408713,-0.47077315784408713,1.0001899766185667,0.00033294056091924133
-0.47057030560972635,-0.47057030560972635,0.9996994903617266,0.0003227162992787845
-0.4704985802731244,-0.4704985802731244,0.9993466150023753,0.0003529454057865081
-0.4703604387526866,-0.4703604387526866,1.000415386962617,0.00034878226978397154
-0.47020061311486644,-0.47020061311486644,1.0000727424215266,0.0003370489467996166
-0.4700971197686158,-0.4700971197686158,1.0000190067406762,0.00032025366797643935
-0.46998893633135597,-0.46998893633135597,0.9996407691627212,0.00032024202841901615
-0.4698671890422702,-0.4698671890422702,1.000516003249145,0.00029559617531582666
-0.4696914890781045,-0.4696914890781045,1.000082130748997,0.0003291191268003224
-0.4694880115421256,-0.4694880115421256,1.000130901178856,0.0003230202485325973
-0.4693914146075258,-0.4693914146075258,1.0004121186998993,0.00031012075645386585
-0.46933155811275357,-0.46933155811275357,1.0000581944434304,0.00031979137774966807
-0.46921349700132853,-0.46921349700132853,0.99985732376849,0.0003338849667373134
-0.4690831188228913,-0.4690831188228913,1.0001984616920783,0.0003139248281559477
