time,time,flux,flux_err
-0.4999265800197463,-0.4999265800197463,1.0001619961814947,0.0001398983093477651
-0.4997311071296281,-0.4997311071296281,0.9999930210719266,0.00013498189680966548
-0.4996004882908892,-0.4996004882908892,1.0001175536976885,0.00013526509703729262
-0.4994746429962106,-0.4994746429962106,0.9998666620617793,0.00013382382059665363
-0.4992980443588749,-0.4992980443588749,1.0000401761021427,0.00013884794870936773
-0.4991608852120407,-0.4991608852120407,0.9997713082112757,0.0001339031866097571
-0.4990432872400561,-0.4990432872400561,0.9999622672703199,0.00013149825225562234
-0.498979230877012,-0.498979230877012,1.0000066894578108,0.0001358061295677676
-0.4988938261187286,-0.4988938261187286,1.0000887511065129,0.0001306091569700187
-0.49879194979585006,-0.49879194979585006,1.0002129815992415,0.00013347378959970965
-0.4986973134975415,-0.4986973134975415,1.0001050556628606,0.00014043448934346645
-0.4986134978185873,-0.4986134978185873,1.0001353349530757,0.0001300504534320009
-0.49851993159245467,-0.49851993159245467,1.0000324724299083,0.00012686561481334155
-0.49845614566074803,-0.49845614566074803,0.9999367046320945,0.00013735914000665128
-0.4983518793633266,-0.4983518793633266,0.9999643064151217,0.00013059573187097258
-0.49818368502164956,-0.49818368502164956,1.0000098618048938,0.0001362159436538428
-0.4980589685445011,-0.4980589685445011,0.9999619925589365,0.0001412575239054681
-0.4979672963207122,-0.4979672963207122,0.9999987388802276,0.00013981909834613395
-0.49787191109062406,-0.49787191109062406,1.0000316187768594,0.00015315709863685873
-0.4977324663916079,-0.4977324663916079,0.9999885523683589,0.00013252604713519904
-0.49764460262376814,-0.49764460262376814,0.9998474806296462,0.0001280547839486405
-0.4975025478146563,-0.4975025478146563,0.9997222024387504,0.00013229160278721385
-0.4972925032299827,-0.4972925032299827,0.9999727316434115,0.00015108967000370066
-0.4970856542669935,-0.4970856542669935,1.0001083109252924,0.00013451017920619338
-0.496916019848868,-0.496916019848868,1.0001194669508906,0.00013195773492542096
-0.4967760912659287,-0.4967760912659287,1.0000118007380665,0.00013958566617171768
-0.4966922859654005,-0.4966922859654005,1.0000324204828184,0.00012843365597892586
-0.49660131177370204,-0.49660131177370204,1.000069323709409,0.00013040018966130855
-0.49651754294100103,-0.49651754294100103,1.0000355743545213,0.00013959909334693773
-0.49643394583981715,-0.49643394583981715,0.9999697567714814,0.00012982517972579124
-0.49627061422070257,-0.49627061422070257,1.0000483136160818,0.0001413224721508184
-0.4961874877815717,-0.4961874877815717,1.0001291200780609,0.00012960449135331536
-0.496073562833044,-0.496073562833044,1.0002259069787705,0.00013353623544314175
-0.4959403975153691,-0.4959403975153691,0.9999059957313705,0.00013623099683070645
-0.49577203672597536,-0.49577203672597536,0.999898961638203,0.0001364822465675019
-0.4956687635327398,-0.4956687635327398,0.9998777673854583,0.00013917390815250017
-0.4955012651284051,-0.4955012651284051,1.0000706474551215,0.00013246139026568013
-0.4953451649205817,-0.4953451649205817,0.9999128978302287,0.00013063022358556842
-0.4951898620907741,-0.4951898620907741,0.9998844701799786,0.00014207689997910346
-0.4950170874457399,-0.4950170874457399,0.9998668924908264,0.0001403340949062868
-0.4949182879921864,-0.4949182879921864,1.000084025118147,0.00013560236549939593
-0.4947692918831308,-0.4947692918831308,0.9998554381600389,0.00013397773796695943
-0.4946462342093582,-0.4946462342093582,1.000036695747787,0.00013611054085886572
-0.4945729202401708,-0.4945729202401708,0.9998778242560575,0.00013741723941353498
-0.49449475990841163,-0.49449475990841163,1.000004866516819,0.00013092179876504135
-0.49438405592445633,-0.49438405592445633,1.0001302877369618,0.00012996008163889018
-0.49427109253010715,-0.49427109253010715,1.000057230687365,0.0001300516895707625
-0.4941622082340473,-0.4941622082340473,1.0000445067479518,0.00013091697216137169
-0.49406554626111754,-0.49406554626111754,0.9998557963778995,0.00013848995706283683
-0.4940073461933935,-0.4940073461933935,1.000150308853033,0.00013002285718878323
-0.49388792345343974,-0.49388792345343974,0.9998927418278406,0.0001366248679465001
-0.49376779348604033,-0.49376779348604033,1.0000530751826555,0.0001294453053133505
-0.4936536700115539,-0.4936536700115539,1.0000139144323072,0.00014011239591450706
-0.4934782435266243,-0.4934782435266243,1.0000046208978752,0.00014544867251693215
-0.4933730032367748,-0.4933730032367748,0.9999964763946227,0.00013087944439616172
-0.4933031274573295,-0.4933031274573295,0.9998937159612993,0.00012947797283100534
-0.49316286614557614,-0.49316286614557614,1.0002935593831253,0.00013150196073287787
-0.4929809737725009,-0.4929809737725009,0.9998770866646097,0.00013888768326836954
-0.4927544889098499,-0.4927544889098499,1.0000159668528104,0.0001411417205676372
-0.49256835718260844,-0.49256835718260844,1.0001166518794027,0.00013497759264099218
-0.49245152940857223,-0.49245152940857223,1.0000423042002415,0.00013336923780823845
-0.4923213542533631,-0.4923213542533631,1.0000982330888557,0.00014426166388808212
-0.4921633197613119,-0.4921633197613119,0.9999675091912597,0.00012507239907765837
-0.4921161620310158,-0.4921161620310158,1.0000500398505776,0.0001311068268044343
-0.4920607514119183,-0.4920607514119183,0.9998492380481789,0.00013066768865466698
-0.4919910999793501,-0.4919910999793501,1.0000038957345454,0.00013196552198761817
-0.4919248397163756,-0.4919248397163756,0.9999252494376268,0.00013906805582964354
-0.4917873235375737,-0.4917873235375737,1.0000505632653656,0.00013084439257599328
-0.49170783977679094,-0.49170783977679094,0.9999599064640916,0.00013292258376296407
-0.49156879685106103,-0.49156879685106103,0.9999603640659233,0.00013909472587121202
-0.4914497947313066,-0.4914497947313066,0.9999564500846928,0.00013798653387270518
-0.491370945257222,-0.491370945257222,1.0001218696604977,0.00013802168122768624
-0.4912677106600313,-0.4912677106600313,1.0000313581421518,0.00013128095967097412
-0.49104772069622415,-0.49104772069622415,1.0001050738563424,0.00013624201706631054
-0.4909153070104367,-0.4909153070104367,1.0001625361357522,0.00013003139205912972
-0.4907210184814176,-0.4907210184814176,1.0000821533948079,0.00013753557349124323
-0.4905809305077128,-0.4905809305077128,1.0001379431153041,0.00013135574141933656
-0.49052298220995,-0.49052298220995,1.0001441659121308,0.00013818164886613687
-0.4903533481396153,-0.4903533481396153,1.0003135888539458,0.00013526831310493753
-0.4902053851496021,-0.4902053851496021,0.9997484475839429,0.0001356008528748336
-0.4901106412471563,-0.4901106412471563,0.9999915798633779,0.00013182793123561162
-0.4899308093801665,-0.4899308093801665,0.9999910468039681,0.00013077792370946316
-0.4898456554132281,-0.4898456554132281,0.999981892120157,0.00012554227413663616
-0.4897518720536027,-0.4897518720536027,1.0002561995080617,0.00013270679337370512
-0.48970489491330227,-0.48970489491330227,0.9998998615774577,0.00015119957037946444
-0.4895813990791794,-0.4895813990791794,0.9999332254917,0.00013126042824182388
-0.4894509787482093,-0.4894509787482093,1.000085012276799,0.00013699054547731582
-0.489360157027113,-0.489360157027113,0.9998693307573904,0.00013269329731317064
-0.4892316889767244,-0.4892316889767244,0.9999936358739017,0.00013925464371383468
-0.48913320385327097,-0.48913320385327097,1.0001087037497727,0.00013229973495791384
-0.4890133057473577,-0.4890133057473577,1.0001109858054613,0.00013009906387636427
-0.488831009700516,-0.488831009700516,1.0000847931196621,0.00013956357632980448
-0.4886098375500296,-0.4886098375500296,0.9999590443143646,0.0001645947134899006
-0.4884345229242172,-0.4884345229242172,0.9998856250180989,0.0001337510630594805
-0.4882267313558259,-0.4882267313558259,1.0002273527080017,0.00013331061342833274
-0.48807710494220374,-0.48807710494220374,1.0002115659029023,0.00012992703441029515
-0.4879248619210557,-0.4879248619210557,1.0001626936480728,0.00014324196389005027
-0.48775273898863813,-0.48775273898863813,1.0000836554224348,0.00013126396655089356
-0.48763725891694776,-0.48763725891694776,0.9998844615132768,0.0001267016892334439
-0.48757581457539345,-0.48757581457539345,0.999946930373676,0.0001270465823080378
-0.487490168234217,-0.487490168234217,1.0002437723640534,0.000141520528607346
-0.48739321290049703,-0.48739321290049703,1.000095817802394,0.0001350633233512026
-0.4872762771039561,-0.4872762771039561,1.0000588437154816,0.00013535807031398128
-0.4871493444807129,-0.4871493444807129,1.0003091710762622,0.00013152747828354638
-0.48706058651587225,-0.48706058651587225,1.0000112185829768,0.0001393738955234143
-0.4868619124448742,-0.4868619124448742,0.9999257992419694,0.00012872728640444332
-0.4867044808299397,-0.4867044808299397,1.0000934498021592,0.00013063506099477527
-0.4866352917728364,-0.4866352917728364,1.000065302708985,0.00014090635748484635
-0.4865248202586372,-0.4865248202586372,1.000087517506266,0.00013737970535953914
-0.4864190386615519,-0.4864190386615519,0.9999536188581072,0.00014934298380031376
-0.486309553526371,-0.486309553526371,1.0002746019329782,0.00012900011940374028
-0.4861294739304867,-0.4861294739304867,1.0000133846531778,0.00013107171143298405
-0.4859406338779081,-0.4859406338779081,0.9999542763159823,0.00013356176783458628
-0.48574883616311126,-0.48574883616311126,1.0000245299243864,0.00014172436035582862
-0.485619982395292,-0.485619982395292,0.9998471726965557,0.0001328812464664486
-0.4854536392704176,-0.4854536392704176,1.000103365078536,0.0001349678694445849
-0.4853195653151488,-0.4853195653151488,1.000066171243759,0.0001380540618759484
-0.485282002772874,-0.485282002772874,0.9998586045157154,0.000130307922901974
-0.48518643295246877,-0.48518643295246877,0.9997909696306142,0.00013370508257386332
-0.48509105959601584,-0.48509105959601584,1.0000500009945454,0.00012942614566158455
-0.4849787999322871,-0.4849787999322871,0.9999234463736096,0.00014127534991409838
-0.48487459110838244,-0.48487459110838244,0.9998537634681783,0.00013856223037980825
-0.48477358004820414,-0.48477358004820414,1.000044391702877,0.00012939606216935456
-0.48455392828327604,-0.48455392828327604,1.0001449402589568,0.00013687692705792684
-0.48445001077561756,-0.48445001077561756,1.0001198553303083,0.00013676756990767708
-0.4843285283248406,-0.4843285283248406,0.9998045011298009,0.0001410571402616637
-0.4842111818979902,-0.4842111818979902,0.9998311727756128,0.0001405081473840013
-0.4840704351016029,-0.4840704351016029,0.9998738314044677,0.00013886521798576204
-0.48394015393496376,-0.48394015393496376,1.00005075010434,0.00013132925529103336
-0.48376086086500436,-0.48376086086500436,1.0001510719577937,0.0001425908554164857
-0.4835434318134503,-0.4835434318134503,0.9999697455619592,0.00014343286666405633
-0.4833085627244145,-0.4833085627244145,0.999936304418614,0.00013679010067435793
-0.4831895079856622,-0.4831895079856622,1.0000757913913234,0.00013147619255479242
-0.48309830392972797,-0.48309830392972797,1.0000432386140283,0.00013960545076670107
-0.4830298273540393,-0.4830298273540393,1.0000622178269878,0.00012830947203730357
-0.4829780442894844,-0.4829780442894844,1.0001874329241522,0.00012882822124727253
-0.48288508506448125,-0.48288508506448125,1.0001266232758443,0.00012844198963874563
-0.48280530286210704,-0.48280530286210704,1.0000653321610948,0.00013134482118731843
-0.48267073137831173,-0.48267073137831173,1.0001824779490753,0.0001376935922367345
-0.48257317204770517,-0.48257317204770517,1.000204037598022,0.00012698437890479964
-0.4824597533501219,-0.4824597533501219,1.0001663613673664,0.00012951951994446444
-0.482323577983334,-0.482323577983334,1.0002513048954185,0.00013110669004427823
-0.4821733490265615,-0.4821733490265615,0.9998905381318413,0.00014596700943230644
-0.4820348600624129,-0.4820348600624129,1.000002971637608,0.00013808961560092973
-0.48192709235299847,-0.48192709235299847,1.000211240946826,0.00012957239692466474
-0.48177519855380524,-0.48177519855380524,0.9997277817904001,0.00014141423106065731
-0.4815918804262765,-0.4815918804262765,1.0000637472891711,0.00013795194800610649
-0.481427657315362,-0.481427657315362,1.0001438227975847,0.00014174220994959846
-0.48122250610394984,-0.48122250610394984,1.0000323766075128,0.00013562999983508518
-0.4810767271679651,-0.4810767271679651,1.0000819456772612,0.0001351660723479025
-0.4809203041724686,-0.4809203041724686,0.9999412591912737,0.00014399317056786127
-0.4808529101865133,-0.4808529101865133,1.0000529562055598,0.00012690492276502152
-0.4807728114828933,-0.4807728114828933,1.0000155719356916,0.00013424079971257485
-0.4807152617511747,-0.4807152617511747,1.000120058131868,0.0001289571737185857
-0.4806403031718219,-0.4806403031718219,1.000014093191872,0.00012658674932160144
-0.4805360299476888,-0.4805360299476888,0.9999959796590536,0.00013988463929120814
-0.4804008526793041,-0.4804008526793041,0.9998193509129536,0.000131477006015965
-0.4803147142592934,-0.4803147142592934,0.9999041991396489,0.00013261365081155624
-0.4802168860020174,-0.4802168860020174,1.0000437810577483,0.00014042985676908314
-0.4800818240997614,-0.4800818240997614,0.9999858406524762,0.00012835317273357034
-0.47999789400273585,-0.47999789400273585,1.0000206241630945,0.00013824370113051844
-0.4799131018080516,-0.4799131018080516,1.0000630144606482,0.0001399675581403392
-0.4797241278582078,-0.4797241278582078,1.000152301754594,0.00013866076698038223
-0.4795754813232634,-0.4795754813232634,1.000032756316672,0.00013446595732649556
-0.4793289858127537,-0.4793289858127537,0.9998755121940244,0.0001409029823354764
-0.4792015988386993,-0.4792015988386993,0.9999467243941458,0.00013838784968235615
-0.4789927910111146,-0.4789927910111146,1.0000763668500354,0.00013117098781353784
-0.4788504041789565,-0.4788504041789565,0.9999719992982061,0.00013493487288982243
-0.478746015199431,-0.478746015199431,1.0003103170288619,0.0001415600188021
-0.47862087534449527,-0.47862087534449527,0.9999019601735316,0.00013375037172241224
-0.4784529416647274,-0.4784529416647274,0.9998957311934046,0.0001284601288779419
-0.47839013311095185,-0.47839013311095185,0.9999673228166092,0.00012992798731893075
-0.4783203217521077,-0.4783203217521077,1.0000220353018547,0.00013408799403626415
-0.47827343351964374,-0.47827343351964374,0.9999720941533496,0.00013757846795301232
-0.4781605966447387,-0.4781605966447387,0.9999811954565121,0.00012859237789505568
-0.4780158391688019,-0.4780158391688019,1.0000962854046134,0.0001422465407830813
-0.47791444621470874,-0.47791444621470874,0.9999098723109032,0.00013027372899942992
-0.47780220865897716,-0.47780220865897716,0.999953066613126,0.0001381451972325752
-0.47770285178703487,-0.47770285178703487,1.0001927015306262,0.00013080138500758617
-0.47758244154028945,-0.47758244154028945,0.9998287092203688,0.0001284937766058027
-0.47743082764427525,-0.47743082764427525,1.0000731186563225,0.0001300871128668731
-0.47729656293449807,-0.47729656293449807,1.000054331827235,0.00013728595529264987
-0.47720420599434876,-0.47720420599434876,0.9998422629810456,0.00014043259259920502
-0.4770004593920021,-0.4770004593920021,0.9998991768441092,0.00013276048115668898
-0.47685333059416735,-0.47685333059416735,1.0001042147701593,0.00012941176537112936
-0.47662576746442936,-0.47662576746442936,1.0000145866835237,0.00014252202390928776
-0.4764469236884906,-0.4764469236884906,0.9998415799115961,0.00013469821609560405
-0.47631823818446717,-0.47631823818446717,0.999812841736043,0.00012861158753855589
-0.47619680014249754,-0.47619680014249754,0.9998117742558712,0.0001262959973595448
-0.47613460180655237,-0.47613460180655237,1.0001146240877554,0.0001386508244982886
-0.4760551849140029,-0.4760551849140029,0.9999822544866044,0.0001357705641556687
-0.4759723982293508,-0.4759723982293508,1.0000782549971663,0.00013110020786189622
-0.47585228186580936,-0.47585228186580936,1.0000576623917055,0.00014018568341738125
-0.4757388173304207,-0.4757388173304207,1.0000392430525311,0.000132318097656193
-0.47556478631886423,-0.47556478631886423,1.0001570526091086,0.0001462414475626038
-0.475443388154963,-0.475443388154963,1.0000321033571666,0.00013025233530083053
-0.4753401056324947,-0.4753401056324947,0.9999602663671734,0.00013081286008416432
-0.475103127064358,-0.475103127064358,1.0001694092335272,0.00014920383158850174
-0.47494689779778126,-0.47494689779778126,1.0000156792620307,0.00013735461881809265
-0.47478710351642806,-0.47478710351642806,1.000038629120898,0.00013303406980326161
-0.47464358387005634,-0.47464358387005634,0.9999645942196483,0.00013322993551379914
-0.4745049901532184,-0.4745049901532184,0.99987243680705,0.00013350639305582295
-0.474394686215237,-0.474394686215237,0.9998527852049574,0.00014277294774019526
-0.47418517678815986,-0.47418517678815986,1.000116077667268,0.00012887057121872489
-0.4740669507962593,-0.4740669507962593,1.0000623936548794,0.00013415260604878466
-0.4739648488794046,-0.4739648488794046,1.0000868156422829,0.00012908586350097122
-0.47388745199132243,-0.47388745199132243,1.0001870735044096,0.00013657887884623685
-0.4738116599786736,-0.4738116599786736,0.9999426624791024,0.0001352003774896328
-0.4737340988169308,-0.4737340988169308,1.0002013594509407,0.0001312161195918466
-0.47362001863803016,-0.47362001863803016,1.0000600636424664,0.00013873213019916956
-0.4735597801322001,-0.4735597801322001,1.0001168379839434,0.00013041564962077714
-0.47348340528187693,-0.47348340528187693,1.0000526688132558,0.0001312076348721641
-0.4734239422265091,-0.4734239422265091,0.9999687869880768,0.00013871352938330892
-0.473349101866188,-0.473349101866188,1.0000279819686304,0.00012651983511483624
-0.4731179434442311,-0.4731179434442311,1.0000362687368167,0.00013919072026882264
-0.47298557463946056,-0.47298557463946056,0.9999316605381781,0.00013955251815701787
-0.47287071865503094,-0.47287071865503094,0.9999869544464003,0.00014796076452405665
-0.47274661436167664,-0.47274661436167664,0.9998933652121792,0.00013270566064922865
-0.4725948196282843,-0.4725948196282843,1.0000583204295137,0.00012965142975567906
-0.4724656621016038,-0.4724656621016038,1.0000346141732788,0.00012911974489133413
-0.47224175918017863,-0.47224175918017863,1.0000041906381574,0.0001509588708602559
-0.4720397283017519,-0.4720397283017519,0.9999062573398309,0.00013438443218377868
-0.47188675456200146,-0.47188675456200146,1.0000481420851215,0.0001340879198769047
-0.47174053639537306,-0.47174053639537306,1.0001204355342916,0.00013114953865476042
-0.4716722119861515,-0.4716722119861515,1.0000505658152883,0.00013642264855670785
-0.4716102372702153,-0.4716102372702153,1.000117409214121,0.00012920647909119451
-0.4715373698250914,-0.4715373698250914,1.0000828137046367,0.0001295972470205976
-0.4714486542019586,-0.4714486542019586,1.0000210836774144,0.00013703336784989085
-0.47138354903945584,-0.47138354903945584,0.9999432145966969,0.00012987138865812583
-0.471214906113164,-0.471214906113164,0.9999141593141673,0.00014130203059914222
-0.47115157767693744,-0.47115157767693744,0.9997911841572231,0.00012911473850692998
-0.4710371416171256,-0.4710371416171256,1.0003124893114272,0.00013282531287665966
-0.4708736875567411,-0.4708736875567411,1.0000446453744796,0.00013583233741242567
-0.47070711516134905,-0.47070711516134905,1.0000011652791239,0.0001393289090739946
-0.47061589777003976,-0.47061589777003976,1.0001267141844348,0.00013902279053772844
-0.4704547068096872,-0.4704547068096872,1.0000318803427197,0.00013238503994697346
-0.47032312993396774,-0.47032312993396774,0.9999205052460889,0.00012863974670527465
-0.4702032977496856,-0.4702032977496856,0.9998911869707235,0.0001329930724960093
-0.4700816968914296,-0.4700816968914296,1.0000933591835313,0.00014282786648262056
-0.4699164985147945,-0.4699164985147945,1.0000613231298732,0.00013996748014700046
-0.46981104262085865,-0.46981104262085865,0.9997927353444567,0.0001458499545943879
-0.46966630150927813,-0.46966630150927813,0.9999192341868908,0.0001359753209666231
-0.46956004891908376,-0.46956004891908376,1.0000782205268925,0.00013199420771326176
