time,time,flux,flux_err
-0.4998373404760059,-0.4998373404760059,1.0000238782540947,7.543986335507601e-05
-0.4995993695483776,-0.4995993695483776,0.999904849279067,7.61316629278021e-05
-0.49930024742207024,-0.49930024742207024,0.9999466437018985,7.665809152322227e-05
-0.4990819803839258,-0.4990819803839258,1.0002497316861756,6.898264464127872e-05
-0.4988231426119455,-0.4988231426119455,1.000032204659364,6.938969083009098e-05
-0.498637473697454,-0.498637473697454,1.000093835098039,7.013737013008149e-05
-0.49849095754980227,-0.49849095754980227,1.0000085896829496,6.958941404089188e-05
-0.4983255202292639,-0.4983255202292639,0.9999299918198895,6.966315603884889e-05
-0.4981489818484988,-0.4981489818484988,1.0000860060963999,6.967767049921128e-05
-0.49793910428415983,-0.49793910428415983,0.9998896811732825,6.890516081330082e-05
-0.49751354952531984,-0.49751354952531984,1.000053351008424,7.083352157873203e-05
-0.4971297734322434,-0.4971297734322434,0.999968990284448,6.85632750311782e-05
-0.49669448657950854,-0.49669448657950854,1.0000320435168204,6.99157476065727e-05
-0.49643407105177173,-0.49643407105177173,1.0000663456427765,6.899475324494015e-05
-0.4960910709458403,-0.4960910709458403,0.9999539393617857,6.885431542399494e-05
-0.4959066505150986,-0.4959066505150986,0.9999509022933928,6.928337695469524e-05
-0.4956455457424454,-0.4956455457424454,1.0001196041450098,6.937918593562844e-05
-0.4954267465560406,-0.4954267465560406,1.0000680482333277,6.902198333741664e-05
-0.49528123231066273,-0.49528123231066273,0.9999735872810056,6.975950485899469e-05
-0.49505079320733786,-0.49505079320733786,0.9999740990280909,6.875460640457027e-05
-0.494655061326921,-0.494655061326921,1.000000653745158,7.047838989092963e-05
-0.49447998846371777,-0.49447998846371777,0.9999829829476024,6.947801131457023e-05
-0.4943491185484163,-0.4943491185484163,0.9999661878246393,6.943518032240676e-05
-0.4940330531448126,-0.4940330531448126,1.0000991957091216,6.916698707789679e-05
-0.49375026283523765,-0.49375026283523765,1.0000197125703933,7.02416674165762e-05
-0.4934793469510623,-0.4934793469510623,1.0001289322490234,6.916484531029782e-05
-0.49316235957012394,-0.49316235957012394,1.0001017422781673,7.035107185084265e-05
-0.49292960084349036,-0.49292960084349036,1.0001770348433974,6.934252851058815e-05
-0.4925570501094626,-0.4925570501094626,1.0000107335561492,6.953285079443277e-05
-0.49239014462800695,-0.49239014462800695,1.0000041177818477,6.913613724489452e-05
-0.49226101595340876,-0.49226101595340876,1.0000649829548245,6.915687455168023e-05
-0.49203895315440604,-0.49203895315440604,0.9999824290196934,6.978130039545093e-05
-0.4917145267027081,-0.4917145267027081,0.999961877950064,6.955553691828996e-05
-0.49145077085340744,-0.49145077085340744,1.0000740545057094,6.946384894414095e-05
-0.4912141365086427,-0.4912141365086427,0.9999946610308381,6.877276285246205e-05
-0.4907385664722824,-0.4907385664722824,1.0000427653952435,6.922159401108039e-05
-0.49027951879397735,-0.49027951879397735,1.0002062145863857,6.977221969140706e-05
-0.49006676982317005,-0.49006676982317005,0.9999128820196912,6.967374579163888e-05
-0.4898020412947517,-0.4898020412947517,0.9999185941382251,6.967668719414682e-05
-0.48951855486157003,-0.48951855486157003,1.0000258672821505,6.998673751065951e-05
-0.4893919972455478,-0.4893919972455478,1.0000509646405413,6.894610889645938e-05
-0.48925082464847947,-0.48925082464847947,0.9999901124350521,6.98050966802433e-05
-0.48908436358906326,-0.48908436358906326,0.9999274144370947,6.942772240678508e-05
-0.4887545622084872,-0.4887545622084872,0.9998729299212817,6.960219001239798e-05
-0.48854387909377694,-0.48854387909377694,1.000195808524143,7.093794034737812e-05
-0.48840375328509256,-0.48840375328509256,1.0000019403989895,6.914189257656479e-05
-0.48822551687117083,-0.48822551687117083,1.0000967893895691,6.878852478692905e-05
-0.4879123778700887,-0.4879123778700887,1.0000239058856786,7.041056189458855e-05
-0.4875139309595397,-0.4875139309595397,1.0000263890806864,6.891796313072752e-05
-0.4871059816097841,-0.4871059816097841,1.000048536176801,6.882422878189454e-05
-0.486893289177533,-0.486893289177533,0.9999050409444175,6.951487053458318e-05
-0.48651649488601834,-0.48651649488601834,0.9999322081754206,6.892618426801023e-05
-0.4862837966873485,-0.4862837966873485,1.0000206904056743,6.927550489139801e-05
-0.4862064689485123,-0.4862064689485123,0.9999623811695579,6.903946323515535e-05
-0.4860634243195818,-0.4860634243195818,1.000062891533118,6.986975300349798e-05
-0.4858255057413771,-0.4858255057413771,1.0000939252942689,7.01743331023497e-05
-0.4856292591306556,-0.4856292591306556,1.0001589984664188,6.941480077257608e-05
-0.48544190364264067,-0.48544190364264067,1.00004054204036,6.940107703904315e-05
-0.48532541154927455,-0.48532541154927455,0.9999906390417117,7.025183689439098e-05
-0.48516841207820105,-0.48516841207820105,1.000012493284776,6.886728307895465e-05
-0.4848764933070925,-0.4848764933070925,0.9999146459729191,7.002453216994948e-05
-0.4845741099321458,-0.4845741099321458,1.0000501457740114,6.89355649308878e-05
-0.4842375619271479,-0.4842375619271479,1.0000345381665916,6.907355541109729e-05
-0.4840001362739713,-0.4840001362739713,0.9999483516536085,6.919032657742761e-05
-0.4837581625892199,-0.4837581625892199,0.9999068498153008,6.99223713481795e-05
-0.48347177508258027,-0.48347177508258027,0.9999450040309187,7.217691889449086e-05
-0.48325835656432903,-0.48325835656432903,1.0001079950549927,6.896708501362937e-05
-0.48304767784429714,-0.48304767784429714,0.9999495618947243,6.951716445398315e-05
-0.48281025299729663,-0.48281025299729663,1.0000350415082164,6.974424516314258e-05
-0.48259856061122264,-0.48259856061122264,1.0000314768384935,6.995348308218686e-05
-0.4823913476691814,-0.4823913476691814,1.0000395858540045,6.949974765136819e-05
-0.4822627918452781,-0.4822627918452781,1.000066298279191,6.989050813073112e-05
-0.4820131151638634,-0.4820131151638634,0.9999806885421005,6.88037089448718e-05
-0.4817493440728867,-0.4817493440728867,1.0000665964870838,6.982126169519682e-05
-0.48142159777780763,-0.48142159777780763,0.999924337324084,6.86736991688006e-05
-0.4810281756865152,-0.4810281756865152,1.0000184477549523,6.921734945308562e-05
-0.48080791777392734,-0.48080791777392734,1.0000069862928784,6.991382402073924e-05
-0.4805200292590598,-0.4805200292590598,1.0000102145428802,6.942800949378682e-05
-0.4802390094817383,-0.4802390094817383,1.0001356342392722,6.920665725178634e-05
-0.4800348044707789,-0.4800348044707789,0.9998764307546603,6.96585832834952e-05
-0.47977068992186106,-0.47977068992186106,1.0000733348288011,6.919150073625001e-05
-0.4795727529555734,-0.4795727529555734,1.0001129251139016,7.003980307549002e-05
-0.47938219788338754,-0.47938219788338754,1.0000635510294407,6.934799837605888e-05
-0.47924127703663544,-0.47924127703663544,1.0001293439729726,6.987892877695064e-05
-0.4790683011015062,-0.4790683011015062,1.000072898449163,6.866390927117493e-05
-0.47877102644270053,-0.47877102644270053,0.9999185911073415,6.94358886638835e-05
-0.4785320387054526,-0.4785320387054526,1.000054259883792,6.951095865162492e-05
-0.4781546656799037,-0.4781546656799037,1.0000723130962006,6.891877579867345e-05
-0.4778651128588535,-0.4778651128588535,0.9999502085552843,7.057580580140324e-05
-0.47759409781792783,-0.47759409781792783,1.000064090158729,6.91802466640783e-05
-0.477201223904558,-0.477201223904558,0.9999993752599664,6.857310929061583e-05
-0.4769394661190745,-0.4769394661190745,0.9998397908246603,6.937115270467616e-05
-0.4766532487956283,-0.4766532487956283,0.9999968426274555,6.975186403196536e-05
-0.476494479853136,-0.476494479853136,1.0000748706242042,6.96877262487241e-05
-0.4763658778982062,-0.4763658778982062,1.000085455001867,6.928236476290051e-05
-0.4762104283174267,-0.4762104283174267,0.999958194602143,6.98919786139109e-05
-0.4759995436594181,-0.4759995436594181,1.000078614511903,6.915502104419668e-05
-0.47570186712546275,-0.47570186712546275,1.0000274529444009,6.965183286601369e-05
-0.47539846950458015,-0.47539846950458015,1.0000766920801643,6.971996894726333e-05
-0.4748743592404935,-0.4748743592404935,1.0000341758734361,6.877530788527087e-05
-0.47461960698274197,-0.47461960698274197,0.9999957918488167,6.964249895348649e-05
-0.4743633287223929,-0.4743633287223929,1.000079565069622,6.975809379059307e-05
-0.4741809623374138,-0.4741809623374138,0.99995901680559,6.912797983776377e-05
-0.4739904450070753,-0.4739904450070753,1.0001105110617867,6.976854586228506e-05
-0.4737351648240292,-0.4737351648240292,0.9999676115034319,6.94594224082614e-05
-0.4736453635581711,-0.4736453635581711,0.9999543287131887,7.033663934641291e-05
-0.4734695123050187,-0.4734695123050187,0.9999943201503247,6.902150371413966e-05
-0.47331245176683295,-0.47331245176683295,1.0000136824298957,6.96976054012964e-05
-0.4731364199607924,-0.4731364199607924,0.99995466530978,7.005734633588134e-05
-0.4729457431007177,-0.4729457431007177,0.9998761454529145,6.937158073011112e-05
-0.4725382920274569,-0.4725382920274569,0.9999136034199407,7.107048627622195e-05
-0.47222391472023445,-0.47222391472023445,1.0000163658632932,6.917610723704737e-05
-0.47178807836025954,-0.47178807836025954,0.9999222250255645,6.934584491965243e-05
-0.47151779371706654,-0.47151779371706654,1.000091826055728,6.914795918531927e-05
-0.4712058650475228,-0.4712058650475228,0.9999214935355771,6.898546445443531e-05
-0.47098973090251095,-0.47098973090251095,1.0000990913050791,6.94082991995299e-05
-0.4707737608536263,-0.4707737608536263,1.0001570689703683,7.018348973500194e-05
-0.47052935427709597,-0.47052935427709597,0.9999505639901803,6.9516209905617e-05
-0.4703908835152106,-0.4703908835152106,1.0000825555002248,6.905770017753433e-05
-0.47023409247849485,-0.47023409247849485,1.0000299326817994,6.925875780149223e-05
-0.46992720315975023,-0.46992720315975023,1.0000178353711393,6.972625204047556e-05
-0.46961427184942295,-0.46961427184942295,1.0000241244518964,6.997669989451976e-05
-0.469469878183736,-0.469469878183736,1.0002258624792735,6.930929222471995e-05
-0.4692520797972975,-0.4692520797972975,0.9999129726031846,6.923908816670071e-05
-0.4689767067487992,-0.4689767067487992,0.9999710415534901,6.972254445549204e-05
-0.46877249609970023,-0.46877249609970023,0.9999991269492616,7.024227821336189e-05
-0.46852803542424226,-0.46852803542424226,1.0000724892502109,6.95416820385704e-05
-0.4682648256639368,-0.4682648256639368,0.9999130987971704,6.975176630878187e-05
-0.46803861069929553,-0.46803861069929553,0.9999923578609398,6.964228143695346e-05
-0.4677500728474115,-0.4677500728474115,1.0000995668570638,6.991408932670612e-05
-0.4674651057139272,-0.4674651057139272,1.0000374376816283,7.04612140355355e-05
-0.46733722419303375,-0.46733722419303375,0.9999640079241482,6.920810783341813e-05
-0.4671718066492758,-0.4671718066492758,1.0000227485764523,6.941772381996652e-05
-0.46689237929822414,-0.46689237929822414,1.0000140494667278,7.061609262384408e-05
-0.46664275716320847,-0.46664275716320847,0.9999026657439435,7.002408292554609e-05
-0.46644602521846534,-0.46644602521846534,1.0000647990089226,6.873526882957977e-05
-0.46615355843241557,-0.46615355843241557,1.000092359034402,6.876880419369565e-05
-0.4656421333187609,-0.4656421333187609,0.9999228213818465,6.979421909800027e-05
-0.4652209510619286,-0.4652209510619286,1.0000584796341454,6.901961511007398e-05
-0.4649857735996193,-0.4649857735996193,1.0000021345198022,6.910304304082804e-05
-0.46468049589238947,-0.46468049589238947,1.0001142623649963,7.042818621394319e-05
-0.4644855621278111,-0.4644855621278111,1.0000669467461434,6.961708742090163e-05
-0.464346985672455,-0.464346985672455,1.0000742498635524,6.902083833388366e-05
-0.46423398632832685,-0.46423398632832685,1.0000760951969978,6.942719439714278e-05
-0.46402863522889676,-0.46402863522889676,0.9999472015486273,7.025778189959776e-05
-0.4637183973289211,-0.4637183973289211,1.0000565697704797,6.941750079547646e-05
-0.46348607274267123,-0.46348607274267123,1.00007933863093,7.020806353470844e-05
-0.4634026199892105,-0.4634026199892105,1.0000368681365237,6.892281253451908e-05
-0.4631939630715351,-0.4631939630715351,1.0000526246104067,6.895093828239471e-05
-0.4628487399801088,-0.4628487399801088,1.0001413730821174,7.047093245123659e-05
-0.46245954617770624,-0.46245954617770624,0.9999239884308645,6.881767195247965e-05
-0.46206085573721795,-0.46206085573721795,1.0000322760325389,6.897778804947606e-05
-0.46185142906833787,-0.46185142906833787,1.0000511406010528,6.952029037251641e-05
-0.4615243819411262,-0.4615243819411262,0.9999534062858242,6.908870394596173e-05
-0.46129358151665656,-0.46129358151665656,1.0000605060581764,6.897429937198572e-05
-0.4611317565235368,-0.4611317565235368,1.0000137226518928,6.994127945492514e-05
-0.46090386084179047,-0.46090386084179047,1.0000738308191566,7.021204976237042e-05
-0.46066758716551703,-0.46066758716551703,0.9999920828169857,6.981243824340325e-05
-0.4604624366016651,-0.4604624366016651,1.0001204923352123,6.941972978656972e-05
-0.4603116602709633,-0.4603116602709633,1.0000875153878386,6.931229431494908e-05
-0.4601120854342298,-0.4601120854342298,0.9999878059901388,6.863146983420161e-05
-0.45988489022711293,-0.45988489022711293,0.9999728927734172,6.908971537560197e-05
-0.4595277894193714,-0.4595277894193714,1.0000167117082155,6.84188381364272e-05
-0.4591945943175233,-0.4591945943175233,1.0000300133762219,6.881018482682069e-05
-0.45898200560041,-0.45898200560041,0.9999019771861333,6.978888351116324e-05
-0.458759304794512,-0.458759304794512,1.0000435847188471,6.999741393621082e-05
-0.4584423013671767,-0.4584423013671767,1.0000490798672605,7.189172690669614e-05
-0.4582495015180029,-0.4582495015180029,1.0000481397138936,6.841215102266878e-05
-0.4580153583221545,-0.4580153583221545,1.0000499070970021,7.191833375966126e-05
-0.4577964161675482,-0.4577964161675482,0.9999357156526552,6.92830878720938e-05
-0.4576179653107829,-0.4576179653107829,1.000168364689377,6.998109828464944e-05
-0.45741374842036747,-0.45741374842036747,1.0000220689781474,6.949580579147922e-05
-0.4572804144190741,-0.4572804144190741,1.0001235095982675,6.989974755259229e-05
-0.457020087136334,-0.457020087136334,0.9999092134033439,6.890854934979638e-05
-0.4567415557576169,-0.4567415557576169,0.9999636223549896,6.970582168101874e-05
-0.45633629970179757,-0.45633629970179757,1.0000275146584245,6.867550478295635e-05
-0.45602627408879925,-0.45602627408879925,0.9999718042656494,6.900787106436415e-05
-0.45578659492603035,-0.45578659492603035,0.9999695513107916,6.999915708149457e-05
-0.4554676372194081,-0.4554676372194081,0.999953411825882,6.934517261847646e-05
-0.45520696005187344,-0.45520696005187344,1.0000723767601913,6.886892950035278e-05
-0.4549444113872596,-0.4549444113872596,0.9999574503755391,7.034805375504982e-05
-0.45470994993011116,-0.45470994993011116,0.9999647923258337,6.881319119208912e-05
-0.4545764732487442,-0.4545764732487442,1.0000332351611687,6.99162257802855e-05
-0.45444080049637703,-0.45444080049637703,1.000058831719052,6.941835977155722e-05
-0.4542792619788088,-0.4542792619788088,1.0000802570381508,6.971036541911124e-05
-0.45413101174490295,-0.45413101174490295,0.9999393416157643,6.898764448536825e-05
-0.4538467866303108,-0.4538467866303108,1.0000585452716397,6.970322568741286e-05
-0.453687162839924,-0.453687162839924,0.9999394800556191,6.921678867162484e-05
-0.4533791695976106,-0.4533791695976106,1.0001160074380995,6.955711510650554e-05
-0.45303675267277865,-0.45303675267277865,0.9999970077718204,6.985533363110641e-05
-0.4528021199235809,-0.4528021199235809,1.0000369108958087,6.934324838003848e-05
-0.4525457271171035,-0.4525457271171035,0.9998897199162851,6.898169677601458e-05
-0.4522224525688216,-0.4522224525688216,0.9998743204541484,6.858366977603948e-05
-0.45196677342610203,-0.45196677342610203,0.9999951294349865,6.935046804957854e-05
-0.45170569448164316,-0.45170569448164316,1.0001502451950526,6.922860890221715e-05
-0.45157306339679054,-0.45157306339679054,1.0000042472613604,6.928273950753757e-05
-0.4514209784007107,-0.4514209784007107,0.9999880439082623,6.970619344330319e-05
-0.45125170882893145,-0.45125170882893145,1.000098522201351,6.933726470734346e-05
-0.45108695485032513,-0.45108695485032513,1.000085335871416,6.89967397239341e-05
-0.45076755144182246,-0.45076755144182246,0.9998755297301976,6.940848104128898e-05
-0.4503776045894483,-0.4503776045894483,0.9999716434630843,6.989513448925489e-05
-0.44982729877956446,-0.44982729877956446,0.9999569684275592,6.877127977630563e-05
-0.4496128822087485,-0.4496128822087485,1.0000568616071153,6.941427042597885e-05
-0.449273324826936,-0.449273324826936,0.9999261380019945,6.820705828776113e-05
-0.4490099657297833,-0.4490099657297833,1.000131597188017,6.977624698465242e-05
-0.44880530948212255,-0.44880530948212255,0.9999628682789018,6.864317992245271e-05
-0.44864727989261155,-0.44864727989261155,1.0000293709335826,6.968546432997923e-05
-0.44844946363955385,-0.44844946363955385,1.000057382322019,6.971671750053854e-05
-0.4483157498158107,-0.4483157498158107,0.9998454353571586,6.942427477859704e-05
-0.4481523200731317,-0.4481523200731317,1.0000465176506266,7.00625910145121e-05
-0.4479697106900858,-0.4479697106900858,1.0000417415485026,6.930660491564011e-05
-0.4475608441112854,-0.4475608441112854,1.0000248421409323,7.097261073842024e-05
-0.4473820443148725,-0.4473820443148725,1.0002424322029513,6.906014644736939e-05
-0.4469631674823177,-0.4469631674823177,1.0000133062832794,6.918661297436574e-05
-0.44665338972336033,-0.44665338972336033,1.0000049354605252,6.972075761028357e-05
-0.4463416725498973,-0.4463416725498973,1.000018471401578,6.957167226975754e-05
-0.44612585515060343,-0.44612585515060343,1.0000336189950838,6.946671922894497e-05
-0.44597003785092965,-0.44597003785092965,0.9996942251037492,6.892313098720497e-05
-0.4456535433564568,-0.4456535433564568,1.0000092542924657,6.933587865946273e-05
-0.4454804210086877,-0.4454804210086877,1.0001029753412407,6.923068757711673e-05
-0.4453880069217121,-0.4453880069217121,0.999936417680783,6.943971791335475e-05
-0.44525642296794105,-0.44525642296794105,0.9998712844385708,6.925043905252914e-05
-0.44492333167509057,-0.44492333167509057,0.9999327537009611,6.939011112566004e-05
-0.44461006578058004,-0.44461006578058004,1.000070052583038,6.957070559089073e-05
-0.4444699844330898,-0.4444699844330898,1.00010505518833,6.913421162217679e-05
-0.4442114562902134,-0.4442114562902134,1.0000587612495915,6.912505901421973e-05
-0.4439422485884279,-0.4439422485884279,1.0000482820154162,6.988973484787188e-05
-0.4437533017320675,-0.4437533017320675,1.0000635274472556,7.025171187070107e-05
-0.44349298747474675,-0.44349298747474675,1.000042206750315,6.898923044282351e-05
-0.4432758209615713,-0.4432758209615713,0.9998970494981734,7.049662787741163e-05
-0.4430200135037012,-0.4430200135037012,1.000048222309251,6.877644072945355e-05
-0.4427179450307449,-0.4427179450307449,1.0001302787705602,7.012772005394839e-05
-0.44249605116347085,-0.44249605116347085,0.9998161989898424,6.893346494892235e-05
-0.4423573188505543,-0.4423573188505543,0.99994880872999,6.920588282932878e-05
-0.44219331974600207,-0.44219331974600207,1.0000659928319817,6.942271911784432e-05
-0.4419588893018954,-0.4419588893018954,0.9999276401697094,7.063278926891118e-05
-0.44170904359343693,-0.44170904359343693,1.000074802124527,6.99428638039218e-05
-0.4414985364513996,-0.4414985364513996,1.0000756199355447,6.970089112278486e-05
-0.44138236602084363,-0.44138236602084363,0.999914695059409,6.876417507143308e-05
-0.44099810945408535,-0.44099810945408535,0.999952336408524,6.931712314206092e-05
-0.44063821003728665,-0.44063821003728665,1.000189063034076,6.921259268262108e-05
-0.4402423764448031,-0.4402423764448031,0.9999531303890036,6.900678119692049e-05
-0.44005880546246773,-0.44005880546246773,0.9999413089957832,7.032917880953806e-05
-0.4397481586129288,-0.4397481586129288,1.0000869796208436,6.968865825230142e-05
-0.43950029097468357,-0.43950029097468357,0.999943826998161,6.91924657598621e-05
