time,time,flux,flux_err
-0.499952015477902,-0.499952015477902,1.0001084444082082,0.00016339549798197948
-0.49981542204538226,-0.49981542204538226,1.0001129446252797,0.0001680574343693898
-0.49965623252016184,-0.49965623252016184,1.000270064267422,0.00015255077815186922
-0.4995679099672998,-0.4995679099672998,1.0000988983301622,0.0001478016215412663
-0.49950187382055444,-0.49950187382055444,0.999910393940447,0.0001601951200851254
-0.4994163464420126,-0.4994163464420126,0.999929532296837,0.00016220162511151323
-0.4993007782300992,-0.4993007782300992,0.9998215043187084,0.00014299203774867142
-0.4992054454327445,-0.4992054454327445,0.9999299418401885,0.00014885520156439453
-0.4990418813278666,-0.4990418813278666,1.000191391802563,0.00016474516567662706
-0.49887657204235436,-0.49887657204235436,0.9997865240308933,0.00013887055055722845
-0.49872367110801863,-0.49872367110801863,0.9999486483655395,0.0001384435155023974
-0.49862895228288834,-0.49862895228288834,0.9996168331402309,0.000169378421784805
-0.4985322104104853,-0.4985322104104853,0.99988944472113,0.00013891446781873966
-0.4984431756201957,-0.4984431756201957,0.9999863597949143,0.00014815275524560442
-0.49827561316560603,-0.49827561316560603,1.0001120130586894,0.00014163833513634248
-0.49820293211232636,-0.49820293211232636,1.0000894511887428,0.00013548888930580702
-0.49809073599244585,-0.49809073599244585,1.0000246666686123,0.0001429489382442045
-0.49798317238673917,-0.49798317238673917,0.9998525507776627,0.0001472858101116603
-0.49773771502514136,-0.49773771502514136,1.0000420630399212,0.00016478401369277853
-0.49753925036930013,-0.49753925036930013,1.0001593644419842,0.00014311376967901732
-0.4974734761090076,-0.4974734761090076,0.9998915508192752,0.00014418540995509905
-0.4974141391867306,-0.4974141391867306,1.000181413379182,0.00014183381035990148
-0.49730936417981864,-0.49730936417981864,1.0001521533105286,0.0001483814675138103
-0.4972206544349319,-0.4972206544349319,1.0000785327556792,0.00017149436929420116
-0.49711811175366166,-0.49711811175366166,0.9997061593402421,0.00014026107623053437
-0.49702073345833925,-0.49702073345833925,0.9998504306347409,0.00015414668671125651
-0.49685364004108123,-0.49685364004108123,1.0001889288854042,0.00016305644434641504
-0.49667342369211837,-0.49667342369211837,1.0000694577774882,0.00013864209865829805
-0.49653335228940704,-0.49653335228940704,0.9998602078953158,0.00014132757031822161
-0.4964027047790296,-0.4964027047790296,0.9998852394977294,0.00015993244468717375
-0.49631708355300364,-0.49631708355300364,0.9998956601555852,0.00014531817378464278
-0.4962244124042627,-0.4962244124042627,0.9998501575954208,0.00014028516403332553
-0.49612520027149004,-0.49612520027149004,0.9999681913888916,0.00013809273465348033
-0.49600953061817565,-0.49600953061817565,0.9999832949589391,0.0001515268272690583
-0.495799430556508,-0.495799430556508,0.9998707763463912,0.0001376318695616707
-0.49573814282557577,-0.49573814282557577,0.9998422057847552,0.00016247872658100844
-0.49566232604774996,-0.49566232604774996,1.000148528636932,0.00016179248953269095
-0.49553395692491903,-0.49553395692491903,0.9999112091818129,0.00015261781302657412
-0.4953945492270577,-0.4953945492270577,1.0000135727375565,0.00015158038184015233
-0.4953167024446884,-0.4953167024446884,1.0000067791709817,0.00016290484740635788
-0.4951872513825947,-0.4951872513825947,1.0000632540486456,0.00013966153694238868
-0.4949985946281231,-0.4949985946281231,0.999881656280176,0.00014328235111903473
-0.4948431423319562,-0.4948431423319562,0.999987167255434,0.00016442448700736866
-0.4947192019113572,-0.4947192019113572,0.9999964982225876,0.0001612021007427002
-0.4945790973164549,-0.4945790973164549,1.0001021447628535,0.0001500238827374024
-0.49439707761921453,-0.49439707761921453,0.9997402617448655,0.00015150015447082835
-0.49427311590843603,-0.49427311590843603,1.0000799277377155,0.00014221639646581826
-0.4941787051517167,-0.4941787051517167,1.0000028100666034,0.00013657358319425422
-0.4940841595256643,-0.4940841595256643,1.0001237183373128,0.00013829692909375228
-0.4939520325337071,-0.4939520325337071,1.0002121090407408,0.0001587809091615387
-0.49375437177877757,-0.49375437177877757,1.0000024355269796,0.00013597187847909476
-0.49367111507453953,-0.49367111507453953,0.9999669664605284,0.0001413496128739396
-0.4936014060382149,-0.4936014060382149,0.999771833637398,0.00013714778331363743
-0.4935350496627507,-0.4935350496627507,1.0001257776159105,0.00015131923889837284
-0.4934636881836923,-0.4934636881836923,0.9998865881140431,0.00016350896558203662
-0.49336453782307216,-0.49336453782307216,0.9997241373596196,0.00014080371617263224
-0.4932098305886029,-0.4932098305886029,0.9999630198124503,0.00014740099870736413
-0.49312282759783554,-0.49312282759783554,1.0001364212746264,0.00013972219268573418
-0.4929751044270233,-0.4929751044270233,0.9998879083659054,0.00015307958197972147
-0.4927955987448513,-0.4927955987448513,1.0001332240635639,0.00014751809064527237
-0.49269063825704507,-0.49269063825704507,0.9999354939872042,0.00015243849306308918
-0.4925907185970573,-0.4925907185970573,1.0000127267388448,0.00016144663743548302
-0.49253662406335935,-0.49253662406335935,0.9998453504894862,0.00014432495478174036
-0.4924553418350115,-0.4924553418350115,1.0002053464672076,0.0001542106014115165
-0.4923633368118317,-0.4923633368118317,0.999852245903306,0.00014252015522383472
-0.49225496046856276,-0.49225496046856276,1.000105710035918,0.00015249703645264301
-0.49212066000254706,-0.49212066000254706,1.0000495404569212,0.00013807293972227595
-0.4919999664190982,-0.4919999664190982,0.9998310782729616,0.00013941758296089277
-0.4918949272359896,-0.4918949272359896,0.9997456341801151,0.00016918810283404696
-0.49181561870864243,-0.49181561870864243,0.9997963865851356,0.00014070022298131574
-0.4916984191746451,-0.4916984191746451,1.0001978152099542,0.00017506786617760284
-0.491567917681823,-0.491567917681823,0.9998010166896958,0.00016368675718045467
-0.4915173340094043,-0.4915173340094043,0.9998786056373141,0.00015123599618800166
-0.49136845724351585,-0.49136845724351585,0.9998614564555623,0.00014324840110869257
-0.4912544093007455,-0.4912544093007455,0.99965659265829,0.0001397364680757227
-0.4911168696227833,-0.4911168696227833,1.0001199297350205,0.0001495660266648951
-0.4910460795130348,-0.4910460795130348,1.0000358936777647,0.0001616530266358456
-0.49091316347330577,-0.49091316347330577,0.9999697488923637,0.0001598658566463452
-0.49074978827338783,-0.49074978827338783,1.0000114634674253,0.0001621045058404121
-0.49064092785993124,-0.49064092785993124,1.0000121237610213,0.00014901661105291502
-0.4904077756233164,-0.4904077756233164,1.000159005566239,0.0001427067608161092
-0.4902791876425908,-0.4902791876425908,0.9999104022470402,0.0001376966463314588
-0.4900766584149096,-0.4900766584149096,1.0000269571667086,0.00014749137407022952
-0.48987423363287236,-0.48987423363287236,0.9998147722715329,0.00014076500837463646
-0.489801067073131,-0.489801067073131,0.999829911183378,0.0001395247606168584
-0.4896364507403632,-0.4896364507403632,0.9995757906817806,0.00016828004119163797
-0.489469586595078,-0.489469586595078,0.9999031644856726,0.00016066714953260567
-0.48937423092502286,-0.48937423092502286,0.9999183562943375,0.00013918643649148414
-0.4892485892880359,-0.4892485892880359,0.9999454511437632,0.0001534586969018897
-0.4891407617811637,-0.4891407617811637,1.0000535465485108,0.000148719292143742
-0.4890389099055028,-0.4890389099055028,0.9999874016853226,0.0001400219817963801
-0.4889298364862043,-0.4889298364862043,0.9997667443685087,0.00015066964269562418
-0.48879121746431337,-0.48879121746431337,1.0000563685901724,0.00015310218651045938
-0.48872895153108403,-0.48872895153108403,0.9998432645079791,0.00015400905309493265
-0.48861933612133723,-0.48861933612133723,0.9998486651926694,0.00015070465656779472
-0.4885334445098124,-0.4885334445098124,1.0000188068642095,0.00014086344356294519
-0.48843510540464197,-0.48843510540464197,1.000152548752051,0.00014948735646245047
-0.4883116846467601,-0.4883116846467601,1.0000995771603518,0.00014409976636778216
-0.48821837485083963,-0.48821837485083963,0.999872274646927,0.00013886241897950987
-0.48809557277782006,-0.48809557277782006,1.0000888226507019,0.0001407945727245487
-0.48798636408682794,-0.48798636408682794,1.0000285987751838,0.00014718863323476917
-0.4878921865936718,-0.4878921865936718,0.9998876453822529,0.0001506018429492377
-0.48775303161819467,-0.48775303161819467,0.9998975489463643,0.00015278903163448539
-0.48766156493511514,-0.48766156493511514,1.0000389147752753,0.0001569163979288778
-0.4875142385433719,-0.4875142385433719,1.0000177201110234,0.00015349169668303994
-0.4874075735133374,-0.4874075735133374,1.000036281021763,0.00013884621619449048
-0.4873198771725583,-0.4873198771725583,0.9999749871174283,0.00015084394087678193
-0.4872383945461479,-0.4872383945461479,1.0000154382050366,0.00016908760927403495
-0.48712511799749336,-0.48712511799749336,1.0001361827198163,0.0001420177836277676
-0.4869786108698463,-0.4869786108698463,0.9999351175192925,0.00016151895889851819
-0.4868551724401186,-0.4868551724401186,0.9999966127924687,0.00016310180164083205
-0.4867285332344181,-0.4867285332344181,0.9999003525428731,0.00014632665004008622
-0.4865789344396035,-0.4865789344396035,1.0002208625045124,0.00013655927400871743
-0.486441255909449,-0.486441255909449,0.9998705614622262,0.0001577428478490421
-0.48634691368351923,-0.48634691368351923,1.000002411281399,0.0001404039741915052
-0.48629753347922816,-0.48629753347922816,1.000137308690693,0.00014694775234362273
-0.48608029644165074,-0.48608029644165074,1.0000211982240834,0.00016086361102173285
-0.48600862950770535,-0.48600862950770535,0.9999342423908416,0.00013813423090894313
-0.4858719162475609,-0.4858719162475609,0.999945663544843,0.00014273753504467703
-0.4857621018556529,-0.4857621018556529,1.000069538224883,0.0001498077486911844
-0.48550679493055215,-0.48550679493055215,0.9997640571642823,0.00015060781221416114
-0.4853888750105398,-0.4853888750105398,1.00019426594118,0.00015404804634264023
-0.4852799417094502,-0.4852799417094502,1.000117231838658,0.00014124081504101607
-0.4852293779418687,-0.4852293779418687,1.0000901550079118,0.00013910780060121233
-0.4851173986804497,-0.4851173986804497,0.9999773877446237,0.0001411254934287045
-0.48498243390276913,-0.48498243390276913,1.0001027354248737,0.00017085486252616362
-0.4848733633996744,-0.4848733633996744,0.9998599864182827,0.00014426239238763512
-0.4847851285041543,-0.4847851285041543,0.9998864904032884,0.00015075525042780954
-0.4846223622764228,-0.4846223622764228,0.999763374750714,0.0001484705238935859
-0.4843831283207692,-0.4843831283207692,1.0001245898710418,0.00013831254388952928
-0.4843009964664816,-0.4843009964664816,0.9999784720929703,0.0001433901803553337
-0.48418599090873615,-0.48418599090873615,1.0001161273558308,0.00015376548889472949
-0.48412521188874963,-0.48412521188874963,0.9999706272930917,0.00015015620863365175
-0.48405140831528115,-0.48405140831528115,0.9999019981916837,0.0001386047540898739
-0.4839856115628208,-0.4839856115628208,0.9999612516770968,0.00013801055439418704
-0.4838977615661861,-0.4838977615661861,0.9999968476922966,0.00013962011178973607
-0.4838228895670909,-0.4838228895670909,1.000162320400551,0.00013570317462861922
-0.48368397833692145,-0.48368397833692145,1.0001394084447273,0.0001567402323773538
-0.48354811867538955,-0.48354811867538955,0.9998729569288638,0.00013765753995732596
-0.48345754978363403,-0.48345754978363403,1.0001696705576741,0.00015982860180628234
-0.4834163699306373,-0.4834163699306373,0.9998483932683613,0.00016609026582864653
-0.48331908191248657,-0.48331908191248657,0.9999269875657827,0.0001522042154091877
-0.48320999368079354,-0.48320999368079354,0.9998226625706874,0.00015221568898457022
-0.4831237269609119,-0.4831237269609119,1.0000745253841794,0.0001530752515414324
-0.483032761013601,-0.483032761013601,0.9999548802669624,0.00015299470374869882
-0.4828753057867289,-0.4828753057867289,0.9999050035374275,0.00016337875079695008
-0.4827726435898512,-0.4827726435898512,1.0001711150653485,0.0001386777646411113
-0.48265621974205714,-0.48265621974205714,1.0000097192133628,0.00014131743237006351
-0.482576842643175,-0.482576842643175,1.0000675923042255,0.00017017002289112392
-0.4824198231595801,-0.4824198231595801,0.9998594149579272,0.0001509832944134864
-0.48231906533037544,-0.48231906533037544,1.0000585902163812,0.00014910615876746275
-0.482197210421873,-0.482197210421873,1.0000033279276472,0.00014794586179631253
-0.48210962331868357,-0.48210962331868357,0.9999367525024974,0.00014267722363932412
-0.4820579898339929,-0.4820579898339929,0.9997718177238859,0.00014140809333858736
-0.4819661114182964,-0.4819661114182964,1.000006509290376,0.00014097211792057134
-0.48184776560083264,-0.48184776560083264,0.9999671044163089,0.00013642356314771286
-0.4816528908479086,-0.4816528908479086,1.0005017529121836,0.00016121059304522798
-0.481479846721777,-0.481479846721777,0.9998880783879583,0.00013620563510060126
-0.48140170021579254,-0.48140170021579254,1.0000191158773992,0.00014038369530298365
-0.48133184983817046,-0.48133184983817046,1.0003954054633861,0.00014416432356596868
-0.4812592412075901,-0.4812592412075901,1.0000828329580624,0.00016172103647663102
-0.48118614777267793,-0.48118614777267793,0.9999284071917174,0.0001610194470600961
-0.4810924289857212,-0.4810924289857212,0.9998938301181699,0.00015214552597069816
-0.480959831882501,-0.480959831882501,1.000000693651829,0.0001409073751481855
-0.4808475650112086,-0.4808475650112086,1.000018005713027,0.00015180078273472472
-0.48068583618369304,-0.48068583618369304,1.0002163136917188,0.0001410150197477302
-0.4805753489214112,-0.4805753489214112,1.0002231738216545,0.0001448066119002695
-0.48042926754569637,-0.48042926754569637,0.999926314869579,0.0001398283928448259
-0.48034572931428554,-0.48034572931428554,1.0001119409392534,0.00016417017393109627
-0.4802419249979721,-0.4802419249979721,1.0001295112849768,0.00014055800183571655
-0.48012981160936763,-0.48012981160936763,1.000293418899398,0.00014207534831056745
-0.4800249822328624,-0.4800249822328624,0.9998141637753315,0.00013863311960832247
-0.47994337751952115,-0.47994337751952115,0.9999240070938551,0.0001497978218548699
-0.47986022539407713,-0.47986022539407713,0.9999679099063723,0.00014209118264322802
-0.4797007572662551,-0.4797007572662551,0.9999891059635748,0.00013496077168339527
-0.4796555924855056,-0.4796555924855056,0.999909337806179,0.00016214622838989318
-0.47958797702667655,-0.47958797702667655,0.9998618458811205,0.00017040627563049524
-0.4794258464440645,-0.4794258464440645,1.0001604176057701,0.00014412488235783673
-0.4793354736051697,-0.4793354736051697,1.0001893260128303,0.00016125363359190814
-0.4792670205635659,-0.4792670205635659,0.9999509328017254,0.00016113960458284698
-0.4791794094562647,-0.4791794094562647,0.9999235132504584,0.00014488525866027064
-0.47906696418503997,-0.47906696418503997,0.9999865160646545,0.0001421597301512756
-0.4789223174841027,-0.4789223174841027,0.9999191042002984,0.0001412442025991422
-0.4788076707001892,-0.4788076707001892,1.0000951259668487,0.00015882699771631583
-0.4787255524963257,-0.4787255524963257,0.9999147771351943,0.0001641783582969069
-0.4785750150855165,-0.4785750150855165,0.9997799711289119,0.00015351549891285998
-0.47845106324675724,-0.47845106324675724,1.0000230457135808,0.0001594940495040855
-0.4782842618333234,-0.4782842618333234,0.9999827083077953,0.00016965999160944675
-0.4781639854591049,-0.4781639854591049,0.9998974871273585,0.00013950480802062983
-0.4780624659942987,-0.4780624659942987,1.0001110714380028,0.00013751291262204966
-0.47795800285530277,-0.47795800285530277,1.0000234324031625,0.000136127440048561
-0.4777620044536889,-0.4777620044536889,1.0000037454630264,0.00014623428682287572
-0.4775916297789081,-0.4775916297789081,0.9997917867648594,0.0001413122130655335
-0.4774691108446859,-0.4774691108446859,1.0001418526053205,0.00014266023248065692
-0.47735697540192634,-0.47735697540192634,1.0000414815102188,0.0001400944624063675
-0.47723316940537186,-0.47723316940537186,1.0000320064106982,0.00014220519133011862
-0.47711899077767156,-0.47711899077767156,1.000162702685484,0.00014259982156951902
-0.47702313217450865,-0.47702313217450865,0.9998936579747829,0.0001526285451467487
-0.47691339959346807,-0.47691339959346807,0.9998649353085988,0.00015242231746873824
-0.4767848500989203,-0.4767848500989203,0.999579148765477,0.00014517327847867056
-0.4766710111471184,-0.4766710111471184,0.9999149287566358,0.000141543531125487
-0.47658175724354807,-0.47658175724354807,1.000003368855501,0.0001514846278199636
-0.47651277202385245,-0.47651277202385245,0.9999796766480593,0.00016107581982306257
-0.4764401419844944,-0.4764401419844944,0.999914266731602,0.0001508400157683082
-0.47634464994844167,-0.47634464994844167,0.9999334607333983,0.0001436875274103542
-0.4762205303697556,-0.4762205303697556,0.9999406611361541,0.00013953856292429968
-0.47614283043003525,-0.47614283043003525,0.9999969158821864,0.00015327724193728501
-0.4760438953082485,-0.4760438953082485,0.9999143115915052,0.00014207935766600638
-0.47589735165602176,-0.47589735165602176,1.0000465755016248,0.0001415712772463709
-0.47579475543680017,-0.47579475543680017,1.0000052212331532,0.0001602408154023712
-0.47570946363775873,-0.47570946363775873,1.0000457668159175,0.0001742613925886289
-0.4756576301930181,-0.4756576301930181,0.9997699892837602,0.00014925504287350422
-0.4755335515656043,-0.4755335515656043,1.000178961207352,0.00015511072667828734
-0.4754215885783196,-0.4754215885783196,1.0001227790597629,0.00016249846571707037
-0.4751873650595371,-0.4751873650595371,1.0000218569863752,0.0001390850431637039
-0.4751156304359029,-0.4751156304359029,1.000140157834037,0.00013852060430876188
-0.4750058838493715,-0.4750058838493715,1.0001603858967285,0.00016780952406802383
-0.4749515962357691,-0.4749515962357691,1.0000552171383852,0.00015444347176319094
-0.47482083800496183,-0.47482083800496183,0.9999256029865208,0.00014826421081603753
-0.4746249411480676,-0.4746249411480676,0.9999812149561731,0.0001741365225185134
-0.47445961199555314,-0.47445961199555314,1.000034498600228,0.00014066547144050726
-0.4743252452564775,-0.4743252452564775,1.00004560291474,0.00013517485611522234
-0.47413780757051427,-0.47413780757051427,0.9999625452806059,0.00014786040833718447
-0.47406580014067,-0.47406580014067,1.000086368320297,0.00016218958845480276
-0.47389644214490545,-0.47389644214490545,1.0000709342821748,0.000133816727400507
-0.4737890778102155,-0.4737890778102155,1.0001222386649753,0.00014022807369706413
-0.47364678530575477,-0.47364678530575477,0.9999282838419659,0.000140736974237222
-0.47350518311286577,-0.47350518311286577,1.0000930838181812,0.00015906601288138874
-0.4733307059723302,-0.4733307059723302,0.999975241097453,0.0001374886991830281
-0.47324409851935345,-0.47324409851935345,1.0001859387962475,0.00015076804711070376
-0.4731058107528952,-0.4731058107528952,1.0000648614243706,0.00015360200162964406
-0.4729521523397125,-0.4729521523397125,0.9999780053011538,0.00014034858994482074
-0.4728351997444406,-0.4728351997444406,0.9996473343870154,0.00015102538855200784
-0.472746855954756,-0.472746855954756,0.9997679881501245,0.00015116695659646921
-0.47265585031127555,-0.47265585031127555,1.000085103085628,0.0001560210650842859
-0.47255698481967556,-0.47255698481967556,0.9999490636645012,0.00015084990683538233
-0.4724914032522065,-0.4724914032522065,0.9999450896446642,0.0001383424556507313
-0.472343282080692,-0.472343282080692,1.000041176458172,0.0001496499399612695
-0.47219200405161244,-0.47219200405161244,1.0000568907310547,0.0001389040781917157
-0.47208546210385977,-0.47208546210385977,1.0001472909791373,0.0001469939556547726
-0.47197743112119495,-0.47197743112119495,0.9998431064535505,0.00014236416787662958
-0.47189285119166013,-0.47189285119166013,0.9999691537087786,0.00015864320222880047
