time,time,flux,flux_err
-0.4999073331218824,-0.4999073331218824,1.0001585286200265,0.0002264747188715303
-0.4997364816037589,-0.4997364816037589,1.0000944307471573,0.0002127347446381895
-0.4996562748856377,-0.4996562748856377,1.0001260453813425,0.00019857147529664005
-0.4995447138338932,-0.4995447138338932,1.0000237279879005,0.00020146309081973593
-0.49941295959433774,-0.49941295959433774,1.000198035278617,0.00021578616286066051
-0.4993346146969998,-0.4993346146969998,1.0001401157877496,0.0002127552740293039
-0.49928071863323564,-0.49928071863323564,1.0001626748307069,0.00021112165133507457
-0.49920756506253383,-0.49920756506253383,0.9994295705003367,0.00019566913331150936
-0.4990591412773938,-0.4990591412773938,0.9997895943283591,0.00020215920374021913
-0.49897387808741767,-0.49897387808741767,1.000273319152855,0.00021115234282113388
-0.49883228224498455,-0.49883228224498455,0.9999445794111832,0.0001952919792491402
-0.49870487331645563,-0.49870487331645563,1.0001371469902651,0.00021640643029973032
-0.49862722744001076,-0.49862722744001076,0.9998405778569095,0.0002192068810757577
-0.49855401203531075,-0.49855401203531075,0.9999475771874922,0.00020028314731133416
-0.4984687875796226,-0.4984687875796226,1.0001689791480703,0.00021087566029716242
-0.49828762485267364,-0.49828762485267364,0.9999390468559124,0.0002033891660763295
-0.49816741454415026,-0.49816741454415026,1.0004033733324018,0.0002040725780334348
-0.498032294899167,-0.498032294899167,1.0000250024443005,0.00020518844868477616
-0.4979336903408694,-0.4979336903408694,1.0001355275056703,0.00021718775047658355
-0.49782903427549174,-0.49782903427549174,1.0000151733521678,0.00021080877400913152
-0.49773471552543924,-0.49773471552543924,1.000039111380781,0.00021130006316081237
-0.4975816325117194,-0.4975816325117194,1.0001374760104307,0.0002040174326444366
-0.49743538053953673,-0.49743538053953673,0.9999377634778241,0.00020809942482930593
-0.4973448153708887,-0.4973448153708887,1.000036298268783,0.00019852249580310172
-0.49723230443996724,-0.49723230443996724,1.00020355603755,0.00021777968784319115
-0.4971170455406536,-0.4971170455406536,0.9999970856965483,0.00020456744102406802
-0.4970244322466897,-0.4970244322466897,0.999953319398535,0.0002185088145106885
-0.49695373158174333,-0.49695373158174333,0.9998592199791416,0.000206676333048011
-0.4968244731302548,-0.4968244731302548,1.0002057478527004,0.00019783026334167664
-0.49662187958165305,-0.49662187958165305,1.0001717708119024,0.0002156801266065979
-0.4964828124248015,-0.4964828124248015,0.9996065180236698,0.00021243221194229932
-0.4963668029195105,-0.4963668029195105,1.000078861043005,0.00021007596333172206
-0.49624833705165655,-0.49624833705165655,1.0000914409754589,0.0002098960426907825
-0.49612930053190213,-0.49612930053190213,0.9998468098840856,0.00020157698810854239
-0.4959997441204905,-0.4959997441204905,1.000090522723871,0.00020252680332805492
-0.49585885318447254,-0.49585885318447254,0.9998409321649071,0.00021105702435531598
-0.4957353329678881,-0.4957353329678881,0.9999953442968303,0.0002122611423093643
-0.4955906615228741,-0.4955906615228741,0.9999436989621824,0.00020732636110175687
-0.4954196872502507,-0.4954196872502507,0.9999871130893446,0.00020840202924731453
-0.49525195351234286,-0.49525195351234286,0.9999467812642221,0.00021112734185138406
-0.4951224952521443,-0.4951224952521443,1.0001997870883972,0.00021380004644682023
-0.4950157379877055,-0.4950157379877055,1.000204056103452,0.00021603205408023352
-0.4949056802484847,-0.4949056802484847,1.0001637381767439,0.00021130833378142484
-0.4947620839338924,-0.4947620839338924,0.9999509073128966,0.0002090627752882257
-0.4946945156189031,-0.4946945156189031,0.9998612481339668,0.0001912994936634782
-0.49457649373216556,-0.49457649373216556,0.9998712899049605,0.00021096021441624306
-0.4944914510393573,-0.4944914510393573,1.0000010414345968,0.0001980530197057201
-0.4944036715867696,-0.4944036715867696,1.0000511850856664,0.00021612079375077985
-0.49429930067708483,-0.49429930067708483,1.0001608672977755,0.0002245400787110544
-0.49413575394064535,-0.49413575394064535,0.999751473097788,0.00021625701388154682
-0.4940016330321669,-0.4940016330321669,0.9999324062775358,0.0002105905423212642
-0.4939128809419344,-0.4939128809419344,0.9999951167680567,0.0002085804869021854
-0.49380151708610354,-0.49380151708610354,0.9998122932637401,0.00020043031126006856
-0.4937149261371815,-0.4937149261371815,1.0000995853304826,0.0002138765293121392
-0.4935880126489792,-0.4935880126489792,1.000031388671313,0.00021656683341198367
-0.49346338097384435,-0.49346338097384435,0.9998241497589717,0.00022218386572509988
-0.49329732707701623,-0.49329732707701623,0.9996595196116633,0.0002037026343652014
-0.49320762429924797,-0.49320762429924797,0.9997916141748847,0.00020882927440061782
-0.4930964044528082,-0.4930964044528082,1.0000013283624765,0.00020387995474675514
-0.4929959702392807,-0.4929959702392807,0.9999565923055652,0.00021644467728394674
-0.4927957081265049,-0.4927957081265049,0.9998588871173839,0.00022543882783214382
-0.49269134884089,-0.49269134884089,1.0002324500665003,0.00020532386503469943
-0.49251839038333856,-0.49251839038333856,0.9999233753179034,0.00020721251272175695
-0.49245881486567666,-0.49245881486567666,1.0000487522943906,0.00021289850792485066
-0.49237964697458664,-0.49237964697458664,0.9996885781916808,0.0002050986499355947
-0.49225525373840356,-0.49225525373840356,1.000009199567462,0.0002094603860689204
-0.49209948776478996,-0.49209948776478996,0.9998273341350418,0.0002084106216581525
-0.49199143073128654,-0.49199143073128654,0.9997818447380661,0.00021132126986019551
-0.4918659319620929,-0.4918659319620929,0.9997826449695826,0.00020764597819179016
-0.49175506221072285,-0.49175506221072285,1.000069994922989,0.0002061486078519224
-0.49170710519028943,-0.49170710519028943,0.9999667154165136,0.00021062869873792795
-0.49158022860356143,-0.49158022860356143,0.9995916609202556,0.0002189482202126157
-0.4914522169456177,-0.4914522169456177,0.9996505805537508,0.0002049071459740075
-0.49124336529202994,-0.49124336529202994,1.0001139065240934,0.0002079411468609516
-0.4911639377154643,-0.4911639377154643,1.00001276591416,0.0002161404110716155
-0.49109443154738985,-0.49109443154738985,1.0000469419968554,0.0001951899613592443
-0.49097836075452506,-0.49097836075452506,0.999893278166447,0.0002052256402560933
-0.49086784235187225,-0.49086784235187225,0.9999943216269143,0.00021691516851098607
-0.4907459142094012,-0.4907459142094012,1.0000341751736137,0.00020676158569483106
-0.4905082698373008,-0.4905082698373008,0.9997462084220544,0.00021151998601374062
-0.4904262053692946,-0.4904262053692946,0.9997137273552138,0.00020133302967471493
-0.4903372072476486,-0.4903372072476486,1.0002486809739295,0.0002036586415474678
-0.4901971005288942,-0.4901971005288942,0.9998629390473287,0.00020668756748676927
-0.49012156451426564,-0.49012156451426564,1.0006229747726603,0.00020780452920895126
-0.489958141574607,-0.489958141574607,1.0001520501544698,0.00019902469376068465
-0.48973214219586225,-0.48973214219586225,0.9998708632438836,0.00020201050436668695
-0.48962074159790064,-0.48962074159790064,0.9999178302319127,0.00020615100093208642
-0.489510834797693,-0.489510834797693,0.9999487447225366,0.00020502852078864284
-0.48941900149802675,-0.48941900149802675,0.9997966069220039,0.00020825563566579378
-0.4893091909136274,-0.4893091909136274,0.9999372132626065,0.00020151626346731765
-0.4890210872479656,-0.4890210872479656,1.0000057951313166,0.0002058608014576616
-0.48889282753007135,-0.48889282753007135,0.9999067906599176,0.00019535277599371233
-0.4888099751180562,-0.4888099751180562,1.000152587024937,0.00021056039992892167
-0.4887310462421738,-0.4887310462421738,0.9996865329141185,0.00019493366216738632
-0.48863384875803606,-0.48863384875803606,0.9998455013549238,0.00020511008844913644
-0.48854942320031114,-0.48854942320031114,0.999927732743646,0.00019724970379788844
-0.48839135935340894,-0.48839135935340894,1.0002564644081784,0.0001988247268454078
-0.4882602708217746,-0.4882602708217746,1.0000061513393304,0.00020274426486539162
-0.48812268149486043,-0.48812268149486043,1.000407461236708,0.00020959483933040996
-0.4880660274364345,-0.4880660274364345,1.0002552905356605,0.00020454753164855883
-0.4879809028105228,-0.4879809028105228,1.0001998778739154,0.00019338276240060275
-0.4878688486518513,-0.4878688486518513,0.9999475258868238,0.00021269349254161477
-0.4877432031593344,-0.4877432031593344,0.9998944762979018,0.0002017486351788218
-0.4876073144507245,-0.4876073144507245,1.0002416520510535,0.00021010953649538318
-0.4875127007013361,-0.4875127007013361,1.0000879622722199,0.00020415036477150868
-0.4874356038177211,-0.4874356038177211,0.9999169767212843,0.00019957983806059878
-0.48731721525182364,-0.48731721525182364,0.9998056479748405,0.00020275295770556305
-0.48720816409404505,-0.48720816409404505,1.0000219281121208,0.00019586747643491435
-0.48710058868746275,-0.48710058868746275,1.0004149828026634,0.00021248614248112833
-0.4869454912062793,-0.4869454912062793,1.00005278200469,0.00021026169530192706
-0.48684853101513,-0.48684853101513,1.000086387139595,0.0002050389444437755
-0.48679497173943675,-0.48679497173943675,1.0001035843392296,0.00020402984617704797
-0.48662994898477335,-0.48662994898477335,0.9999601057426057,0.00020890598894976535
-0.48648024614012686,-0.48648024614012686,0.9997572577372008,0.00020419344831881559
-0.4863513438307564,-0.4863513438307564,0.9999004676716993,0.0002146808268001624
-0.4862089597139857,-0.4862089597139857,0.9998591468474756,0.00019937394937821428
-0.4861440254164336,-0.4861440254164336,1.000046300265927,0.0002038871312649384
-0.4860653111274587,-0.4860653111274587,0.9998953630474314,0.0002106386903061637
-0.48591687074440415,-0.48591687074440415,1.0001761137880665,0.00020363012856947652
-0.4858020755076723,-0.4858020755076723,0.9999440094240335,0.0001973491897257576
-0.4856789042140008,-0.4856789042140008,1.000056352209335,0.00020269436965842917
-0.48555962085956705,-0.48555962085956705,0.9997353942365083,0.0002086123253744411
-0.4854990961466683,-0.4854990961466683,1.000294046649965,0.00020220507529292614
-0.48537869254432736,-0.48537869254432736,1.0000133908354318,0.00020837544490173474
-0.4852765010218718,-0.4852765010218718,0.9998948959164204,0.00020247649781547826
-0.4851552488733432,-0.4851552488733432,0.9999725943405734,0.0002142495724775052
-0.48505585724851696,-0.48505585724851696,1.0000413886761703,0.00020225925078241994
-0.4849536365392851,-0.4849536365392851,1.0002732567040258,0.00020099473292698806
-0.48486121031528456,-0.48486121031528456,0.9998251830767207,0.00019475211817623377
-0.4847487516126421,-0.4847487516126421,0.9997842874528814,0.0002043994191079438
-0.48470576712861657,-0.48470576712861657,1.0001091255086794,0.00019991974915366787
-0.4845765370533627,-0.4845765370533627,0.9998337259854969,0.00020258659530987994
-0.4844559882840258,-0.4844559882840258,1.0002620419312032,0.00021162468430826938
-0.4843568441167008,-0.4843568441167008,1.000129184813353,0.0002048652962621113
-0.4842422869434813,-0.4842422869434813,1.0001514396637765,0.0001986574444178617
-0.4841603644221323,-0.4841603644221323,1.00026667247933,0.0002075280969473058
-0.48405983814955106,-0.48405983814955106,1.0000844226613208,0.00019092797814436677
-0.4840050568411243,-0.4840050568411243,1.0001911120623652,0.0002072341896500146
-0.48386826053902043,-0.48386826053902043,0.9998205522224677,0.0001952382418500978
-0.48371480598434574,-0.48371480598434574,0.9997013658007583,0.00021133693115164246
-0.48360652213159483,-0.48360652213159483,1.0001286519976413,0.00020538145725346757
-0.48350738024309975,-0.48350738024309975,0.9997175990336071,0.00020645281368945298
-0.48342592878907453,-0.48342592878907453,1.0002880774972596,0.00019818295007065903
-0.48334440945254753,-0.48334440945254753,1.0001471393526427,0.00019987428674371948
-0.483279031622078,-0.483279031622078,0.9998558883173961,0.0002043695279571885
-0.48322835509898143,-0.48322835509898143,0.9998587608744828,0.00019602794832767684
-0.4830057495804795,-0.4830057495804795,1.000059788731835,0.00020727163667965477
-0.4829062145894568,-0.4829062145894568,0.9999603158548089,0.00020532696501922025
-0.48279002290873907,-0.48279002290873907,1.0001173017238085,0.0002073676567190458
-0.4827194808778586,-0.4827194808778586,1.0000990454455079,0.0001984293134697839
-0.4826872994468431,-0.4826872994468431,0.9998640593719872,0.00020435846608408072
-0.4826250670688751,-0.4826250670688751,1.0001382076290442,0.00019324913040481538
-0.4825276542986103,-0.4825276542986103,1.0001594908291622,0.00019994769384377577
-0.48246924790364576,-0.48246924790364576,1.0001797227106841,0.000200580026981544
-0.48236065605669864,-0.48236065605669864,0.9998794774925578,0.00020175058753616018
-0.4822390352936054,-0.4822390352936054,0.9997608000965492,0.00020806062299163385
-0.48209964431953267,-0.48209964431953267,0.9998677572306212,0.00020589465070266233
-0.48201690836576744,-0.48201690836576744,1.0000989391279151,0.00019183325248282174
-0.4819867473910563,-0.4819867473910563,1.0002524055013857,0.0002050566103286477
-0.4818926881205698,-0.4818926881205698,0.9999154206134883,0.00019588201729238758
-0.4818452033519861,-0.4818452033519861,1.000167325011049,0.00020898054096943
-0.4817517917472287,-0.4817517917472287,1.000223024361544,0.0002058481074307943
-0.4816312272087089,-0.4816312272087089,0.9999204663788952,0.00020715239851244385
-0.4815119448903715,-0.4815119448903715,0.9998991495725083,0.00020414140868536536
-0.48136369650310373,-0.48136369650310373,1.0000901574316257,0.00019262113298531918
-0.4812918378789618,-0.4812918378789618,1.0004002072220721,0.00020030330030220352
-0.4812067373219179,-0.4812067373219179,0.9999330486522074,0.00020872873231068983
-0.4811059840802045,-0.4811059840802045,1.0000415221313774,0.00020190336422223602
-0.48102386172613476,-0.48102386172613476,0.999710346921305,0.0001995523948221278
-0.4809226858415059,-0.4809226858415059,0.9998502003885996,0.0002028035566933785
-0.4808246738699381,-0.4808246738699381,0.9996699228544706,0.00019906353688152863
-0.480624310803978,-0.480624310803978,0.9997981332299872,0.00019498666948026416
-0.4805147358638351,-0.4805147358638351,1.0000581968489501,0.000201366209647456
-0.4804482749546878,-0.4804482749546878,1.0000276688250442,0.00020532811686373165
-0.48034668529580815,-0.48034668529580815,0.999860835984301,0.0002025418921156496
-0.48025348299051984,-0.48025348299051984,1.0003643340659008,0.00020400407024929795
-0.4800846129030106,-0.4800846129030106,0.9998372768904483,0.00020493141892585139
-0.4798486386243894,-0.4798486386243894,1.0000850498360954,0.00019994570673425327
-0.4797721281152917,-0.4797721281152917,0.9999514783829255,0.00023774975258391827
-0.4796466109022731,-0.4796466109022731,0.9996914223227347,0.00021260827026662864
-0.47949772949141334,-0.47949772949141334,0.9998918860540812,0.00021047031704965157
-0.479389299669856,-0.479389299669856,1.0001485195260755,0.00021203954237820167
-0.47932136789604557,-0.47932136789604557,1.0001527961890946,0.00020165970207742877
-0.479206224236259,-0.479206224236259,0.9997688543720397,0.0002021869579194068
-0.4790593195895781,-0.4790593195895781,1.0004812582272462,0.0001951739292336333
-0.47898684650936046,-0.47898684650936046,1.000221692572262,0.00020813865443963111
-0.4787996384766302,-0.4787996384766302,0.9999674778887044,0.00020931703970656078
-0.47870813020708736,-0.47870813020708736,1.0002054131501534,0.00020547190806614762
-0.47852285048065824,-0.47852285048065824,0.9998290661782431,0.00020483098387936077
-0.478361842866434,-0.478361842866434,1.0001588349114676,0.00019638032940919368
-0.4782373621863371,-0.4782373621863371,0.9998861513610077,0.000209138530692127
-0.4781512137516984,-0.4781512137516984,1.000043929627434,0.00019876775917302198
-0.47797791556440644,-0.47797791556440644,0.999984688878422,0.00022040416608993637
-0.4777682478663337,-0.4777682478663337,1.0000119194229686,0.00020751694199007154
-0.4776292955939425,-0.4776292955939425,0.9996778345879056,0.0002003703962420482
-0.47745353532372975,-0.47745353532372975,0.9998995232280781,0.00020990764929981276
-0.47737630962947153,-0.47737630962947153,0.9998359269396863,0.0002058230617358805
-0.4770994902261009,-0.4770994902261009,0.9999549972945425,0.00020693757919141128
-0.4769994002846943,-0.4769994002846943,0.9998564888120655,0.0001997007363998487
-0.47685776347207137,-0.47685776347207137,0.9998411310058277,0.00018713050455403503
-0.4767341576021863,-0.4767341576021863,1.000278840148852,0.00020548826929941104
-0.4766746901063016,-0.4766746901063016,0.999715528028759,0.00020920851649081177
-0.47649552474176743,-0.47649552474176743,1.0003454417551574,0.0001957944768640365
-0.4763246458984213,-0.4763246458984213,0.9996141456045132,0.00022179461748816958
-0.476247328613681,-0.476247328613681,1.0000403736149077,0.0001955643301978374
-0.4761474320774141,-0.4761474320774141,1.000082198420245,0.00018924968711566027
-0.4759869576744677,-0.4759869576744677,0.9999901316486314,0.0002156792369392944
-0.4758263657669886,-0.4758263657669886,1.0001777973559647,0.0002021273076957765
-0.47563271271792473,-0.47563271271792473,0.9998355161402538,0.00019910765761192985
-0.47555257577623705,-0.47555257577623705,1.0001344286235292,0.0002245184151265938
-0.47540302317866007,-0.47540302317866007,0.9999177971198969,0.00020693498329688812
-0.4751809194909583,-0.4751809194909583,1.0002750699031397,0.00022073544748353225
-0.4750889769551577,-0.4750889769551577,1.0001100810670205,0.00020671406705328386
-0.4749459709346411,-0.4749459709346411,0.9998612936245529,0.00019367488587132656
-0.4748549829630065,-0.4748549829630065,0.9998771546485763,0.00020529166827183584
-0.47471828526395254,-0.47471828526395254,1.0000806289612088,0.0002162697646321363
-0.4745432671181334,-0.4745432671181334,1.0003851678969227,0.00021189070008397468
-0.47440658730338325,-0.47440658730338325,0.9998674271003711,0.000211035536403756
-0.47429944180476014,-0.47429944180476014,0.9998932843291183,0.0001995439277270463
-0.4741942308071884,-0.4741942308071884,1.000049342652287,0.00020188810290466515
-0.4740511862270068,-0.4740511862270068,0.9997893787274004,0.00021482244550769954
-0.47389834324130786,-0.47389834324130786,1.000447333186219,0.0001946853426538101
-0.473763710368803,-0.473763710368803,1.0000026410930238,0.00019764846597514186
-0.4736114339961205,-0.4736114339961205,0.9998866855427722,0.00021806584464555194
-0.4735279141816136,-0.4735279141816136,1.0005020893116683,0.00020108360630379858
-0.4734181313906447,-0.4734181313906447,1.0000537622618708,0.00021584394588008304
-0.4732659404355218,-0.4732659404355218,0.9998462137316795,0.00020297374954278972
-0.47314678193142756,-0.47314678193142756,0.9999974686811124,0.00020129314476133097
-0.47304342361167073,-0.47304342361167073,1.000187355948842,0.00020256082958263025
-0.47291019818876523,-0.47291019818876523,1.0001546443198426,0.00022056910077054558
-0.47278971455452845,-0.47278971455452845,0.9997506765366582,0.0002063228554327786
-0.4727083060060977,-0.4727083060060977,0.9998635443199164,0.00020629382067765444
-0.4725964523924631,-0.4725964523924631,1.0002576734306914,0.00020252497956056427
-0.4724771440123732,-0.4724771440123732,1.0003428109346195,0.00020777255276901635
-0.4724126264278311,-0.4724126264278311,0.9998753133438167,0.00019735837889730146
-0.47224127406734623,-0.47224127406734623,0.999636905958478,0.00020826901162471293
-0.47214488047902703,-0.47214488047902703,1.0002756287981682,0.00021766625471346377
-0.4720888611009286,-0.4720888611009286,0.9998187152348506,0.00020585309639253616
-0.47201035072503145,-0.47201035072503145,0.9999567173397313,0.0002046275777143266
-0.47184177009621636,-0.47184177009621636,0.9999300588992772,0.0002139507201520862
-0.47168276431038975,-0.47168276431038975,1.000167579632984,0.00020186075853160943
-0.4715316427536891,-0.4715316427536891,0.9999773676590141,0.000203622312709511
-0.4714584486158856,-0.4714584486158856,1.0002485151268128,0.00021913912561460227
