time,time,flux,flux_err
-0.4999223336405218,-0.4999223336405218,0.9999578886172885,0.00019495564764297405
-0.4997700780058949,-0.4997700780058949,1.0000784191669776,0.00021852843762576376
-0.4995915975105163,-0.4995915975105163,0.9997323415384618,0.00019628077570620818
-0.49945269200300874,-0.49945269200300874,0.9999486840298967,0.0002121595547135691
-0.49936242593685165,-0.49936242593685165,0.9996477486195523,0.0001814524992075064
-0.4992572036506317,-0.4992572036506317,1.0001251979420727,0.00017195400027445338
-0.4991107867062965,-0.4991107867062965,0.9999066220552992,0.0001965425084732022
-0.4990196218714118,-0.4990196218714118,0.9998835906570284,0.00019558729871910164
-0.4988912354179774,-0.4988912354179774,0.9999127668329297,0.00020942693820818337
-0.49879637510093744,-0.49879637510093744,0.9999826811692898,0.0001814151579266095
-0.4987361396066262,-0.4987361396066262,1.00001535103262,0.00019377976771478743
-0.4986440719665552,-0.4986440719665552,0.999965627646354,0.00019571818963782297
-0.498544015832158,-0.498544015832158,0.9998311948133074,0.0002973624131122975
-0.49843598565712455,-0.49843598565712455,1.0000339176572053,0.00017444168857200067
-0.4982444794281037,-0.4982444794281037,1.000132797955278,0.00020282418901370534
-0.49814156172651564,-0.49814156172651564,0.9999114146675104,0.00019134671676576876
-0.4979648045315116,-0.4979648045315116,0.9998701409283507,0.0001796275630534541
-0.49784565921218016,-0.49784565921218016,1.0003166852264562,0.00018139242411839123
-0.4977460490357771,-0.4977460490357771,1.0000047328234796,0.00018940535887870274
-0.49756292934398516,-0.49756292934398516,1.0000862072460668,0.00019541880870665708
-0.4973710789141478,-0.4973710789141478,1.0000961739759433,0.00019528653085074907
-0.497207948754658,-0.497207948754658,1.0000809898644063,0.00019404298838524895
-0.49703172586159783,-0.49703172586159783,0.9998444897766745,0.00018079162098956042
-0.4969322901662963,-0.4969322901662963,1.000133771420947,0.00019310838694184114
-0.4968735410941008,-0.4968735410941008,1.0001933736001214,0.00018179204618840202
-0.49680667089269265,-0.49680667089269265,1.0002054416276907,0.00019771381502278824
-0.49676023293941396,-0.49676023293941396,1.0000200671460715,0.0001790052726817748
-0.49669104691492977,-0.49669104691492977,0.999691999898247,0.00019595337903410628
-0.4965020302392077,-0.4965020302392077,0.9999336670913264,0.00018084455887735297
-0.4963726019122987,-0.4963726019122987,1.000266419300429,0.00017939617950684262
-0.49631427811109463,-0.49631427811109463,0.9997437946001604,0.00021198573522323896
-0.49622484015126245,-0.49622484015126245,1.0001808028574206,0.00018929884075796435
-0.4961330388119677,-0.4961330388119677,1.0000621343021838,0.0001761735601137026
-0.4960467902899836,-0.4960467902899836,1.0000639225734458,0.00018490323377823715
-0.4958845619090425,-0.4958845619090425,1.0001758799943372,0.00017769210077812076
-0.4957061373752367,-0.4957061373752367,0.9998272102498186,0.00019125288028213564
-0.49557728955478525,-0.49557728955478525,1.0001276580579197,0.00019978622754641246
-0.4954742878944671,-0.4954742878944671,1.0000965434606466,0.00018018238462538517
-0.4953408989793388,-0.4953408989793388,0.9999827875674097,0.0001970515675296828
-0.4952455445447413,-0.4952455445447413,1.000128258862604,0.00022913533738536294
-0.49515347050546554,-0.49515347050546554,1.0001905461925833,0.00018376405274612542
-0.4950364997741417,-0.4950364997741417,0.9998392732538008,0.00019743443298939233
-0.4949767554739083,-0.4949767554739083,1.0000049487930471,0.00021513005317409846
-0.49487764899167813,-0.49487764899167813,0.999742276417526,0.00022559974336447443
-0.4947374254086753,-0.4947374254086753,1.0002921862347978,0.00018088380649165082
-0.49462188259931283,-0.49462188259931283,1.000118336914229,0.00019665594038593975
-0.4944636264350265,-0.4944636264350265,1.0001389446665045,0.00019935523840166908
-0.4943231099350669,-0.4943231099350669,0.9998766523161502,0.00017771379421447917
-0.4941802190551243,-0.4941802190551243,1.0000217790300505,0.00022122283549121593
-0.49406843298784225,-0.49406843298784225,1.0001119880854787,0.00017784473637776822
-0.4939849685659283,-0.4939849685659283,1.000310662490588,0.00017210901411237594
-0.49385080024294437,-0.49385080024294437,0.9996963979314252,0.00018257885294743553
-0.4937790684780339,-0.4937790684780339,1.0001418060174962,0.00019374594900203152
-0.4936762381810695,-0.4936762381810695,0.9999187028010283,0.00018987251980547752
-0.49358616692989016,-0.49358616692989016,0.9998010089252501,0.00019818688670289556
-0.493507534442324,-0.493507534442324,1.000196338293304,0.00019556330272848355
-0.4934255790380121,-0.4934255790380121,0.9997056890968128,0.0001804086520367356
-0.4933609632840671,-0.4933609632840671,1.000026994231586,0.0002013313542980784
-0.4932554978964617,-0.4932554978964617,1.0002950294057984,0.0002150023987364249
-0.4930874194898934,-0.4930874194898934,1.000104667470777,0.00017485318814394133
-0.49294112032876003,-0.49294112032876003,0.9998012418827719,0.00019434813502779114
-0.4927170269460476,-0.4927170269460476,1.0001787484164466,0.0001845690019282328
-0.49257218468846986,-0.49257218468846986,1.0000073324127658,0.0001767830340848174
-0.4924988267950539,-0.4924988267950539,0.9999270445556446,0.00019423065559847407
-0.4923021628324932,-0.4923021628324932,1.000154649897653,0.00019457328806284208
-0.4921942296816269,-0.4921942296816269,1.0000689680831585,0.00018649103505132187
-0.4921055477505433,-0.4921055477505433,1.000260110319966,0.00019524601794451227
-0.4919502890465083,-0.4919502890465083,0.9999866690493514,0.0001970803946553555
-0.4918087838566862,-0.4918087838566862,1.0004272494836546,0.00019743833143687396
-0.4917167453633738,-0.4917167453633738,0.9999008581760828,0.00017807545696433413
-0.49167004040064055,-0.49167004040064055,1.0001073243338543,0.00018172202377686046
-0.49153869700894576,-0.49153869700894576,1.0000128710600626,0.0001946785782169696
-0.49143036768800813,-0.49143036768800813,1.0000167089203071,0.00017602551689887403
-0.4913010500509699,-0.4913010500509699,1.00010592715434,0.000189020554786907
-0.49117730206708077,-0.49117730206708077,1.0000793106744303,0.00017629478188050963
-0.4910841464741679,-0.4910841464741679,1.0000731634089006,0.00017395109665094334
-0.4910402700355917,-0.4910402700355917,0.9997948277368456,0.00019419265723404896
-0.4909203862240247,-0.4909203862240247,0.9997095393269444,0.0001967792383670492
-0.49082399352482753,-0.49082399352482753,0.9999924987639183,0.00017624871859529665
-0.49067482315949745,-0.49067482315949745,1.0000500980203155,0.00018709707832426296
-0.4905354794682353,-0.4905354794682353,1.000152615405781,0.00019139940224616864
-0.4903466010830016,-0.4903466010830016,1.0000810529745396,0.000197202065214258
-0.490247251134133,-0.490247251134133,0.9997487822728506,0.00017405858910542603
-0.4901775709928188,-0.4901775709928188,0.99996501988238,0.00018210173414389655
-0.49003159176063493,-0.49003159176063493,1.000267295293678,0.00019639722325107476
-0.4899254456984636,-0.4899254456984636,0.9999196432363322,0.00018301027555484107
-0.4898036268969008,-0.4898036268969008,0.9999718066660742,0.00018048025651310162
-0.48970071205403654,-0.48970071205403654,0.9997149264710797,0.00019348890342066989
-0.489634750107507,-0.489634750107507,0.9998585025754275,0.0002309386779871981
-0.48954288310342237,-0.48954288310342237,0.9998742731420786,0.00019664724726933878
-0.4894079206627794,-0.4894079206627794,0.999876465810041,0.00019993425080015677
-0.4892272611818044,-0.4892272611818044,0.9998057116466695,0.0001883916849754465
-0.48907465579177367,-0.48907465579177367,0.9999613093673991,0.0001999747645576273
-0.48890050714908284,-0.48890050714908284,0.9997069394321061,0.0001962044234401143
-0.4887810057218303,-0.4887810057218303,1.0003254983738352,0.0001816570990679274
-0.48862849719444057,-0.48862849719444057,1.0000894750717553,0.00017988265853400255
-0.48854417971379005,-0.48854417971379005,0.9998778726691324,0.000195861769701856
-0.48847772991357485,-0.48847772991357485,1.000099058716604,0.00019876752884129275
-0.48837984215060715,-0.48837984215060715,1.000205407340529,0.00019419407845082292
-0.4883187798077415,-0.4883187798077415,0.9998455128317267,0.00019278142942625112
-0.48822263096444657,-0.48822263096444657,0.9999029190281407,0.00017642845867557903
-0.4881807861616835,-0.4881807861616835,1.0001098960947747,0.00019712615166352348
-0.488080788795196,-0.488080788795196,1.0002724388903463,0.00019598949915299824
-0.48798733063813415,-0.48798733063813415,0.9998347165572901,0.00019277106898874793
-0.4878634202214016,-0.4878634202214016,1.000124120583152,0.00019452369374176845
-0.48774909426429075,-0.48774909426429075,0.9998363192858631,0.00017339716566690198
-0.4876233132868947,-0.4876233132868947,0.9997804814409772,0.0002063419235775144
-0.48749406069182444,-0.48749406069182444,0.9998892528624825,0.0001760527311518243
-0.48737388406370885,-0.48737388406370885,1.000122747848593,0.00017654969325273624
-0.48729059302932,-0.48729059302932,0.9996136520782825,0.00019415135818010698
-0.48718455891721535,-0.48718455891721535,0.999858095526718,0.00019426110594790826
-0.48702847304084573,-0.48702847304084573,1.0000617898718407,0.0001970175105538503
-0.4869615191149933,-0.4869615191149933,0.9998660771743884,0.00018542385454492323
-0.4868400796600326,-0.4868400796600326,1.000284194358637,0.00019412976139945154
-0.4867354202178831,-0.4867354202178831,0.9997699955206023,0.00017574490371184527
-0.486578136132448,-0.486578136132448,0.9999829645967795,0.00020781871519222008
-0.4864870057441294,-0.4864870057441294,1.0005027619821771,0.00018884003520065843
-0.486420572282077,-0.486420572282077,0.9999170592987845,0.00018268667874421444
-0.48627611368356155,-0.48627611368356155,1.0000047827024736,0.0002007755700785378
-0.4861761109168583,-0.4861761109168583,0.9999732033396377,0.00017797972081168493
-0.48602702425050665,-0.48602702425050665,1.000020703519516,0.00019403775029050747
-0.4858958100616292,-0.4858958100616292,1.0000522923379696,0.00017867856123544507
-0.48581676039102606,-0.48581676039102606,0.9999681545442367,0.00017475977384886509
-0.4857547039588098,-0.4857547039588098,0.9998754447403009,0.0001878567079792054
-0.48570362183381804,-0.48570362183381804,1.0003961731245252,0.0001983064918887664
-0.48560199756830114,-0.48560199756830114,1.0000910455214216,0.0001930793298807849
-0.4854574220626091,-0.4854574220626091,1.0000139688922287,0.00019218876106390706
-0.4852478174434509,-0.4852478174434509,1.0000994489706616,0.00017838641975418982
-0.48506970412490774,-0.48506970412490774,1.0000799390248631,0.00017640167991505906
-0.4848455939973064,-0.4848455939973064,0.9998461714362641,0.00020107135123167622
-0.4846901802950015,-0.4846901802950015,0.9999240084607024,0.00018147083724031718
-0.4845400402751693,-0.4845400402751693,1.0003792862838918,0.0001812336230313603
-0.4844100615628122,-0.4844100615628122,0.9997702413279903,0.00019331395772025962
-0.4843329426541459,-0.4843329426541459,1.0000900065678142,0.00022676705023340162
-0.4842333777836757,-0.4842333777836757,0.999941730982146,0.00019773062314360819
-0.4840996001788881,-0.4840996001788881,0.9999182446117463,0.00021963763590420309
-0.4840337513211125,-0.4840337513211125,0.9998295199901512,0.00019492596871108968
-0.48389510054839774,-0.48389510054839774,0.9998844854138131,0.00021210543200735898
-0.48371580899329275,-0.48371580899329275,1.0003058294314133,0.00022077894274744346
-0.4834711749957933,-0.4834711749957933,0.9999548996044207,0.00018445387260451054
-0.48333184612056357,-0.48333184612056357,0.9999529895660823,0.0001784120398636091
-0.4832478336698841,-0.4832478336698841,1.0002748523287925,0.00021541483852888962
-0.4831797042257676,-0.4831797042257676,1.0001957610784245,0.00017709010666477242
-0.48307073050236793,-0.48307073050236793,0.9999099246079026,0.00018073707331806938
-0.48300276408845094,-0.48300276408845094,1.0005621494142978,0.00019139459358329057
-0.48290817344022796,-0.48290817344022796,1.0000636831813279,0.00019549513442949042
-0.48280742547722183,-0.48280742547722183,0.9999707561292592,0.00019848353945323377
-0.48271005438218706,-0.48271005438218706,1.0000783080563902,0.0002084320675311149
-0.482596283510793,-0.482596283510793,1.0001324531314766,0.000192278764803212
-0.48254071906048923,-0.48254071906048923,0.9999718351813618,0.00017554106743601573
-0.48242947035614636,-0.48242947035614636,0.9999670764990753,0.00017868587679255218
-0.4823323697441083,-0.4823323697441083,0.9999720618515088,0.00025012103426327295
-0.4822240233181219,-0.4822240233181219,1.0000340597232458,0.0001762895754013401
-0.4821480043610791,-0.4821480043610791,1.000011393977744,0.00021259953545947906
-0.4820182564944844,-0.4820182564944844,0.9999650870525814,0.00017454135538504573
-0.4819418863298779,-0.4819418863298779,1.0001472491441703,0.00019562035682956592
-0.48178119919029994,-0.48178119919029994,0.999929355415689,0.00018272776614457377
-0.4816378607451043,-0.4816378607451043,1.0000282281907034,0.00017419942899846147
-0.48152517858034116,-0.48152517858034116,1.0002433062763483,0.00019142791219792823
-0.4814386630532681,-0.4814386630532681,0.9998415487156624,0.00020791008199733569
-0.4812847179004166,-0.4812847179004166,1.0002908657275673,0.00021231667745859879
-0.4811928495299071,-0.4811928495299071,0.9997667350091646,0.00017925681786369534
-0.4810122690105345,-0.4810122690105345,1.0001968878224585,0.00019408738127215422
-0.4808269671855669,-0.4808269671855669,1.0001865695963232,0.00020018068177838835
-0.4806762736399833,-0.4806762736399833,0.9999259456600725,0.0001755849358118642
-0.4805984381368035,-0.4805984381368035,1.0000379345943844,0.00018178114019142092
-0.4805568783194758,-0.4805568783194758,0.9996815947149769,0.00018284085973733433
-0.4805011371274304,-0.4805011371274304,0.9996612960018894,0.00018103718497274526
-0.48033551279004316,-0.48033551279004316,0.9999710282754422,0.00019174267834848349
-0.48015665898419685,-0.48015665898419685,1.000014255681187,0.0001955860814892273
-0.480006150319241,-0.480006150319241,0.9999096745720605,0.00022215198612164327
-0.479884808632778,-0.479884808632778,1.000030370265365,0.00017479233062607532
-0.4798010858197813,-0.4798010858197813,0.9999720770983686,0.00019956193896909633
-0.47972289713143257,-0.47972289713143257,0.9998301905673241,0.0001716101561564531
-0.4795325980245252,-0.4795325980245252,1.0000190813806682,0.00018787116843106206
-0.4793757869047113,-0.4793757869047113,0.99967597062552,0.0001972620215319499
-0.4792218371119816,-0.4792218371119816,1.000113568754792,0.00018099851624810511
-0.4791322321158077,-0.4791322321158077,0.9999339491311245,0.00019785471295669495
-0.47905853429329,-0.47905853429329,1.0003018246266309,0.00022834914836518914
-0.47898377772507955,-0.47898377772507955,0.9999191807741971,0.00019726028802136033
-0.4788746738537156,-0.4788746738537156,0.9998065743147656,0.00018096481754543682
-0.47882143269089283,-0.47882143269089283,0.999922330533652,0.0002003841096057983
-0.478672839232604,-0.478672839232604,0.9998677723464457,0.0002124768055600469
-0.4785338574729394,-0.4785338574729394,0.9997171290225992,0.00019415168635988534
-0.47837290002280497,-0.47837290002280497,1.0001213025216935,0.00020245596729131032
-0.4782454697226058,-0.4782454697226058,1.000094623146556,0.00018052480158939818
-0.4781140480808972,-0.4781140480808972,1.0001526649032866,0.000176391536924717
-0.4780245885878685,-0.4780245885878685,0.999801417853309,0.0001944607381989199
-0.4778735768639308,-0.4778735768639308,1.0002108444942859,0.00017693667171354616
-0.477764908989775,-0.477764908989775,1.0002757498667578,0.0001728356178162037
-0.4776238633938192,-0.4776238633938192,0.9999242872086704,0.0001965813248181911
-0.4775629208757891,-0.4775629208757891,0.9999089742328829,0.0001790496581463048
-0.47743356440842033,-0.47743356440842033,0.9999092684716031,0.00022621769955417738
-0.477341617597267,-0.477341617597267,1.0001053748653186,0.00017966692332162763
-0.477251245376101,-0.477251245376101,0.9996303052121304,0.00020963297086181717
-0.4771465294288646,-0.4771465294288646,1.0000540173312347,0.00017571998758772407
-0.4770865183425485,-0.4770865183425485,0.9997783524963963,0.0001913267669451438
-0.47698465018402203,-0.47698465018402203,0.9999491805316649,0.0001712535716149076
-0.4768408512078167,-0.4768408512078167,1.0001457902950708,0.00018279245707942155
-0.4767098264237575,-0.4767098264237575,1.0000780246734855,0.00019456215306223442
-0.4765121064308914,-0.4765121064308914,0.9998761264608647,0.00018978990115440912
-0.476317783354898,-0.476317783354898,1.0001993231780044,0.00017777315594936588
-0.47622384185524425,-0.47622384185524425,0.9999804231387843,0.0001882024008465635
-0.4760521779215196,-0.4760521779215196,0.9997957228398174,0.00019416089028124255
-0.4758966592278739,-0.4758966592278739,1.0000502439666197,0.00019536612648885632
-0.4757352552172961,-0.4757352552172961,0.9997309894300228,0.000191162438387925
-0.47561725070263494,-0.47561725070263494,0.9998253401980246,0.00017879358164478017
-0.47548971031792464,-0.47548971031792464,0.9998942847345147,0.0001993189183125764
-0.475434737282194,-0.475434737282194,1.0004361493464298,0.00017751507386068016
-0.4753609290921304,-0.4753609290921304,0.9998232105669566,0.0001874383683755113
-0.47529031654485154,-0.47529031654485154,0.9999231189585762,0.00019617815080812565
-0.4752397913900495,-0.4752397913900495,0.999913574130127,0.00018256080288026462
-0.475051510931371,-0.475051510931371,0.9999438923814644,0.0001936124312986696
-0.4749337974280934,-0.4749337974280934,1.0002456541926659,0.00017959830972192448
-0.4748481769580394,-0.4748481769580394,1.0001263010410084,0.00021383507495912078
-0.47477001682127595,-0.47477001682127595,0.9999122902413005,0.00019062270915460808
-0.474681570498069,-0.474681570498069,0.9997868046728419,0.00017238276869295413
-0.4746016010823951,-0.4746016010823951,0.9999365914049742,0.00018838057215775237
-0.4744737394161348,-0.4744737394161348,1.000200120697751,0.00016890375964533668
-0.4742671334031911,-0.4742671334031911,1.0001160866707055,0.00019687776955180925
-0.4741149071545806,-0.4741149071545806,1.0002933243608543,0.00020076809590501279
-0.47399399314890617,-0.47399399314890617,1.0001875442336379,0.00017025526112179366
-0.47395350429578686,-0.47395350429578686,1.0002941646927002,0.00017586362183846018
-0.47382027042331176,-0.47382027042331176,0.9999069552491442,0.00019806668702690102
-0.47375412685651097,-0.47375412685651097,1.0000770065387314,0.00022611068455076223
-0.47367961015042964,-0.47367961015042964,1.000168630037693,0.0001837628114347625
-0.4735461410513381,-0.4735461410513381,1.0001484261861642,0.0001998103656101056
-0.4734412507605157,-0.4734412507605157,0.9998532843734651,0.00021158181666070208
-0.47330834646418224,-0.47330834646418224,0.9998969369694839,0.00019944735898649006
-0.47316834893790655,-0.47316834893790655,1.000052994858018,0.0001922866343937744
-0.4729881479601318,-0.4729881479601318,1.000141311418133,0.00019930731901607606
-0.47283670320466625,-0.47283670320466625,1.0002212476177568,0.0002003301805100064
-0.47270461663501917,-0.47270461663501917,1.0001083083469262,0.00019985432503196598
-0.47258681615567183,-0.47258681615567183,0.9997914321380948,0.00017795591627378134
-0.4725156419932318,-0.4725156419932318,1.000142536166551,0.0001759087629865391
-0.47237417734140763,-0.47237417734140763,1.0002027826960853,0.00018005693875027104
-0.4722984122847265,-0.4722984122847265,1.0000062062431492,0.00019980802776998506
-0.47217434534977654,-0.47217434534977654,1.000182107328346,0.0001932813918818174
-0.4721073926957615,-0.4721073926957615,0.9999571393434715,0.00019452145377598978
-0.47203028677249675,-0.47203028677249675,1.0008105888916612,0.00017380073809988484
-0.47196055373569834,-0.47196055373569834,1.0000057704555767,0.0001958172415597858
-0.4718843251488579,-0.4718843251488579,0.9996493491446075,0.00019787525898596318
-0.4717829002453072,-0.4717829002453072,1.0000107458540644,0.00021278967349948598
