time,time,flux,flux_err
-0.4996633035989362,-0.4996633035989362,1.0000972977859592,0.0001689349029708383
-0.4992914886121677,-0.4992914886121677,0.9999878374334544,0.00017014753162575437
-0.49912783371837577,-0.49912783371837577,0.9999367418490817,0.00017432634353462738
-0.49893468542722985,-0.49893468542722985,0.9999401196025599,0.00017068731449978742
-0.4987662722967798,-0.4987662722967798,0.9999694386365914,0.00015456679698405798
-0.4985519938316429,-0.4985519938316429,0.999998543253947,0.00015681635281329228
-0.49826776405097917,-0.49826776405097917,0.9998002109390894,0.00015642020740829743
-0.49792993817536624,-0.49792993817536624,0.999902544785596,0.0001602631866414756
-0.497727604789543,-0.497727604789543,0.9998464384207288,0.00016273736981306525
-0.49757740207423923,-0.49757740207423923,0.9998300540442514,0.00015453505983840888
-0.4972872473066673,-0.4972872473066673,0.9999549775899805,0.00015676271821600887
-0.4970764836238232,-0.4970764836238232,0.9996980597115872,0.00015515465600303546
-0.4968539986293763,-0.4968539986293763,1.000158285134906,0.00015874551862549692
-0.4966047753143357,-0.4966047753143357,0.9999854730877598,0.0001587978894199164
-0.4964901728410041,-0.4964901728410041,1.0002114598901195,0.00015573439334248373
-0.49636065107770266,-0.49636065107770266,1.0000942674013564,0.00015706041759644448
-0.49608573188015725,-0.49608573188015725,0.9997507305651832,0.0001540057649703386
-0.4958126508281566,-0.4958126508281566,1.000019014722682,0.00015528648392286804
-0.4955834641325055,-0.4955834641325055,1.0000086304532358,0.00015631436131005176
-0.49534576161240695,-0.49534576161240695,0.9997907542166828,0.00015926968427360552
-0.49511528673174326,-0.49511528673174326,0.9999636492293839,0.00016570082290595024
-0.4949026653397596,-0.4949026653397596,1.0000352323098733,0.00015655611157789078
-0.49473012460803145,-0.49473012460803145,1.0000686492135877,0.00015674976495708062
-0.49452115073800085,-0.49452115073800085,0.9999968920280345,0.000158062321849828
-0.4943330144014908,-0.4943330144014908,1.0000779302497143,0.00015763789892807217
-0.49418556788004936,-0.49418556788004936,0.9999348167776804,0.00015515928580202282
-0.4940096183301648,-0.4940096183301648,0.9998686552708023,0.00015704044940134107
-0.4937711318198126,-0.4937711318198126,1.000206977310401,0.00015780533482695575
-0.4935280347039225,-0.4935280347039225,1.0001395950280603,0.00015864499418330336
-0.4931295383663382,-0.4931295383663382,1.0001380261168917,0.00015856488923705303
-0.4928732026164653,-0.4928732026164653,0.9998896279471085,0.0001563820699279051
-0.4927389006887097,-0.4927389006887097,1.0000382784022483,0.0001560332242110753
-0.49242258320446125,-0.49242258320446125,1.0000677791237518,0.00015323000480729057
-0.4921874763240339,-0.4921874763240339,0.9999821277082896,0.00015646574675841
-0.4919438625278417,-0.4919438625278417,0.9998674667877271,0.0001588047043489263
-0.4917460320488317,-0.4917460320488317,1.0000789933726035,0.00015663481971160746
-0.49162350172700825,-0.49162350172700825,0.9999058453995968,0.0001586389553539838
-0.4914478834660258,-0.4914478834660258,1.0000206435674113,0.00015334867070715394
-0.491285196057288,-0.491285196057288,1.0000753014589872,0.0001552326976598418
-0.4910792676062556,-0.4910792676062556,1.000062659371737,0.00015604949325531036
-0.4908365644136211,-0.4908365644136211,0.9998057933182494,0.00016283279052205853
-0.4906549792300211,-0.4906549792300211,0.9999863798389266,0.0001583573433072238
-0.49047765124414583,-0.49047765124414583,1.000033623839728,0.0001568226082766307
-0.4903232625249075,-0.4903232625249075,1.0001323640243958,0.00016629750854575028
-0.4901739359134808,-0.4901739359134808,0.9999000034301087,0.00015500296578099628
-0.4898970160429599,-0.4898970160429599,1.0000392207832012,0.0001570519881664091
-0.489759357215371,-0.489759357215371,0.9999984857321833,0.00015755950824183185
-0.48966051153256557,-0.48966051153256557,0.9999553519628124,0.00015655679456077516
-0.48947531266603617,-0.48947531266603617,1.000051536914342,0.00015906800791923471
-0.4893054573156405,-0.4893054573156405,0.9998465285047772,0.00015295154139765963
-0.4890288003109163,-0.4890288003109163,1.0003757791415615,0.00015769533956715896
-0.48873562848020813,-0.48873562848020813,0.9998070993348405,0.0001576314147529787
-0.48849417276214807,-0.48849417276214807,0.9999327971923311,0.000157515601147904
-0.4881960562983295,-0.4881960562983295,1.0000447654416675,0.00015527751396485307
-0.487869672634406,-0.487869672634406,0.9997694612614925,0.00015819474947228383
-0.48767292371194343,-0.48767292371194343,1.0001302753865837,0.00015366791784934608
-0.48734898288093975,-0.48734898288093975,1.000115904259619,0.00015893903567432328
-0.4871299995138543,-0.4871299995138543,1.0001314561959291,0.0001536931099674909
-0.486885013061692,-0.486885013061692,0.9999200749521661,0.0001596839120222493
-0.48673575178254397,-0.48673575178254397,1.0000374090805442,0.00015627391816954936
-0.4865256432909518,-0.4865256432909518,1.0002165305763269,0.00015517472697557075
-0.4863188026705757,-0.4863188026705757,0.9998565926447729,0.0001544691913300742
-0.4862198039627401,-0.4862198039627401,1.0001220307937821,0.00015612786256322188
-0.4860189194470877,-0.4860189194470877,1.0002560474498565,0.0001828900288619528
-0.48586457745404915,-0.48586457745404915,1.000089478293615,0.00017078558319605093
-0.48574872178433,-0.48574872178433,1.0000487208466506,0.00015525320222932007
-0.4856066853099037,-0.4856066853099037,0.9997510611043852,0.0001632039604275741
-0.4854020263650455,-0.4854020263650455,1.000007244128482,0.000163443613590398
-0.4852432031126227,-0.4852432031126227,0.9999453563284894,0.00015836707151133098
-0.4850180667708628,-0.4850180667708628,0.9997289004310772,0.0001664028576550765
-0.4848167130083311,-0.4848167130083311,0.9999215635786601,0.0001574554378648089
-0.4846478299790761,-0.4846478299790761,1.0001375576148828,0.00015523342741070504
-0.4845211071864469,-0.4845211071864469,0.999985415462804,0.00015526571484164727
-0.48444679015956355,-0.48444679015956355,0.9998552714461244,0.0001583601127116058
-0.48428549118107184,-0.48428549118107184,1.0000344515575121,0.00015486215207399998
-0.4841394160292111,-0.4841394160292111,0.9998909279549995,0.00016111074169539074
-0.48381594934908206,-0.48381594934908206,1.0000075626106315,0.00015465036546033725
-0.4835462524788454,-0.4835462524788454,1.0001379663733618,0.0001571965452573658
-0.48339090311783367,-0.48339090311783367,1.0000018057433646,0.00015479608710474376
-0.48317203238548245,-0.48317203238548245,1.0000289532441522,0.0001568647710891979
-0.4830200114956824,-0.4830200114956824,1.0001227503765715,0.0001595977964620966
-0.4826131674781209,-0.4826131674781209,0.9999234878922774,0.00015709263976618036
-0.48228319054178426,-0.48228319054178426,1.0000310253582194,0.00015636084056228696
-0.48198940816510005,-0.48198940816510005,0.9998395552188806,0.00015783467827393025
-0.48181755480763966,-0.48181755480763966,1.000192022924819,0.0001576245174013051
-0.481598480627872,-0.481598480627872,0.9996859616341108,0.0001561467085872985
-0.48144477571186145,-0.48144477571186145,1.0001345382984814,0.00015472365586338747
-0.4812558461446315,-0.4812558461446315,1.0003830875079707,0.0001569268437065672
-0.4809557051863521,-0.4809557051863521,1.0001358960753668,0.0001563612194196661
-0.4808049530722201,-0.4808049530722201,1.0001415615896476,0.00016118028304634336
-0.4806217604345875,-0.4806217604345875,1.000039741373801,0.00016383618107532742
-0.48034299912687856,-0.48034299912687856,0.9998969026753318,0.00015669821555260496
-0.48018962683854627,-0.48018962683854627,1.0001024051964855,0.00015650905705730413
-0.48001872740569523,-0.48001872740569523,0.9998807928146363,0.00015592204089001307
-0.47993382954446134,-0.47993382954446134,0.9998433876747755,0.00015751533845447197
-0.4796641699416796,-0.4796641699416796,0.999995186119971,0.0001567291340946216
-0.4794603906251723,-0.4794603906251723,0.9998711123894095,0.00015367321775477236
-0.47933888719417156,-0.47933888719417156,1.0001117906695893,0.00015884995427923167
-0.47919121264712883,-0.47919121264712883,1.00037263062029,0.00016360883600926974
-0.47888312248687726,-0.47888312248687726,1.0000973361134364,0.0001562508888792735
-0.47862864400085525,-0.47862864400085525,0.9999778584103037,0.0001642208178712806
-0.478383789624786,-0.478383789624786,0.9999431398358143,0.00015823264793135902
-0.47813614691840484,-0.47813614691840484,0.9999112516107249,0.00015753732429932247
-0.4779735729243839,-0.4779735729243839,1.0000345758694182,0.0001590896025415446
-0.4778508936025901,-0.4778508936025901,0.9999692408171494,0.0001578542816761362
-0.47765767900273204,-0.47765767900273204,0.999925035371388,0.00015623406179591368
-0.477350112790009,-0.477350112790009,0.9998733591830982,0.00015186538786535696
-0.4770931301463861,-0.4770931301463861,0.9999425846806111,0.00015890778041102453
-0.47696201418875717,-0.47696201418875717,0.9998840935353517,0.00015492580914971998
-0.47680141459859443,-0.47680141459859443,0.9996970712944832,0.00015892817790529753
-0.4766263632569462,-0.4766263632569462,0.9998551429495123,0.00015518966319077825
-0.4764760442019906,-0.4764760442019906,0.9999472134099511,0.00015413958220574585
-0.47627535697829443,-0.47627535697829443,0.9996445630630266,0.00015813602404506788
-0.4760185480263317,-0.4760185480263317,1.000226218062798,0.00015924081145389922
-0.475693480487098,-0.475693480487098,0.9999545370283599,0.0001568868437473308
-0.4755496855912497,-0.4755496855912497,1.000129277151745,0.00016113758323099762
-0.47537905123026575,-0.47537905123026575,0.9998065072750901,0.0001562369623853193
-0.4751175557175884,-0.4751175557175884,0.99990036609328,0.00015768852014784083
-0.47484169753151945,-0.47484169753151945,1.0000064326768732,0.0001554207169558602
-0.47463539568998386,-0.47463539568998386,0.9998113005288509,0.00015635915755708726
-0.47440115821082146,-0.47440115821082146,1.0000343512652805,0.0001587901942714775
-0.47430279319232793,-0.47430279319232793,1.0000632834718832,0.00015541987201021594
-0.47421336819825227,-0.47421336819825227,0.999866747684799,0.00015890459510564745
-0.47396716233633923,-0.47396716233633923,1.0002073958727231,0.00015397193096110105
-0.47374258511990774,-0.47374258511990774,1.0000767177217893,0.000153183078646514
-0.47348036883049643,-0.47348036883049643,1.0000428648532411,0.00015905859296491825
-0.4732166649017017,-0.4732166649017017,0.9997805546511784,0.00015553427041903334
-0.4729989266226767,-0.4729989266226767,1.0001104038643596,0.00016498208557282147
-0.4728699363971828,-0.4728699363971828,0.9998661284492807,0.0001573851578197839
-0.47266269976098557,-0.47266269976098557,1.000011878643882,0.00015762619599359623
-0.47251925336313433,-0.47251925336313433,0.9999299200815207,0.00015642126344240617
-0.4722390248643933,-0.4722390248643933,1.0001093092250026,0.0001558669206407637
-0.47207597994129175,-0.47207597994129175,1.0000508562814883,0.00015813178412547223
-0.47189827011025043,-0.47189827011025043,0.9997532456682953,0.00015752003533763104
-0.47171514604997355,-0.47171514604997355,0.9998589610056289,0.00015676055116401006
-0.4714298925129697,-0.4714298925129697,0.9999431960274787,0.00015686094548049168
-0.4712242504727328,-0.4712242504727328,0.9998036072721925,0.00015738734267864852
-0.47087553182209374,-0.47087553182209374,0.999982403939808,0.00015960952994191908
-0.4706699199421564,-0.4706699199421564,1.000287732935826,0.00015964160305101163
-0.47047981291252655,-0.47047981291252655,0.999779696275405,0.0001560715580011324
-0.4701771762425778,-0.4701771762425778,0.9998815166819615,0.00015486161112446162
-0.46997871734783986,-0.46997871734783986,1.000150948577349,0.00015394634730882668
-0.46969203173939605,-0.46969203173939605,0.9998904504028403,0.00015711597148927587
-0.46950003192469014,-0.46950003192469014,0.99984447021934,0.0001580273236422072
-0.469430140699842,-0.469430140699842,0.9998523067345042,0.00015715709512886263
-0.469201427619555,-0.469201427619555,1.0001293552140376,0.00015351367851326308
-0.4690710430819308,-0.4690710430819308,1.0002928205097292,0.00015426551979366815
-0.46888042314967604,-0.46888042314967604,0.9999361798136531,0.0001560120867161383
-0.46862832849437835,-0.46862832849437835,0.999950281861753,0.00016192855546226837
-0.4685107632307336,-0.4685107632307336,0.9999011359618031,0.00015663957937590882
-0.46829821486608125,-0.46829821486608125,0.9998302943974696,0.00015809347152250896
-0.46813797966751736,-0.46813797966751736,1.000033773775192,0.00016676495857109226
-0.4679294682719046,-0.4679294682719046,0.9999330371619217,0.00015586268802855738
-0.46772393223363906,-0.46772393223363906,0.9996038311236124,0.00015571718735495234
-0.46757019544020295,-0.46757019544020295,0.9999873033723923,0.0001552034104382931
-0.46740828034235166,-0.46740828034235166,0.9999481745961694,0.00015816090724138924
-0.4672514971985947,-0.4672514971985947,1.0000586823457056,0.00015650643040492535
-0.4670955177600263,-0.4670955177600263,0.9999997417115398,0.00015344688722259732
-0.46683297053677963,-0.46683297053677963,1.0002276789200137,0.00015609143819627673
-0.4665998550131917,-0.4665998550131917,1.0000922496665683,0.00015886980506221504
-0.4663243981776759,-0.4663243981776759,0.9999568338020988,0.00015752892151306091
-0.46591173082124443,-0.46591173082124443,0.9999372882534816,0.0001548992742725514
-0.4656538517680019,-0.4656538517680019,0.9998901149084874,0.00015913579151283398
-0.4654578398738522,-0.4654578398738522,1.0000286267009681,0.00015301857876337137
-0.4651688558544265,-0.4651688558544265,1.0000939400526112,0.00015495875681317484
-0.46491006413125435,-0.46491006413125435,1.0000472135946157,0.00015535580459631365
-0.46470834844512865,-0.46470834844512865,1.000011163942229,0.00015728773836858666
-0.4645848850166658,-0.4645848850166658,0.9999984701790405,0.0001585355515863884
-0.4644373984396225,-0.4644373984396225,1.0001280462912945,0.00015618861168796653
-0.46428728639730255,-0.46428728639730255,1.0000708732763672,0.00015432919740157022
-0.4641023671545554,-0.4641023671545554,0.9997981704903308,0.00015688129163332124
-0.46399503892462235,-0.46399503892462235,1.0002420139689052,0.00015553219621614503
-0.4637918179272674,-0.4637918179272674,1.0001259280243529,0.00016249214647896842
-0.46363374990178274,-0.46363374990178274,0.9998634961477888,0.00016078425886253907
-0.46346788699156605,-0.46346788699156605,1.0000424233068619,0.00015852690973876016
-0.4632620426069479,-0.4632620426069479,1.0001669859243487,0.00015753386275975216
-0.46314840686391107,-0.46314840686391107,1.0000378459808963,0.00016318711520807192
-0.46294560457754413,-0.46294560457754413,0.9999945137673338,0.00016870774535542374
-0.4627223260467872,-0.4627223260467872,0.9998355038201993,0.0001561156988994926
-0.46252523737202866,-0.46252523737202866,0.9999518859120512,0.00015902717476337305
-0.4623809681739658,-0.4623809681739658,0.9999602108776671,0.00015663226471904063
-0.46228923951275647,-0.46228923951275647,0.999823818535767,0.00015469630654510601
-0.4621655086055398,-0.4621655086055398,0.9998978083585035,0.0001583898738243932
-0.462017862329958,-0.462017862329958,1.0000662565814344,0.00015972205571641293
-0.4618240037118085,-0.4618240037118085,0.9999291210732306,0.00015567780818082647
-0.4615137827990111,-0.4615137827990111,1.0003594113730265,0.00015712113561781434
-0.4613545011176029,-0.4613545011176029,1.0000720106240262,0.00015660344487782032
-0.4611256155621959,-0.4611256155621959,1.0001012241444476,0.00015732856453201763
-0.46084782589168755,-0.46084782589168755,0.9997963182464785,0.0001574542495591564
-0.4605485195905203,-0.4605485195905203,1.0000559493652603,0.00015737028263430988
-0.4601888704346493,-0.4601888704346493,0.9999472647132764,0.00015896278792481213
-0.45989275237952826,-0.45989275237952826,1.000377677396133,0.00015721379591466015
-0.4597066010348499,-0.4597066010348499,1.0000338156499908,0.00015866740626831234
-0.45947561256762126,-0.45947561256762126,0.999832493045591,0.00015695858408941628
-0.4593124876351794,-0.4593124876351794,1.0002978411750896,0.0001578960872283428
-0.45917980787344276,-0.45917980787344276,1.0001766897898803,0.00015438702871152984
-0.45894879462430255,-0.45894879462430255,1.0000456466171297,0.00015567569560930998
-0.4587696289498126,-0.4587696289498126,1.000035363089212,0.00020233440452809928
-0.4586597553512547,-0.4586597553512547,1.0001876874510518,0.00016208582261507712
-0.4585274549113819,-0.4585274549113819,1.00006664079263,0.0001562189088824852
-0.45832649734511505,-0.45832649734511505,0.9999415623952576,0.0001618537631173195
-0.45811964193708266,-0.45811964193708266,0.9997239634384186,0.00015797288819342786
-0.4578908578492701,-0.4578908578492701,0.9999205809482486,0.00015651095546819702
-0.4577793045231374,-0.4577793045231374,0.999758258091618,0.0001557172415990005
-0.4576838943932671,-0.4576838943932671,1.0000425455340063,0.0001540110645359251
-0.4573765376815572,-0.4573765376815572,1.0003397536719656,0.0001562332182192652
-0.4571819175471319,-0.4571819175471319,1.0000613922218347,0.00015487788531373824
-0.4570562842767686,-0.4570562842767686,0.9998494140427443,0.0001608615331775778
-0.45689029359200506,-0.45689029359200506,1.0000628666552642,0.00015846986121708224
-0.45657603108556943,-0.45657603108556943,1.0000984317315704,0.00015568506614045918
-0.4562974639935419,-0.4562974639935419,0.9999628342851368,0.00015429472264078095
-0.45604280310217293,-0.45604280310217293,1.0000480257926134,0.00015902847197983957
-0.45585543948109264,-0.45585543948109264,0.9998353312328178,0.00015927026804534743
-0.45570062605838757,-0.45570062605838757,0.9998012551186927,0.00015432578926880594
-0.4555190936953295,-0.4555190936953295,1.0000690225184115,0.00015759115697509986
-0.45505911461950743,-0.45505911461950743,0.9997475720112661,0.00015392013791962477
-0.4548694597004214,-0.4548694597004214,0.9999351079694534,0.00015774480649620202
-0.45472424327745103,-0.45472424327745103,0.9998328559602957,0.00015522062617373688
-0.45454545005923136,-0.45454545005923136,1.000141578394029,0.00015707726718435297
-0.4543872469483176,-0.4543872469483176,1.0001798520248781,0.00015447899972424248
-0.4542327173316153,-0.4542327173316153,1.0001887398086755,0.00015276150537468167
-0.4540118528122548,-0.4540118528122548,0.9996883312071116,0.00015820501940304384
-0.4537739665422123,-0.4537739665422123,0.9998031883202536,0.0001605939454855242
-0.45351487852749417,-0.45351487852749417,1.0000051748251786,0.00015646627340613138
-0.45334877214045266,-0.45334877214045266,0.9999765207666893,0.0001626207465252103
-0.45310719808039723,-0.45310719808039723,1.0000173578942344,0.00015709473988742751
-0.4527994257310638,-0.4527994257310638,1.0002084668046156,0.00015793024503476025
-0.4526262876577675,-0.4526262876577675,0.9998020719697628,0.0001571198762069439
-0.4523295753169805,-0.4523295753169805,1.000018701783859,0.00015793723362172532
-0.4521489210164873,-0.4521489210164873,0.9998918740007378,0.00015923429513539032
-0.4520767261245055,-0.4520767261245055,0.9998504477306162,0.0001565886441696152
-0.45191074833564926,-0.45191074833564926,0.9998969527789109,0.00015821479128955005
-0.45168903699086516,-0.45168903699086516,0.999963367063794,0.00015440818679157754
-0.4514807049185038,-0.4514807049185038,0.9999234344982757,0.00016567007409375162
-0.45127227196062447,-0.45127227196062447,0.9999349882589632,0.00015851685800953464
-0.45098466991621533,-0.45098466991621533,0.9998596934395041,0.00015687389245231252
-0.45075650706130543,-0.45075650706130543,1.0001006854785697,0.00016621505530286536
-0.4506285031617153,-0.4506285031617153,0.9999677154838376,0.00015630010738687967
-0.4503878285700921,-0.4503878285700921,0.9999783783249863,0.00015820173084355816
-0.45018551174143795,-0.45018551174143795,0.9999442831693551,0.000154863940666267
-0.4499175564327743,-0.4499175564327743,1.0001754478751248,0.00015723166155309795
-0.44971751410339494,-0.44971751410339494,1.0001747851797176,0.00015817097050510755
