time,time,flux,flux_err
-0.4995821502234321,-0.4995821502234321,1.0000564743762947,6.380396329035205e-05
-0.499211007579288,-0.499211007579288,0.9998984785587879,6.601616002712451e-05
-0.4990182572968479,-0.4990182572968479,1.0000400379520036,6.44122946569845e-05
-0.4987754488545761,-0.4987754488545761,0.9999878832041647,6.604812677638838e-05
-0.49855692920536965,-0.49855692920536965,0.999894113264322,6.545022235629594e-05
-0.49822392387577563,-0.49822392387577563,0.9999996233262474,6.252989296928331e-05
-0.4979049066489097,-0.4979049066489097,1.0000554351133686,6.336144959096253e-05
-0.49755559707919017,-0.49755559707919017,0.9999443171431006,6.290291877731778e-05
-0.49722307436095436,-0.49722307436095436,1.000070561032873,6.244842827897363e-05
-0.4969589473126689,-0.4969589473126689,0.9999322354510864,6.332536583275548e-05
-0.49653749168573996,-0.49653749168573996,0.9998872886066605,6.314359662049796e-05
-0.49610829896264474,-0.49610829896264474,1.0001339929299145,6.183108891248307e-05
-0.4958700453164056,-0.4958700453164056,1.0000627844285117,6.453835587732758e-05
-0.4955861190872383,-0.4955861190872383,1.0000346487192175,6.561960482061961e-05
-0.4952520044549601,-0.4952520044549601,1.0000697365367637,6.583373362983897e-05
-0.4950711748904723,-0.4950711748904723,1.0000087660545947,6.181146285616124e-05
-0.49483567568604486,-0.49483567568604486,1.0001995753268282,6.581724033448147e-05
-0.4946630184909736,-0.4946630184909736,0.9999482783606523,6.228105222372209e-05
-0.4943440317700151,-0.4943440317700151,0.9999878311565478,6.441818410350878e-05
-0.4939940140036924,-0.4939940140036924,1.0000326312163232,6.431063276524512e-05
-0.4935466254726634,-0.4935466254726634,1.0001216988428905,6.273169348397503e-05
-0.49315762776168415,-0.49315762776168415,1.0000058176174693,6.226102348834336e-05
-0.4926770530102658,-0.4926770530102658,0.9999728095563925,6.602622861782805e-05
-0.4922639369877288,-0.4922639369877288,1.0001053140372083,6.452345278387782e-05
-0.49168825046508574,-0.49168825046508574,1.0000217683427057,6.538090083333437e-05
-0.49135432716357175,-0.49135432716357175,1.0000880510668966,6.369835687655897e-05
-0.49113462794703083,-0.49113462794703083,1.0000099089911991,6.530643063143923e-05
-0.4908238134346902,-0.4908238134346902,1.000019094107818,6.63105152434374e-05
-0.4904629061798914,-0.4904629061798914,1.0000059274803639,6.539449437556653e-05
-0.4899736369297898,-0.4899736369297898,0.9999843582846555,6.430884291575649e-05
-0.4896282870628056,-0.4896282870628056,1.0000793668833892,6.32084153980864e-05
-0.48925610105288797,-0.48925610105288797,1.0000258271521016,6.476364158727096e-05
-0.4888368426858506,-0.4888368426858506,1.0000735902485745,6.3892310978893e-05
-0.48838449668182876,-0.48838449668182876,0.9999626448017525,6.261866152963843e-05
-0.4878546083593392,-0.4878546083593392,0.9999638348868471,6.52540283487951e-05
-0.4875638876932499,-0.4875638876932499,0.9999439769313462,6.439710933425549e-05
-0.4873404965204827,-0.4873404965204827,0.9999996310712396,6.570044045621813e-05
-0.486999786922388,-0.486999786922388,1.000034618181582,6.754210612569276e-05
-0.48669159566561576,-0.48669159566561576,0.9999574708380907,6.186223104500794e-05
-0.486282840455533,-0.486282840455533,1.0000463505987842,6.48183692158968e-05
-0.4860481849202188,-0.4860481849202188,1.0000895131490208,6.377255779734691e-05
-0.4856497424909321,-0.4856497424909321,1.0000558473291616,6.226300211229768e-05
-0.48535567675935454,-0.48535567675935454,1.0000499658935083,6.415854917125394e-05
-0.48510808692954016,-0.48510808692954016,1.0000875555156192,6.412710723785563e-05
-0.48483688931373764,-0.48483688931373764,0.9999456569228975,6.19294609133284e-05
-0.4843726647886797,-0.4843726647886797,1.0000009319036258,6.195855908556505e-05
-0.4841581716013025,-0.4841581716013025,1.0000079187959694,6.538439548789166e-05
-0.4838696171267657,-0.4838696171267657,0.9999386909340222,6.521605186954737e-05
-0.48349844460390157,-0.48349844460390157,0.999991416053789,6.440846093124808e-05
-0.483252563685528,-0.483252563685528,1.0000007522822947,6.488342345776103e-05
-0.4829713515639014,-0.4829713515639014,1.000113800853796,6.229934232007305e-05
-0.48258879984350644,-0.48258879984350644,1.0000390171643447,6.45078296376804e-05
-0.4821378600245225,-0.4821378600245225,0.9999190136713254,6.249725705893178e-05
-0.4818077291434747,-0.4818077291434747,0.9999524722706464,6.284622344889231e-05
-0.48124405847192975,-0.48124405847192975,1.0000606455744747,6.386020838182483e-05
-0.48084189550936574,-0.48084189550936574,0.9999158440070129,6.20643059000666e-05
-0.4806750378251309,-0.4806750378251309,0.9999922865470392,6.201871943140902e-05
-0.48040698533659454,-0.48040698533659454,0.9999797397391795,6.392883648891481e-05
-0.48011618248710874,-0.48011618248710874,1.0000660709932936,6.539534426455643e-05
-0.4799204665599973,-0.4799204665599973,1.000064665020276,6.502428499736705e-05
-0.479692691074888,-0.479692691074888,0.9999881652283011,6.544183245433035e-05
-0.4794145178078907,-0.4794145178078907,1.000000219481105,6.390990806354554e-05
-0.479165993675997,-0.479165993675997,0.9999849519316106,6.671342549931185e-05
-0.4789509092224762,-0.4789509092224762,1.000106086461652,6.562581889564091e-05
-0.4785147521943145,-0.4785147521943145,0.99997547051429,6.375541612176983e-05
-0.4780424584096181,-0.4780424584096181,1.0000350503490183,6.321207561325999e-05
-0.47751373494247673,-0.47751373494247673,0.9999811712724455,6.534128329059516e-05
-0.47719675113257837,-0.47719675113257837,1.0000453834159033,6.295392648748155e-05
-0.47648022435532766,-0.47648022435532766,1.0001244095857857,6.52465907353916e-05
-0.4760805631012772,-0.4760805631012772,0.9999814023618139,6.546008206270254e-05
-0.47581043490499725,-0.47581043490499725,1.0000461750133811,6.448633158297652e-05
-0.47560971728307777,-0.47560971728307777,1.000087717894588,6.570465879747779e-05
-0.47511753444196075,-0.47511753444196075,1.0000021667737287,6.548713202517148e-05
-0.47458898670229244,-0.47458898670229244,1.0000522970890002,6.233749163719926e-05
-0.47399014053007704,-0.47399014053007704,1.0000280287856633,6.358077853693076e-05
-0.4736558592347137,-0.4736558592347137,0.9999461131848347,6.602340531983895e-05
-0.47334175504729503,-0.47334175504729503,1.0000622130299872,6.162875805635154e-05
-0.47303051550479724,-0.47303051550479724,0.9998178862763542,6.21816330056273e-05
-0.47268069620913594,-0.47268069620913594,1.0000484633588922,6.208718021504578e-05
-0.47251165255511296,-0.47251165255511296,0.999910406280016,6.69471816445192e-05
-0.47225792716344583,-0.47225792716344583,1.00007086327507,6.454522158852216e-05
-0.4719469753865269,-0.4719469753865269,0.9999654553513565,6.377338527954696e-05
-0.4716261523324647,-0.4716261523324647,0.9999311097416367,6.648766630549113e-05
-0.47130951745784844,-0.47130951745784844,0.9999637139417757,6.287833561474619e-05
-0.4709671304131916,-0.4709671304131916,1.0000337885392074,6.505326159560531e-05
-0.4703586141797132,-0.4703586141797132,0.9999436273185724,6.256959272439885e-05
-0.4698734850397159,-0.4698734850397159,0.9999996148039599,6.386216860548962e-05
-0.46954900154742063,-0.46954900154742063,0.9999391141094887,6.330029210438673e-05
-0.46921745362778894,-0.46921745362778894,0.9999655231155625,6.191626551932898e-05
-0.4689643619538401,-0.4689643619538401,0.9999396100827458,6.609038641878401e-05
-0.4686550311453175,-0.4686550311453175,1.000002844186214,6.446808739540925e-05
-0.4683450440104934,-0.4683450440104934,1.0000243006756133,6.543725994866072e-05
-0.46814126950266655,-0.46814126950266655,0.999964777843571,6.506770114743596e-05
-0.4678941604601278,-0.4678941604601278,0.9999506697768952,6.417429679106568e-05
-0.467784610894887,-0.467784610894887,0.9998904574764327,6.393267818915997e-05
-0.4675052019963914,-0.4675052019963914,0.9999413275471308,6.470358231389024e-05
-0.46711399791092845,-0.46711399791092845,1.0000076207532822,6.563086768210575e-05
-0.4666815092532488,-0.4666815092532488,0.9999852544865637,6.273324853958145e-05
-0.4663329034796334,-0.4663329034796334,0.9999701300532738,6.226142696958694e-05
-0.4660140013336786,-0.4660140013336786,1.0000236026132119,6.495170489262792e-05
-0.465734309401887,-0.465734309401887,1.0000619580752819,6.215945368203154e-05
-0.46541085925709924,-0.46541085925709924,1.0000616483979399,6.275463320595619e-05
-0.4647872692839883,-0.4647872692839883,0.999961959614371,6.507850958189373e-05
-0.46455884676179265,-0.46455884676179265,1.0000973934361224,6.526690132985211e-05
-0.4641441906853288,-0.4641441906853288,0.9999851726420083,6.560993540767859e-05
-0.4638171201404475,-0.4638171201404475,0.9999768325965899,6.771595584185547e-05
-0.46339627498746266,-0.46339627498746266,0.999935003227155,6.378365067276442e-05
-0.4628681596419483,-0.4628681596419483,1.0000205032931906,6.344843726656294e-05
-0.4623031625022122,-0.4623031625022122,1.000062323344557,6.639595004773444e-05
-0.4618681396059401,-0.4618681396059401,1.0001127552085296,6.225379879411868e-05
-0.4611406857642578,-0.4611406857642578,1.0000406585980175,6.43160568866038e-05
-0.46077765204317983,-0.46077765204317983,1.0000090914162896,6.381872711460795e-05
-0.4605637383996509,-0.4605637383996509,0.9999428842946323,6.454166419053613e-05
-0.4603657119907439,-0.4603657119907439,1.000049801488369,6.728998047099596e-05
-0.46011003599342076,-0.46011003599342076,0.9999627782078013,6.564740186144351e-05
-0.4598053464440454,-0.4598053464440454,0.9999818150444252,6.196868755436582e-05
-0.4595098785684968,-0.4595098785684968,0.99998820428481,6.383916502165165e-05
-0.4589518172782846,-0.4589518172782846,1.000026676041347,6.31591738422494e-05
-0.45855808548876664,-0.45855808548876664,1.0000344469056468,6.243670894517435e-05
-0.4582029788383807,-0.4582029788383807,1.0000092677459842,6.40681164750358e-05
-0.45797587998167727,-0.45797587998167727,1.0000588499944851,6.209981733177746e-05
-0.4576032928933273,-0.4576032928933273,0.9999239769281825,6.180782743097446e-05
-0.45737978619290515,-0.45737978619290515,0.9999635999338035,6.453086039084053e-05
-0.4571580672512937,-0.4571580672512937,0.9999483651061564,6.472818534897264e-05
-0.45687620698226966,-0.45687620698226966,1.000020796476726,6.63995152115017e-05
-0.45664903448850963,-0.45664903448850963,0.9999565820840719,6.38692435056588e-05
-0.4564458579392522,-0.4564458579392522,0.9999513285340234,6.489481673667478e-05
-0.4562054330963292,-0.4562054330963292,0.9999182413614995,6.207600030390796e-05
-0.4558184030669509,-0.4558184030669509,1.0001418341476433,6.450213088249747e-05
-0.4555635216864175,-0.4555635216864175,0.9999736250738064,6.387590935812306e-05
-0.4552523476348142,-0.4552523476348142,1.00006834106483,6.288946739632003e-05
-0.45485386065920463,-0.45485386065920463,1.0000376599716874,6.289828876858295e-05
-0.45443776738393354,-0.45443776738393354,1.0000731413283528,6.511803617197783e-05
-0.4540137228221283,-0.4540137228221283,1.0000807233095337,6.246111589660808e-05
-0.45381693591698424,-0.45381693591698424,0.9999191783679704,6.25689272659018e-05
-0.45339513612998417,-0.45339513612998417,0.999975510091432,6.366587332650658e-05
-0.4531699336548627,-0.4531699336548627,1.0000244236975875,6.482021199819778e-05
-0.4528946865502803,-0.4528946865502803,0.9999069561034369,6.543075046766071e-05
-0.452582372710458,-0.452582372710458,1.0000162526455854,6.594755181066075e-05
-0.4522812691029685,-0.4522812691029685,1.0000528748014128,6.727640137064227e-05
-0.4517231575846381,-0.4517231575846381,0.9999247170402328,6.580847885846394e-05
-0.4513044667066424,-0.4513044667066424,0.9999647173140188,6.282932435616865e-05
-0.45085905466621623,-0.45085905466621623,1.0001827767939275,6.45818135852142e-05
-0.450479246116447,-0.450479246116447,0.9999806890042142,6.438769584355924e-05
-0.4501041715950123,-0.4501041715950123,1.0000205304076886,6.214952856904832e-05
-0.4496102990982763,-0.4496102990982763,0.9999946035947576,6.385605604956474e-05
-0.4492081662509008,-0.4492081662509008,0.9999735398455986,6.526145951620076e-05
-0.448886382416822,-0.448886382416822,1.0000788296938237,6.508028060590127e-05
-0.4485155815600592,-0.4485155815600592,1.0000664665815044,6.711524812092959e-05
-0.4482021890427859,-0.4482021890427859,1.000007182933219,6.233997151661362e-05
-0.44777289829435174,-0.44777289829435174,0.999917635945538,6.493730605113167e-05
-0.44738997745371306,-0.44738997745371306,1.0000136434226978,6.292074642924983e-05
-0.44693675691378304,-0.44693675691378304,1.0000925110566183,6.293002847298774e-05
-0.44665269126198837,-0.44665269126198837,0.9999925862495708,6.393860221547058e-05
-0.4462681644028635,-0.4462681644028635,1.0000367212065355,6.19335454870678e-05
-0.4458340444078203,-0.4458340444078203,1.000060864443181,6.386123610849501e-05
-0.44555408888772946,-0.44555408888772946,1.000029892024458,6.487519116096604e-05
-0.44524599297801615,-0.44524599297801615,1.0000710809978317,6.600296914608661e-05
-0.44490827375266234,-0.44490827375266234,1.0001032591224939,6.593406768736572e-05
-0.4445621407168801,-0.4445621407168801,0.9999262132583298,6.265835755514621e-05
-0.4442799431119056,-0.4442799431119056,0.9998960908072231,6.394814140551274e-05
-0.44382605617211085,-0.44382605617211085,1.000021247676109,6.257951554587196e-05
-0.4434029848998762,-0.4434029848998762,0.9999831680383011,6.29792746230187e-05
-0.4430137108451163,-0.4430137108451163,0.9999440440717711,6.240398937457125e-05
-0.44257511247560616,-0.44257511247560616,0.9999249843522691,6.392223979471822e-05
-0.4422214295656886,-0.4422214295656886,0.9999738404709142,6.214503771140043e-05
-0.4418536695986404,-0.4418536695986404,1.0000715596721343,6.49608722707608e-05
-0.44157750114900407,-0.44157750114900407,0.9999403740240762,6.662638335527401e-05
-0.44134437332395465,-0.44134437332395465,0.9999738443542523,6.346380902706198e-05
-0.4411419022930204,-0.4411419022930204,0.9998576068819786,6.648519967855933e-05
-0.4409230679397297,-0.4409230679397297,0.9999759129172752,6.504716714541656e-05
-0.440676741165953,-0.440676741165953,0.9999882769439606,6.45811988369073e-05
-0.4402085631081718,-0.4402085631081718,1.0000132308371403,6.711904247536321e-05
-0.43971603692771166,-0.43971603692771166,1.000014060577366,6.240333015816325e-05
-0.43917544046926194,-0.43917544046926194,0.9999069146956863,6.414862252289159e-05
-0.43877285351845785,-0.43877285351845785,1.0001082941761852,6.396080987126076e-05
-0.4380426154108136,-0.4380426154108136,1.0000079803665187,6.554016796823375e-05
-0.43752173327739,-0.43752173327739,0.9999570039819755,6.526094208834895e-05
-0.43723295057498035,-0.43723295057498035,1.0000180065957047,6.427737288898263e-05
-0.4370063447742723,-0.4370063447742723,0.9999813502983315,6.624516719942131e-05
-0.43642477031389715,-0.43642477031389715,0.999946481581574,6.331524830466256e-05
-0.4360606206479133,-0.4360606206479133,0.9999911838849889,6.346844368714956e-05
-0.435422436321096,-0.435422436321096,1.000078287437277,6.512532816786143e-05
-0.43499929912795776,-0.43499929912795776,0.999884934227885,6.429499488439964e-05
-0.4342411970574176,-0.4342411970574176,0.9998966499328514,6.207644995640253e-05
-0.4340688033560582,-0.4340688033560582,1.0000747203295965,6.566330767248886e-05
-0.43382716797786997,-0.43382716797786997,0.9999174070495853,6.383289280326588e-05
-0.4336861964533455,-0.4336861964533455,0.9999275151025788,6.291095238519652e-05
-0.43341133902431467,-0.43341133902431467,1.0000340506930085,6.681704231303698e-05
-0.43315177323820536,-0.43315177323820536,0.9999673974431227,6.64997401124226e-05
-0.4328457031115249,-0.4328457031115249,0.9999085368816184,6.351650850858502e-05
-0.43253895871312126,-0.43253895871312126,1.000043103291226,6.40618404305891e-05
-0.4320586665031442,-0.4320586665031442,1.0000560652478332,6.258653774589957e-05
-0.4318011642993952,-0.4318011642993952,1.0000950463846305,6.27391001929916e-05
-0.4314715910149971,-0.4314715910149971,0.999842801942938,6.268443135110659e-05
-0.43112330818185,-0.43112330818185,1.0000756818627132,6.33165352598214e-05
-0.43073241349920866,-0.43073241349920866,1.000116303021083,6.179095630207352e-05
-0.43047653827161414,-0.43047653827161414,0.9999598796159344,6.608731456744622e-05
-0.4301624558902404,-0.4301624558902404,0.9999758392503709,6.447584864529393e-05
-0.4298645362716343,-0.4298645362716343,1.0000599916650013,6.54422451802928e-05
-0.4296857374574756,-0.4296857374574756,0.9999794180143393,6.337013509287326e-05
-0.42940525639642146,-0.42940525639642146,1.0000003321259272,6.354044492736876e-05
-0.42921216188478867,-0.42921216188478867,1.000033128604361,6.555244913075884e-05
-0.4288524696006789,-0.4288524696006789,0.9999324841679794,6.518068023281008e-05
-0.4284627348308277,-0.4284627348308277,0.9999329126008355,6.376343372844176e-05
-0.42803925125626846,-0.42803925125626846,1.0000435862671782,6.294107690875938e-05
-0.42766176024379093,-0.42766176024379093,1.000079954739523,6.379422313306539e-05
-0.42732403940099173,-0.42732403940099173,0.9999853036421186,6.405445605154166e-05
-0.42703952978772575,-0.42703952978772575,0.9999897913361743,6.222705412904356e-05
-0.42643648095472597,-0.42643648095472597,1.0000370740592686,6.444677090862148e-05
-0.4260833766013093,-0.4260833766013093,0.9999224517819496,6.394417094878544e-05
-0.42581932957837126,-0.42581932957837126,0.9999083430037411,6.557449512477582e-05
-0.4255710987941711,-0.4255710987941711,1.000027736231748,6.486036756208858e-05
-0.42527171723995705,-0.42527171723995705,0.9999919538544171,6.694657646653514e-05
-0.42482934352592566,-0.42482934352592566,1.0001347804972043,6.384473964656681e-05
-0.424292951526877,-0.424292951526877,0.9998258555349816,6.442576713464634e-05
-0.42380749436561016,-0.42380749436561016,1.0000732152421765,6.591076448016947e-05
-0.4233141126569535,-0.4233141126569535,0.9999975955361211,6.32556807781635e-05
-0.42261507691655426,-0.42261507691655426,0.9999710265679411,6.55666420144807e-05
-0.4222524064258323,-0.4222524064258323,1.0000517652874574,6.426200905505517e-05
-0.4220857766238623,-0.4220857766238623,0.9999823907951428,6.470395805633851e-05
-0.4218312266501016,-0.4218312266501016,0.9999595825888751,6.570347702902018e-05
-0.4215894828630553,-0.4215894828630553,0.9999891142342211,6.54582303154067e-05
-0.42127727849947405,-0.42127727849947405,0.9999678977028792,6.185493800114862e-05
-0.42096221785322996,-0.42096221785322996,0.9999910352101631,6.323381919368632e-05
-0.42056617402922714,-0.42056617402922714,0.9999776288433289,6.276664651582521e-05
-0.420142037171172,-0.420142037171172,0.9999737070948029,6.267878459595766e-05
-0.419909589827148,-0.419909589827148,0.9999423854477513,6.439468773331913e-05
-0.41970395887328776,-0.41970395887328776,1.0000408366155369,6.334404110357105e-05
-0.41929262297271636,-0.41929262297271636,1.0000284722218922,6.159725943077691e-05
-0.41896392833805296,-0.41896392833805296,1.0000575299534902,6.451277837696185e-05
-0.41870911387813975,-0.41870911387813975,0.9999324304132857,6.513317411630068e-05
-0.41826968617242527,-0.41826968617242527,0.999930940430718,6.748068547295137e-05
-0.4180672257447441,-0.4180672257447441,0.9999235247007107,6.398171889644687e-05
-0.4178062248363858,-0.4178062248363858,1.0000528667042707,6.387820550431142e-05
-0.4175948209260241,-0.4175948209260241,1.0000524588479998,6.226394505060163e-05
-0.41722388378257164,-0.41722388378257164,0.9999516495923622,6.3842558818248e-05
-0.4168565706531808,-0.4168565706531808,0.9999639168116052,6.421945221564072e-05
-0.4163489716331242,-0.4163489716331242,1.0000489506972918,6.285514973080654e-05
-0.41586008110098194,-0.41586008110098194,1.0000512324189468,6.492144948552754e-05
-0.41543672027473805,-0.41543672027473805,1.00006856864429,6.263937005436338e-05
-0.415046994160366,-0.415046994160366,1.0000179119985095,6.429394991089715e-05
-0.4147012052206264,-0.4147012052206264,1.0000284433572098,6.649617489718832e-05
-0.41441006382810885,-0.41441006382810885,1.0000615916549482,6.544507488274613e-05
-0.414111677530309,-0.414111677530309,0.999947323224126,6.530172845976884e-05
