time,time,flux,flux_err
-0.49872442661217065,-0.49872442661217065,1.0001852626961858,0.0009029427270090789
-0.4965424716065172,-0.4965424716065172,0.9997621804072597,0.000902991570154206
-0.4949544112983858,-0.4949544112983858,1.0001941207625409,0.0008267822253313328
-0.49332069549273,-0.49332069549273,1.0004859523967224,0.0008231554866103407
-0.49184680450707674,-0.49184680450707674,0.9996236728577251,0.0008262899023764026
-0.4905226653063437,-0.4905226653063437,1.000505755430402,0.0008292462648416945
-0.4890025334490929,-0.4890025334490929,0.9997934981965273,0.0008232312296222385
-0.4877132031309884,-0.4877132031309884,1.000782506566488,0.0008294672325251638
-0.48595174005022274,-0.48595174005022274,0.9994523440088798,0.0008304775166657486
-0.4843619970662985,-0.4843619970662985,0.999825163644948,0.0008212261745865503
-0.4827609939064132,-0.4827609939064132,0.9985227546195088,0.0008375546521765828
-0.48120625168376135,-0.48120625168376135,0.9997431255576739,0.0008453357395628253
-0.47984192778531,-0.47984192778531,0.9997084049083698,0.0008213574644635009
-0.4781858254747931,-0.4781858254747931,0.9983098761559075,0.0008562273504107905
-0.4766881165560335,-0.4766881165560335,0.9997764532607532,0.0008657350055758641
-0.4749764648790006,-0.4749764648790006,1.0002138336888213,0.0008284057658099226
-0.473231001709064,-0.473231001709064,1.0001198793217136,0.0008289881902696619
-0.47190308337885656,-0.47190308337885656,0.999949424638061,0.0008214272847849171
-0.47016793044022054,-0.47016793044022054,0.9994772310478126,0.0008324878425502991
-0.46826761066186007,-0.46826761066186007,1.0002010424560819,0.0008373101754307604
-0.46656720647297334,-0.46656720647297334,0.9999747563987242,0.0008429387603117787
-0.46492701783572554,-0.46492701783572554,0.9997050496817159,0.0008219662393661837
-0.4632998397719348,-0.4632998397719348,1.0008423758037979,0.0008491760098650235
-0.46139496202522423,-0.46139496202522423,1.000021203956687,0.0008556911803145927
-0.4599447539745597,-0.4599447539745597,1.0004278378318134,0.0008638852642090409
-0.4584481360172504,-0.4584481360172504,1.0004884897594921,0.0008219912075822899
-0.4569877539135632,-0.4569877539135632,0.9993115776430601,0.0008223613031698252
-0.455192775616888,-0.455192775616888,1.0005676325276363,0.0008236506828488433
-0.4536393824833794,-0.4536393824833794,1.0008230419842927,0.0008226169844679316
-0.452145677372755,-0.452145677372755,1.00017391325899,0.0008241193669444102
-0.4507780226849718,-0.4507780226849718,1.000604935012947,0.0008252959783740296
-0.44917239622154737,-0.44917239622154737,0.9991870561368577,0.0008222138440902675
-0.4478567793572438,-0.4478567793572438,1.000155699977933,0.0008263301723525178
-0.44663756623049267,-0.44663756623049267,0.9989486320383353,0.0008219299722476645
-0.4448750484312768,-0.4448750484312768,0.999911722538364,0.000827374136451303
-0.4433531860995572,-0.4433531860995572,0.9996557551703198,0.0008306442970727745
-0.4416004171813256,-0.4416004171813256,0.9994941734862891,0.0008331185178811265
-0.44037673955899664,-0.44037673955899664,0.9996075207849218,0.0008243849250146471
-0.4387270416991669,-0.4387270416991669,0.9999997019483968,0.000834492477871813
-0.43750127857056215,-0.43750127857056215,0.9987890239295698,0.0008207758782380817
-0.435918733656581,-0.435918733656581,0.9995817255382476,0.0008428698031689479
-0.4343427038154914,-0.4343427038154914,0.9997876322585709,0.0008515371415263467
-0.4332513656525407,-0.4332513656525407,1.0000656794576728,0.0008274358495072834
-0.43155832123447907,-0.43155832123447907,0.9993050909668376,0.000859901813361227
-0.4301004943117732,-0.4301004943117732,1.000680355845119,0.0008275250379451883
-0.4285073003949947,-0.4285073003949947,1.0006694236401472,0.0008292537460065967
-0.426369824995345,-0.426369824995345,0.9996856010633959,0.0008309673682719918
-0.42468733413115844,-0.42468733413115844,0.9993691524887025,0.0008214247991726505
-0.42316768911405234,-0.42316768911405234,0.9995500060304112,0.0008352012967235169
-0.42140619277924996,-0.42140619277924996,0.999132310460736,0.0008391506882086117
-0.4197102567341062,-0.4197102567341062,1.0006013935720237,0.0008468347443755832
-0.41807853589562,-0.41807853589562,0.9993741423114058,0.0008227688324585515
-0.4164257177282707,-0.4164257177282707,1.0008661435149626,0.0008512177814227346
-0.4144074879368418,-0.4144074879368418,0.9998979972991598,0.000821742201453165
-0.4127213102663518,-0.4127213102663518,1.0005070588321132,0.0008709856928079563
-0.4115556533448398,-0.4115556533448398,0.9994124243427178,0.0008222004720785759
-0.4096668055586633,-0.4096668055586633,1.000195570906932,0.0008234423195407978
-0.4080491010317928,-0.4080491010317928,1.0007726774788286,0.0008241276944841041
-0.405976053471386,-0.405976053471386,0.9984778322021048,0.0008263080400200988
-0.40446662142348944,-0.40446662142348944,0.9993945603507971,0.0008227355484821585
-0.40313249708124205,-0.40313249708124205,0.9995458735915757,0.0008253480548881658
-0.4014045337040443,-0.4014045337040443,0.9992959708821779,0.0008291971336612138
-0.40002152173110517,-0.40002152173110517,0.9987230680991088,0.0008232814131385252
-0.3986357682806556,-0.3986357682806556,0.9998438911191497,0.0008274259551380241
-0.39703530773404055,-0.39703530773404055,1.0006623484029842,0.0008235735925796012
-0.3958542594060418,-0.3958542594060418,1.0004925480156883,0.0008300640531420459
-0.3939161241389229,-0.3939161241389229,0.9991292815129984,0.000831076049448317
-0.39228100667533,-0.39228100667533,1.0010533675586288,0.0008387011297547326
-0.3908879439768498,-0.3908879439768498,0.9996827315468231,0.000821148227747485
-0.3892792646933231,-0.3892792646933231,1.0001897289325348,0.0008468545275768655
-0.3878499620084767,-0.3878499620084767,0.9995335011258423,0.0008531045449562555
-0.3863947041114443,-0.3863947041114443,0.9999524231352801,0.0008276104926837138
-0.38462467572826425,-0.38462467572826425,1.0001317540013368,0.0008681815608059668
-0.3832131019909866,-0.3832131019909866,0.9997362560221641,0.0008283403317786602
-0.3815659051440889,-0.3815659051440889,0.9984539464879509,0.0008290795282123811
-0.37977911152702293,-0.37977911152702293,0.9999415867935454,0.0008329919534337071
-0.37835807832889257,-0.37835807832889257,0.9996779531936497,0.000821414132297241
-0.37687852440431013,-0.37687852440431013,1.001376916030044,0.0008408075808914806
-0.3755193277800572,-0.3755193277800572,0.9995062994033981,0.0008242324963602802
-0.3739371975068934,-0.3739371975068934,1.0010289941115889,0.0008449844608879939
-0.3721536346623907,-0.3721536346623907,0.9990137263194828,0.0008490615172798862
-0.37048185200983424,-0.37048185200983424,0.9993879002116117,0.0008581845848983349
-0.3689069210944581,-0.3689069210944581,1.0001841030080145,0.0008654030115379588
-0.36740244303655345,-0.36740244303655345,1.0004741861412854,0.0008218049731604869
-0.3656851562715019,-0.3656851562715019,1.0002823607000355,0.0008238521156121858
-0.36385350092314184,-0.36385350092314184,1.0001274182057787,0.0008242145082586036
-0.3623122234857874,-0.3623122234857874,0.9997459474617759,0.0008977262605198982
-0.3610857209510868,-0.3610857209510868,1.0001494115424028,0.0008239086629355146
-0.35975106117111866,-0.35975106117111866,0.9998988756202974,0.0008226399101276566
-0.35809844053874257,-0.35809844053874257,0.999114555707372,0.0008261458036321982
-0.35652188692620257,-0.35652188692620257,0.9993909827983426,0.0008268430088674388
-0.3552876777554047,-0.3552876777554047,0.9996961294047193,0.0008223388828956138
-0.35385789293941344,-0.35385789293941344,1.0003039276100616,0.0008273183593842576
-0.3523077625242877,-0.3523077625242877,0.9996188173172185,0.0008320506525437395
-0.3505370753031457,-0.3505370753031457,0.9996077722216414,0.0008302612988157264
-0.3488997290696716,-0.3488997290696716,1.001158838279008,0.0008209711477951325
-0.3471639124734793,-0.3471639124734793,1.0009347312153607,0.0008363955468822006
-0.3458101374402759,-0.3458101374402759,1.0004589954626764,0.0008393848314200092
-0.34438015878695294,-0.34438015878695294,0.9997881385677655,0.0008256570585074817
-0.3425678587474977,-0.3425678587474977,1.000190731916463,0.0008475471872746705
-0.3412603698816383,-0.3412603698816383,0.99933972207284,0.000867741898814558
-0.33979173861152956,-0.33979173861152956,0.9987637275395427,0.0008278330121454537
-0.3379880301450612,-0.3379880301450612,0.9999625899348326,0.0008217567065844872
-0.3364358506471035,-0.3364358506471035,1.0006374807691734,0.0008293833685080902
-0.33479693305271213,-0.33479693305271213,0.9995650662738236,0.0008315247133571039
-0.3326478821138153,-0.3326478821138153,1.0011527062750807,0.0008353641770431494
-0.33117093911132545,-0.33117093911132545,0.9989847260278971,0.0008216365450665607
-0.32945335095137124,-0.32945335095137124,1.000897032054889,0.0008412857812531357
-0.32767540830536745,-0.32767540830536745,0.9991036962783214,0.0008467722621451589
-0.3259974789994885,-0.3259974789994885,0.999446765178336,0.0008532225619992402
-0.32442224769474703,-0.32442224769474703,1.00023012323437,0.000861202666393595
-0.32270090708334465,-0.32270090708334465,0.9999085120960356,0.0008223610973849873
-0.3210455403852393,-0.3210455403852393,0.9994262351041103,0.0008728761292640484
-0.3195116817805683,-0.3195116817805683,1.0006686047993076,0.0008243202284461753
-0.3180608950075111,-0.3180608950075111,0.9995328899674867,0.0008211472685953436
-0.3164003602039884,-0.3164003602039884,1.0004143892999664,0.0008251355788581381
-0.31495676754420854,-0.31495676754420854,0.9996693418116915,0.000825158763824319
-0.31335337417112896,-0.31335337417112896,0.9987946441681798,0.000822238424100749
-0.3120278611211688,-0.3120278611211688,1.0002041349410074,0.000825363948675424
-0.3105210921698017,-0.3105210921698017,1.0004576570183155,0.0008289068844336847
-0.30870338645472656,-0.30870338645472656,0.9994069257582625,0.0008237231110489043
-0.3073003902449273,-0.3073003902449273,0.9989151983416873,0.0008282911945719675
-0.30568000030034453,-0.30568000030034453,1.0000607150524274,0.0008322328958128209
-0.3045532799733337,-0.3045532799733337,1.000598615265063,0.0008242674103269506
-0.3029059084219625,-0.3029059084219625,1.0006056825428153,0.0008340682175774607
-0.3016784001883934,-0.3016784001883934,0.9987973237312,0.0008209775174376453
-0.30008879405941113,-0.30008879405941113,1.0004247383039713,0.0008406027844026548
-0.29852093441295435,-0.29852093441295435,0.9998871877531915,0.0008480365308034508
-0.2971551457507303,-0.2971551457507303,1.0001351499064843,0.0008208195648684044
-0.29552044343872697,-0.29552044343872697,1.0003711816185858,0.0008624404156533976
-0.29390389217878693,-0.29390389217878693,1.0012811367538843,0.0008203864185465876
-0.29228361201385267,-0.29228361201385267,0.9999348175673732,0.0008282858807650917
-0.2903118934700615,-0.2903118934700615,1.001032372306205,0.0008308182189984842
-0.2884404308977537,-0.2884404308977537,0.9991430741851575,0.0008337643402717345
-0.28701475769485113,-0.28701475769485113,1.0001865732170714,0.0008211952700502564
-0.28537156406528086,-0.28537156406528086,0.9999025022105711,0.0008384446939512927
-0.28343676374934146,-0.28343676374934146,0.9995751587442268,0.0008449212441489794
-0.2819297877111239,-0.2819297877111239,0.9998904418921251,0.0008221653116283638
-0.2802248450665502,-0.2802248450665502,1.0000488676798374,0.0008523127967621664
-0.27835271401127104,-0.27835271401127104,0.9992981436687112,0.0008210868763497764
-0.2771688844266464,-0.2771688844266464,0.9992718222226458,0.0008680269058725338
-0.27575684879266193,-0.27575684879266193,0.9998773145606832,0.0008220370119964004
-0.27393046279321426,-0.27393046279321426,0.9999629171391005,0.0008231653096027122
-0.27221869403438176,-0.27221869403438176,0.9991123862909779,0.0008232521220804745
-0.2705767200997798,-0.2705767200997798,1.0008071394449942,0.000825625559048342
-0.26887941416644023,-0.26887941416644023,0.9981281378984026,0.0008223265693111525
-0.26752930650254714,-0.26752930650254714,1.0000411092066006,0.0008251756584098761
-0.2657927272492088,-0.2657927272492088,1.0003191458367753,0.0008281969908836217
-0.26444900641363345,-0.26444900641363345,0.9997737293566328,0.0008208720122658269
-0.2630361496892874,-0.2630361496892874,1.0001387966028659,0.0008295877367565333
-0.2615497656384832,-0.2615497656384832,1.0003368818152814,0.000823491600323659
-0.2603586086246651,-0.2603586086246651,0.9999362432369402,0.00082968835203457
-0.258437398901151,-0.258437398901151,0.9994773861842342,0.0008303070010454433
-0.2571974640406552,-0.2571974640406552,0.999343821574094,0.0008204821696726802
-0.25559502657997657,-0.25559502657997657,1.0001302547563873,0.0008372424039760573
-0.25404193119466073,-0.25404193119466073,1.000219741280078,0.0008453093061943695
-0.25267778947454644,-0.25267778947454644,0.9997569928874123,0.0008214315609329139
-0.2510190070606768,-0.2510190070606768,0.9990608184103212,0.0008561281323242404
-0.24952356515132124,-0.24952356515132124,1.0011666815170008,0.0008655564668033722
-0.2478130856557982,-0.2478130856557982,0.9999645016171914,0.0008283273790257589
-0.24606467195408185,-0.24606467195408185,1.0007613480644066,0.0008288290543712719
-0.2447389932029182,-0.2447389932029182,0.9999118223390553,0.000821699175242609
-0.24300443119718693,-0.24300443119718693,1.0003184863130425,0.0008323654541500771
-0.2411019479841343,-0.2411019479841343,0.9994929538982369,0.0008367429587266145
-0.23940237173374043,-0.23940237173374043,0.999991181936257,0.0008425778097530033
-0.23776274000992997,-0.23776274000992997,1.000483452326838,0.0008215103702296958
-0.2361351268889848,-0.2361351268889848,0.9999499299966713,0.0008484764254879996
-0.2342294145055348,-0.2342294145055348,1.0002884619484678,0.0008544504539254259
-0.23277953476645052,-0.23277953476645052,0.9999579048579813,0.0008634607754653978
-0.23128456862032182,-0.23128456862032182,1.000512009665432,0.0008223802853883343
-0.22944045105832628,-0.22944045105832628,1.0004621886130614,0.0008235281813566498
-0.22772419578832342,-0.22772419578832342,0.9998026047466478,0.0008239690486814895
-0.22616163185593904,-0.22616163185593904,1.000807815695864,0.0008215777807748178
-0.22468702683399897,-0.22468702683399897,0.9995325030929513,0.0008237664580946265
-0.22329869363165927,-0.22329869363165927,1.0000651272955579,0.0008261777782628286
-0.22177027460566023,-0.22177027460566023,0.9998289382612761,0.0008222981053188425
-0.22046071432705502,-0.22046071432705502,0.9996678334712188,0.0008254920957639821
-0.21872471816168398,-0.21872471816168398,1.0012535482655387,0.0008296523831656693
-0.217076560544956,-0.217076560544956,1.000374863946886,0.0008235160179798215
-0.21559207268001046,-0.21559207268001046,1.0006860926714172,0.0008287012103858309
-0.21378815287898761,-0.21378815287898761,0.9990121775806464,0.0008320949895755653
-0.21261112652136943,-0.21261112652136943,1.000155676037181,0.0008242832968762262
-0.2111593042864115,-0.2111593042864115,1.0002018671176436,0.0008344948593753973
-0.20996531105047325,-0.20996531105047325,1.0007294183164777,0.0008382187034941017
-0.20855612216400915,-0.20855612216400915,0.9996993275381131,0.0008253311570340663
-0.20680562456254847,-0.20680562456254847,0.9998126343609421,0.0008498816539282942
-0.2058502494750428,-0.2058502494750428,0.9997873851591284,0.0008270756204519527
-0.2043921602598857,-0.2043921602598857,1.0014657157486897,0.000859234529394862
-0.2032193581224419,-0.2032193581224419,1.0003318104671588,0.0008272877018574117
-0.20151332585082854,-0.20151332585082854,0.9987919435835673,0.0008287920689246072
-0.19966959069570295,-0.19966959069570295,0.9987120910576763,0.0008302492039504826
-0.19787239757715724,-0.19787239757715724,0.999829799990455,0.0008208853019989514
-0.1964085711108055,-0.1964085711108055,1.0008959984534258,0.0008349870281936075
-0.19445887225010666,-0.19445887225010666,1.0012328086482292,0.000839478173312496
-0.19296802980388747,-0.19296802980388747,0.9996702193408492,0.000821835146098643
-0.1912563214515103,-0.1912563214515103,1.0010132696167842,0.0008472681718177343
-0.1894679576915223,-0.1894679576915223,0.9994456479963212,0.0008514518362139169
-0.18772830344969407,-0.18772830344969407,0.9997492884891857,0.0008226558904732966
-0.1858612947864458,-0.1858612947864458,0.9999341019284073,0.0008700223356799552
-0.18441130846185844,-0.18441130846185844,1.0007450608578616,0.0008221864899051869
-0.18250122393219498,-0.18250122393219498,1.0000004399665898,0.0008233618159148562
-0.18088301195966777,-0.18088301195966777,1.000150657211121,0.000823944316501861
-0.17881075882323785,-0.17881075882323785,0.9994489566323754,0.0008257224903618656
-0.1773036626065732,-0.1773036626065732,1.0013121961269174,0.0008225900384347948
-0.175966484779201,-0.175966484779201,0.9995468941086324,0.0008245867204494904
-0.17423953028628603,-0.17423953028628603,0.9999284624373228,0.0008290039963916215
-0.17285862385760992,-0.17285862385760992,1.00022192704958,0.0008228259795159943
-0.17146961949183606,-0.17146961949183606,0.9997658255755045,0.000827828877679365
-0.16987262859620386,-0.16987262859620386,1.0002167200726626,0.0008232766936083957
-0.1686889013813925,-0.1686889013813925,0.9995005587489348,0.0008296933109673895
-0.16675068021577316,-0.16675068021577316,1.0000730726907692,0.0008309321822353276
-0.16511590639856877,-0.16511590639856877,1.0009034834755286,0.0008380921784475063
-0.16372386354923946,-0.16372386354923946,1.0000039712231585,0.0008213675520608364
-0.16211248710314977,-0.16211248710314977,1.0016871612128886,0.0008463463323017896
-0.16068595652468504,-0.16068595652468504,1.0012678710783338,0.0008525972299201651
-0.15922981879120926,-0.15922981879120926,0.9996814303141534,0.0008274915705475632
-0.15745847453799797,-0.15745847453799797,1.0002547177883883,0.0008676886947368524
-0.15604949002154173,-0.15604949002154173,1.0011418866270212,0.0008285788129406968
-0.15440139577403897,-0.15440139577403897,0.9996497893457781,0.0008298657009908645
-0.15261378823779523,-0.15261378823779523,0.9995228567259726,0.0008329295156230982
-0.15119391443004132,-0.15119391443004132,0.9994331657639413,0.000821156419803614
-0.149548435320321,-0.149548435320321,1.0000726612115396,0.000837810269279964
-0.1476094874116825,-0.1476094874116825,1.0009803915686557,0.0008433346423040433
-0.14610699226032012,-0.14610699226032012,1.0001885841052198,0.000822142661174434
-0.1444001875759568,-0.1444001875759568,0.9998690241594833,0.000850422061580879
-0.14260639857675414,-0.14260639857675414,0.9997078120891123,0.0008563056126502289
-0.14113468176365132,-0.14113468176365132,0.999925823396892,0.0008648426099014722
-0.13961397865932668,-0.13961397865932668,0.9994344162546254,0.0008239380939152272
-0.13776013826136477,-0.13776013826136477,1.0000048351449506,0.0008213903114854043
-0.13607493338931817,-0.13607493338931817,0.9998009177834485,0.0008236448080667508
-0.13446172825060784,-0.13446172825060784,0.9996115245880709,0.0008251967461647761
-0.13306070590624586,-0.13306070590624586,0.9989425023978982,0.0008228501371975378
-0.13169822196214226,-0.13169822196214226,1.0004850299248305,0.0008254651985584671
-0.12997316901746672,-0.12997316901746672,0.9992833764982985,0.0008276380217516725
-0.12863032619061415,-0.12863032619061415,0.9996004990728744,0.0008211969285534812
-0.1272087728168117,-0.1272087728168117,1.0003103890576344,0.0008286027384431276
-0.1257312755114981,-0.1257312755114981,0.9993576635159084,0.0008236206620535487
-0.12425245128833921,-0.12425245128833921,1.0005968288713263,0.0008296742219801551
-0.12244627322361339,-0.12244627322361339,1.000999087108278,0.0008326895299387597
-0.12144910434726626,-0.12144910434726626,1.0011895953565406,0.0008244423502968036
-0.11999804204097017,-0.11999804204097017,0.9997133345758712,0.0008359841649243296
-0.1186453960268409,-0.1186453960268409,0.9998472025308697,0.0008389392018430437
-0.11721534841926769,-0.11721534841926769,1.0003725121872185,0.0008257474587990768
-0.11540174956317059,-0.11540174956317059,1.0002922113987767,0.0008471129052724017
