time,time,flux,flux_err
-0.49678050955453834,-0.49678050955453834,0.9999861238688975,2.4968189945204705e-05
-0.49665356924489795,-0.49665356924489795,1.0000451079007473,2.4912166821666942e-05
-0.4965266289134925,-0.4965266289134925,0.9999145999515556,2.4869324437961684e-05
-0.49639968856253364,-0.49639968856253364,1.0001042776720124,2.4839078966165835e-05
-0.49628332655891577,-0.49628332655891577,0.9998848352341755,2.265136730797697e-05
-0.49617754290749333,-0.49617754290749333,1.0001106447796344,2.2641488747416503e-05
-0.4960717592460339,-0.4960717592460339,0.9999780833698381,2.2628425646008522e-05
-0.4959659755754453,-0.4959659755754453,1.0000837090240409,2.262258218206817e-05
-0.49585748383420913,-0.49585748383420913,0.9998969777289283,2.2605053436358777e-05
-0.4957459455148404,-0.4957459455148404,1.0000816606363863,2.2622806026218935e-05
-0.4956401618209506,-0.4956401618209506,0.9999805175103982,2.2616448016526186e-05
-0.4955338703590103,-0.4955338703590103,1.000051879054398,2.261756386433881e-05
-0.49541860843282315,-0.49541860843282315,0.9999798276577435,2.26276980897328e-05
-0.49531011665836255,-0.49531011665836255,1.0000013206525886,2.2629365367519005e-05
-0.49520433294220645,-0.49520433294220645,0.9998920423531183,2.263916643393805e-05
-0.4950985492218088,-0.4950985492218088,0.9999385739070086,2.2645619066187257e-05
-0.494992765497652,-0.494992765497652,1.0000921202251185,2.2656168230055647e-05
-0.4948869817700331,-0.4948869817700331,1.000029266870866,2.2662714226999674e-05
-0.4947811980393075,-0.4947811980393075,0.999974370281971,2.2667688508757967e-05
-0.4946754143057802,-0.4946754143057802,1.0000330045248682,2.2677780504039237e-05
-0.49456963056974157,-0.49456963056974157,1.0000200764183576,2.2677828820792034e-05
-0.4944638468314338,-0.4944638468314338,1.0000396435196424,2.2683113669369865e-05
-0.4943580630911114,-0.4943580630911114,1.0000007936882127,2.269464138970322e-05
-0.494252279349001,-0.494252279349001,1.000037760581542,2.2699775563917057e-05
-0.4941464956052949,-0.4941464956052949,0.9999683129077452,2.2703378227984505e-05
-0.4940407118602055,-0.4940407118602055,1.0000792475149844,2.2710232465407297e-05
-0.4939349281138819,-0.4939349281138819,0.9998375709669778,2.2715031112805158e-05
-0.49382914436650155,-0.49382914436650155,1.0001106124656756,2.2717026559620256e-05
-0.4937233606182341,-0.4937233606182341,0.9998348617457685,2.2720251046558764e-05
-0.49361757686918006,-0.49361757686918006,0.9999565554675645,2.2725307110637868e-05
-0.4935117931195011,-0.4935117931195011,0.9999910634157185,2.2720624683074995e-05
-0.49340600936934714,-0.49340600936934714,0.9999862202573437,2.2719239293616383e-05
-0.4933002256187818,-0.4933002256187818,1.0000648374383048,2.271108232973473e-05
-0.4931944418679327,-0.4931944418679327,0.9999515865414403,2.270620220452934e-05
-0.4930886581169066,-0.4930886581169066,1.000017668998876,2.270067019130308e-05
-0.49298287436579374,-0.49298287436579374,1.0000291265681702,2.2692724623688668e-05
-0.4928770906146752,-0.4928770906146752,1.0000161502579394,2.2686409359410135e-05
-0.4927713068636551,-0.4927713068636551,0.9999543406018768,2.2677919457584956e-05
-0.49266552311278533,-0.49266552311278533,1.000062485824325,2.2671363436798635e-05
-0.4925597393621558,-0.4925597393621558,0.999971171833451,2.2657493889969212e-05
-0.4924539556118246,-0.4924539556118246,1.00001611525786,2.2642939731393973e-05
-0.49234817186185537,-0.49234817186185537,0.9998977856965992,2.2623922589487944e-05
-0.49224238811233223,-0.49224238811233223,1.0000148740366837,2.2609650210857737e-05
-0.49213660436329204,-0.49213660436329204,1.000041259831465,2.259236778367149e-05
-0.4920308206148121,-0.4920308206148121,1.0000233440929638,2.257455182869816e-05
-0.49192503686686423,-0.49192503686686423,0.9999840136305235,2.255682651047749e-05
-0.49181925311958336,-0.49181925311958336,0.9999921416212793,2.2543134971029522e-05
-0.4917134693729892,-0.4917134693729892,0.9999942904714991,2.2529444747931456e-05
-0.49160768562711893,-0.49160768562711893,1.0000031075956053,2.251965168338756e-05
-0.49150190188201537,-0.49150190188201537,0.999909126012118,2.2509646987223373e-05
-0.49139611813773454,-0.49139611813773454,0.9999668670027069,2.2502860313789408e-05
-0.49129033439427694,-0.49129033439427694,1.0000572731297135,2.2496538860807215e-05
-0.49118455065170574,-0.49118455065170574,1.0000307112856819,2.24944175846374e-05
-0.49107876691004204,-0.49107876691004204,0.9999122866061324,2.24974428849543e-05
-0.49097298316930116,-0.49097298316930116,1.0000507455781382,2.2505601248305658e-05
-0.4908671994295391,-0.4908671994295391,1.0000115237258798,2.2512344253268772e-05
-0.4907614156907769,-0.4907614156907769,1.000084197972574,2.2523007256440326e-05
-0.490655631953042,-0.490655631953042,0.9999521285280016,2.253200944723395e-05
-0.49054984821636544,-0.49054984821636544,0.9999850230707017,2.254366778247366e-05
-0.4904440644807456,-0.4904440644807456,1.000024749528547,2.2557354506460975e-05
-0.49033828074624636,-0.49033828074624636,1.0000019412756476,2.2568573304652136e-05
-0.490232497012847,-0.490232497012847,0.9999471094433782,2.2579883692851332e-05
-0.49012671328060353,-0.49012671328060353,1.0000684904993598,2.2594693846147364e-05
-0.49002092954949517,-0.49002092954949517,0.999979179634684,2.260621631868947e-05
-0.48991514581960677,-0.48991514581960677,1.0000053061880083,2.2619285006443747e-05
-0.48980936209088066,-0.48980936209088066,1.0000169036244866,2.263319804460415e-05
-0.48970357836339673,-0.48970357836339673,1.0000274658393338,2.2646024980900154e-05
-0.48959779463713266,-0.48959779463713266,1.0000371103239771,2.2656522643392955e-05
-0.4894920109121175,-0.4894920109121175,0.9999628763047186,2.266383369516177e-05
-0.48938622718835045,-0.48938622718835045,1.000034584863856,2.2673609146775784e-05
-0.4892804434658739,-0.4892804434658739,0.9999245149609166,2.2680980265615296e-05
-0.4891746597447108,-0.4891746597447108,1.0000565481859283,2.268911249867767e-05
-0.4890688760248375,-0.4890688760248375,0.9999158574530689,2.269106771923213e-05
-0.48896309230627627,-0.48896309230627627,1.0000353220705454,2.2699107932611573e-05
-0.4888573085890565,-0.4888573085890565,0.999991388697558,2.270464851328867e-05
-0.4887515248731772,-0.4887515248731772,1.0000328412532808,2.271028031254276e-05
-0.4886457411586596,-0.4886457411586596,1.0000065060978218,2.2712943738350118e-05
-0.48853995744549755,-0.48853995744549755,0.9999630016172013,2.2713171673170855e-05
-0.48843417373372483,-0.48843417373372483,1.0000213535193299,2.2715376929475586e-05
-0.48832839002333567,-0.48832839002333567,0.9999103159828586,2.271257617290466e-05
-0.4882226063143717,-0.4882226063143717,1.0000161157741334,2.2709915363448833e-05
-0.48811682260676326,-0.48811682260676326,0.9999878553999821,2.2704149047657867e-05
-0.4880110389005944,-0.4880110389005944,1.000010532187383,2.2699655238515485e-05
-0.4879052551958377,-0.4879052551958377,0.9999795761927892,2.2693254553603136e-05
-0.487799471492535,-0.487799471492535,0.9999462508322197,2.2686432946887745e-05
-0.487693687790672,-0.487693687790672,1.0000717194533508,2.2680057095045498e-05
-0.4875879040902481,-0.4875879040902481,0.9999826289785687,2.266822921408093e-05
-0.4874821203913152,-0.4874821203913152,0.9998083117224184,2.2654039515093583e-05
-0.48737633669382846,-0.48737633669382846,0.9999742493809691,2.264143663939866e-05
-0.48726581388832935,-0.48726581388832935,0.9999455689964256,2.2621695253388192e-05
-0.48713514986908174,-0.48713514986908174,1.0000895031939296,2.2596139960108046e-05
-0.48702936617645315,-0.48702936617645315,1.0000214738953885,2.258117734755546e-05
-0.48692358248531475,-0.48692358248531475,1.0000401236222731,2.2566651306315857e-05
-0.4868177987957161,-0.4868177987957161,1.0000404501739688,2.255155906815652e-05
-0.48671201510758627,-0.48671201510758627,0.9999520166863889,2.2535153110847826e-05
-0.4866062314210165,-0.4866062314210165,1.0001000957984694,2.2524958852939895e-05
-0.4865004477359289,-0.4865004477359289,0.9999435020543569,2.2512648718857723e-05
-0.48639466405238674,-0.48639466405238674,0.9999812016165036,2.250384692702608e-05
-0.4862888803704063,-0.4862888803704063,1.0000309608951898,2.2497994757118713e-05
-0.48618309668991594,-0.48618309668991594,0.9999556044116537,2.2493077833487783e-05
-0.48607731301099266,-0.48607731301099266,1.000033414368675,2.2494333873741786e-05
-0.48597152933362986,-0.48597152933362986,0.9999915940342348,2.2497255023014518e-05
-0.4858657456578408,-0.4858657456578408,0.9999779201172311,2.250342407802347e-05
-0.4857599619835705,-0.4857599619835705,0.9999957538854434,2.2511969155409925e-05
-0.4856541783108826,-0.4856541783108826,1.0000731612847142,2.252251619639984e-05
-0.4855483946397975,-0.4855483946397975,0.9999576304959146,2.253265914080094e-05
-0.4854426109702656,-0.4854426109702656,0.9999905672818155,2.254497295929278e-05
-0.4853368273023074,-0.4853368273023074,0.9999910451751216,2.2559337441619967e-05
-0.4852310436359465,-0.4852310436359465,0.9999057663109827,2.25698165842995e-05
-0.48512525997121736,-0.48512525997121736,0.9999669009938605,2.2583602657059372e-05
-0.48501947630801273,-0.48501947630801273,1.0000316165446814,2.2600125983563216e-05
-0.484913692646454,-0.484913692646454,0.9999666927155368,2.2609653390535436e-05
-0.48480790898648995,-0.48480790898648995,1.0000380203103998,2.262305244694717e-05
-0.4847021253281515,-0.4847021253281515,1.000018167229757,2.2634501624855535e-05
-0.48459634167143745,-0.48459634167143745,0.9998108233892735,2.2639781959151135e-05
-0.4844905580163193,-0.4844905580163193,1.0002384792925543,2.265181081162741e-05
-0.48438477436281835,-0.48438477436281835,0.9998986968696645,2.2654087346553124e-05
-0.4842789907109625,-0.4842789907109625,1.000008693730835,2.2662722209625333e-05
-0.48417320706075984,-0.48417320706075984,1.0000137100858162,2.266871406906495e-05
-0.48406742341216036,-0.48406742341216036,1.000005135470793,2.267014798024018e-05
-0.4839616397651998,-0.4839616397651998,1.0000049563197648,2.2667471061829194e-05
-0.48385585611991216,-0.48385585611991216,0.9999643906108104,2.266800435613369e-05
-0.4837500724762632,-0.4837500724762632,0.9999902363939028,2.2669202557329494e-05
-0.4836442888342821,-0.4836442888342821,1.0000157843903477,2.2669520966632507e-05
-0.4835385051939465,-0.4835385051939465,0.999993056161685,2.2667169459785795e-05
-0.483432721555306,-0.483432721555306,0.9999802456591459,2.266467729943017e-05
-0.48332693791827525,-0.48332693791827525,0.9999282652798728,2.2657969076368485e-05
-0.48322115428294,-0.48322115428294,1.000055687758954,2.265296558804076e-05
-0.48311537064927934,-0.48311537064927934,0.9999621715618202,2.264240994906006e-05
-0.48300958701732066,-0.48300958701732066,0.9999972388964636,2.263268846652582e-05
-0.4829038033870205,-0.4829038033870205,1.0000902890196137,2.2624402170051522e-05
-0.4827980197584175,-0.4827980197584175,0.9999044010521374,2.26105521804349e-05
-0.48269223613150947,-0.48269223613150947,1.0000389472056883,2.260212172315648e-05
-0.48258645250628956,-0.48258645250628956,0.9999450160727832,2.2591360441072782e-05
-0.48248066888277846,-0.48248066888277846,1.000411301550221,2.2576483619388885e-05
-0.4823748852609766,-0.4823748852609766,1.0022593534950497,2.2573166340778315e-05
-0.4822691016408639,-0.4822691016408639,0.9996890621137713,2.2543037119101705e-05
-0.48216331802249657,-0.48216331802249657,1.0000116219617632,2.2538251039286072e-05
-0.4820575344058298,-0.4820575344058298,1.000056825572774,2.252553178096007e-05
-0.4819517507908806,-0.4819517507908806,0.9999918351436407,2.2512324325398508e-05
-0.4818459671776626,-0.4818459671776626,0.9999712307109204,2.249763053978572e-05
-0.48174018356616843,-0.48174018356616843,0.9999319939381499,2.2486905196917403e-05
-0.48163439995645396,-0.48163439995645396,1.0000184881801542,2.247869670307448e-05
-0.4815286163484561,-0.4815286163484561,0.9999770289294387,2.246986140300589e-05
-0.4814228327421608,-0.4814228327421608,0.9999670239520124,2.2463609694213906e-05
-0.48131704913763207,-0.48131704913763207,1.0000033191736057,2.2460316025983518e-05
-0.4812112655348482,-0.4812112655348482,1.000014177906415,2.2458252318347616e-05
-0.48110548193385105,-0.48110548193385105,0.9999848023966191,2.2458674855994442e-05
-0.48099969833456446,-0.48099969833456446,0.9999805163759863,2.2463546848740093e-05
-0.48089391473707915,-0.48089391473707915,1.0000520373604775,2.2469880906315853e-05
-0.4807881311413526,-0.4807881311413526,0.9999442389584108,2.2477058746748973e-05
-0.4806823475474058,-0.4806823475474058,0.9999680006489307,2.2488171059000232e-05
-0.4805765639552339,-0.4805765639552339,0.9999291545204599,2.250078848310653e-05
-0.4804707803648348,-0.4804707803648348,1.0000885055470363,2.2515442318442022e-05
-0.48036499677623645,-0.48036499677623645,0.9999631079532957,2.2528752063665157e-05
-0.4802592131894478,-0.4802592131894478,0.9999529201834848,2.2542936559850647e-05
-0.48015342960441887,-0.48015342960441887,1.0000355837885402,2.25579098176236e-05
-0.48004764602121985,-0.48004764602121985,0.9998041958961487,2.2567910197624108e-05
-0.4799418624397852,-0.4799418624397852,1.0000549559728833,2.2583184019396608e-05
-0.4798360788602176,-0.4798360788602176,0.9999696210913012,2.2595708771854856e-05
-0.4797302952824237,-0.4797302952824237,1.0000172632163868,2.2610004166008825e-05
-0.47962451170648046,-0.47962451170648046,0.9999726459582844,2.2622379326849612e-05
-0.4795187281323381,-0.4795187281323381,0.9999997536245703,2.2634832983549864e-05
-0.47941294456005573,-0.47941294456005573,0.9998505687412717,2.264086765653366e-05
-0.479307160989589,-0.479307160989589,0.9998921443189983,2.2648242922340877e-05
-0.4792013774209586,-0.4792013774209586,1.0000783811272291,2.2657425345627074e-05
-0.4790955938541801,-0.4790955938541801,0.9998582676410942,2.2658547318360005e-05
-0.4789898102892673,-0.4789898102892673,1.000219366764442,2.2664610574731066e-05
-0.4788840267261916,-0.4788840267261916,1.0000114046792599,2.266039285518098e-05
-0.47877824316500134,-0.47877824316500134,1.000111693728298,2.266348688831182e-05
-0.47867245960565674,-0.47867245960565674,0.9999671486164143,2.266023432726861e-05
-0.4785666760481922,-0.4785666760481922,1.000052891863428,2.2660863229376113e-05
-0.47846089249260704,-0.47846089249260704,1.0000608934160105,2.2660289899177102e-05
-0.47835510893890054,-0.47835510893890054,0.9999518190735215,2.2656226838953245e-05
-0.4782493253871104,-0.4782493253871104,0.9999209011265255,2.2652350259118685e-05
-0.4781435418371718,-0.4781435418371718,1.0000005591611718,2.2645582886265216e-05
-0.4780377582891825,-0.4780377582891825,0.9998658119664693,2.2635166072178256e-05
-0.47793197474305255,-0.47793197474305255,0.9999378735591276,2.262768902579596e-05
-0.477826191198888,-0.477826191198888,0.9998094633156386,2.261707705344491e-05
-0.4777073751244421,-0.4777073751244421,1.0000219810618054,2.260670849963971e-05
-0.4775850047253211,-0.4775850047253211,0.9999672868938744,2.259480256368194e-05
-0.47747922118744734,-0.47747922118744734,0.9999737571132419,2.25862644399444e-05
-0.4773734376514899,-0.4773734376514899,1.0000401187896557,2.2578191908194027e-05
-0.47726765411750305,-0.47726765411750305,0.9999475782013963,2.2567423733700864e-05
-0.47716187058547455,-0.47716187058547455,1.0000868649771522,2.2557267964845372e-05
-0.4770560870554048,-0.4770560870554048,0.9999531021468723,2.2545785530550114e-05
-0.476950303527283,-0.476950303527283,1.000009562794895,2.253511091781895e-05
-0.47684452000117067,-0.47684452000117067,0.999971683112177,2.2524656047518092e-05
-0.47673873647700943,-0.47673873647700943,1.000007108676431,2.2516417566040375e-05
-0.4766329529548399,-0.4766329529548399,1.000020507473625,2.2508577881567118e-05
-0.476527169434671,-0.476527169434671,1.00000706151882,2.2502241994383207e-05
-0.4764213859165102,-0.4764213859165102,0.9999969817923254,2.2497456062373262e-05
-0.4763156024003141,-0.4763156024003141,1.0000288930067653,2.2493962087198177e-05
-0.47620981888619535,-0.47620981888619535,0.9999944641709438,2.2493242441156804e-05
-0.47610403537404977,-0.47610403537404977,1.0000117495306136,2.2492028799183088e-05
-0.4759982518639466,-0.4759982518639466,1.0000207723512102,2.2495047264465684e-05
-0.47589246835588617,-0.47589246835588617,0.9999597972669454,2.2496561220913786e-05
-0.4757866848498821,-0.4757866848498821,1.0000528921039968,2.2502580740186645e-05
-0.4756809013458939,-0.4756809013458939,0.9999683458251374,2.250670262136876e-05
-0.4755751178440262,-0.4755751178440262,0.9999978951715616,2.2514207831408918e-05
-0.4754693343441646,-0.4754693343441646,0.9999767985882919,2.2520959170607206e-05
-0.47536355084640436,-0.47536355084640436,1.000046282472345,2.2531873008512173e-05
-0.47525776735073644,-0.47525776735073644,0.9999858118925606,2.2540419383533446e-05
-0.4751519838571598,-0.4751519838571598,1.0000027529722018,2.2549233475459845e-05
-0.4750462003656768,-0.4750462003656768,1.0000068962177084,2.2559210965986002e-05
-0.47494041687633554,-0.47494041687633554,0.999982402753718,2.256738071409318e-05
-0.47483463338907955,-0.47483463338907955,0.9999937413276268,2.257566924490205e-05
-0.4747288499039943,-0.4747288499039943,1.000012321840731,2.257830657698022e-05
-0.47462306642101576,-0.47462306642101576,1.0000014371334942,2.2585916660706482e-05
-0.47451728294018647,-0.47451728294018647,1.000004515865858,2.2591942585781838e-05
-0.4744114994615206,-0.4744114994615206,1.0000389583948504,2.2593289493253773e-05
-0.4743057159850327,-0.4743057159850327,0.9998722796207753,2.2594311892550402e-05
-0.4741999325107155,-0.4741999325107155,1.0000404022818432,2.259633496997652e-05
-0.47409414903857405,-0.47409414903857405,0.9999722802126139,2.2593867425847444e-05
-0.4739883655686336,-0.4739883655686336,1.0000510015958881,2.2590259174236535e-05
-0.4738825821009064,-0.4738825821009064,0.9999610715546379,2.258551208169099e-05
-0.4737767986353907,-0.4737767986353907,1.0000395085146294,2.2584361192187205e-05
-0.4736710151721038,-0.4736710151721038,0.9999252361550969,2.2580093325390053e-05
-0.4735652317110576,-0.4735652317110576,1.0000440256229528,2.2580620685093627e-05
-0.47345944825227393,-0.47345944825227393,0.9999812671371189,2.257718502064756e-05
-0.47335366479573243,-0.47335366479573243,1.0000288930612617,2.2577827654629217e-05
-0.47324788134146034,-0.47324788134146034,0.9999741078571425,2.2574427649873607e-05
-0.47314209788948675,-0.47314209788948675,0.999995826714073,2.2571758783038535e-05
-0.4730363144397966,-0.4730363144397966,0.9999845441072786,2.256702244749071e-05
-0.4729305309924337,-0.4729305309924337,1.0000266856007547,2.256195671979539e-05
-0.4728247475473541,-0.4728247475473541,0.9999697567122754,2.2555759057039334e-05
-0.4727189641046232,-0.4727189641046232,1.0000638762801095,2.2550755191361583e-05
-0.4726131806642542,-0.4726131806642542,0.9999819132174439,2.2545758714586524e-05
-0.47250739722621893,-0.47250739722621893,1.0000283194698745,2.254193263159392e-05
-0.4724016137905519,-0.4724016137905519,1.0000304994962699,2.253758821164496e-05
-0.47229583035729766,-0.47229583035729766,0.9999822365760409,2.253241018376355e-05
-0.4721900469263984,-0.4721900469263984,1.0000697152938902,2.2528632984735372e-05
-0.4720842634979382,-0.4720842634979382,0.9999205906379085,2.2519788914860847e-05
-0.471978480071891,-0.471978480071891,1.000036404414077,2.2515200974099708e-05
-0.4718726966482835,-0.4718726966482835,0.999996883402568,2.250717769007301e-05
-0.4717669132271224,-0.4717669132271224,0.9999198572332804,2.2498636764207887e-05
-0.47166112980845193,-0.47166112980845193,0.9999505657058618,2.2492350221292502e-05
-0.47155534639225677,-0.47155534639225677,1.0000531908575074,2.2489523360016248e-05
-0.4714495629785295,-0.4714495629785295,0.9999389005950438,2.2483482550948305e-05
-0.4713437795673352,-0.4713437795673352,0.9999405529784754,2.2479412557890502e-05
-0.47123799615866613,-0.47123799615866613,1.0000787258947303,2.2477435562086464e-05
-0.4711322127525575,-0.4711322127525575,0.9998987196007798,2.247174719548886e-05
