time,time,flux,flux_err
-0.49913265395292683,-0.49913265395292683,1.0002620958476753,0.00033089165977631685
-0.497950777223059,-0.497950777223059,0.999789303871038,0.0003056834931118568
-0.4967892778630471,-0.4967892778630471,0.9992878709178052,0.00031161522965486555
-0.49555395553370546,-0.49555395553370546,1.0001233888624559,0.0003022543421009929
-0.494560726258544,-0.494560726258544,1.000271335130133,0.00030824313949713935
-0.4933097975950659,-0.4933097975950659,0.9998542779320644,0.0003063824321034754
-0.4921588716028282,-0.4921588716028282,0.9999433455551767,0.0003056105363185282
-0.49109599965838696,-0.49109599965838696,1.0000903270799433,0.0003100178261467159
-0.4898528065656819,-0.4898528065656819,1.0001336347509662,0.0003004210480767144
-0.48879081426262017,-0.48879081426262017,1.0001428601255657,0.00030604032855115546
-0.48762929146759004,-0.48762929146759004,1.0000125220181553,0.00031194168258056557
-0.48639399761960933,-0.48639399761960933,0.9996378462163996,0.00030231198710591793
-0.4854007588818149,-0.4854007588818149,1.0004118334868952,0.0003085871635593028
-0.48414981914270355,-0.48414981914270355,1.0000845792091908,0.0003067767581120318
-0.48299889780744254,-0.48299889780744254,0.9999518838718047,0.00030594073880825333
-0.48193602718851025,-0.48193602718851025,0.9997420013755136,0.00031028156163281456
-0.4806928399701974,-0.4806928399701974,0.9999624371389098,0.0003002685662230627
-0.4796308515035889,-0.4796308515035889,1.0000519560405652,0.0003064199414561683
-0.4784693051434033,-0.4784693051434033,1.0000291159258894,0.0003120640946135691
-0.477234039861537,-0.477234039861537,1.0004652734201582,0.0003026577306336087
-0.4762407916905431,-0.4762407916905431,1.0001027270495446,0.0003087145848107224
-0.4749898407850196,-0.4749898407850196,1.0000938853679728,0.00030692751377661844
-0.4738389241668983,-0.4738389241668983,0.9997827855578585,0.000306312645109142
-0.47277605485876395,-0.47277605485876395,1.0006050971865879,0.00031051045674919804
-0.47153287354668694,-0.47153287354668694,0.9997283539926967,0.00030036821718474547
-0.4703976088454169,-0.4703976088454169,1.0000337281964409,0.0003064935091169775
-0.4692401719071427,-0.4692401719071427,0.999743788027779,0.00031156385253915326
-0.4680699491545511,-0.4680699491545511,0.9994214483705891,0.00030363193913688816
-0.4670075445805651,-0.4670075445805651,0.9992048691650034,0.0003087939275469282
-0.465829862529165,-0.465829862529165,1.0000528223631662,0.000306860033881178
-0.46460567058047675,-0.46460567058047675,0.999727984282717,0.00030667591889982983
-0.46354280257448865,-0.46354280257448865,1.0000057588364961,0.0003105216980795208
-0.4623729072939682,-0.4623729072939682,1.0006630058074788,0.0003006429289228457
-0.4612376465077318,-0.4612376465077318,1.000206289445539,0.0003065139268677934
-0.46008019794471694,-0.46008019794471694,1.0003019978258822,0.00031150697622845866
-0.4589099795310062,-0.4589099795310062,0.9999188535919892,0.00030411142955935876
-0.4578475777627432,-0.4578475777627432,1.0004352650188058,0.0003086653989311755
-0.45666988438882755,-0.45666988438882755,1.000198575883952,0.0003069203388936869
-0.4554456972678963,-0.4554456972678963,0.9998467019890077,0.0003069715166546577
-0.45438283053833856,-0.45438283053833856,1.0001463074352894,0.0003102727998917897
-0.45321294122428524,-0.45321294122428524,0.9997864740761516,0.00030066488796576707
-0.452077684375206,-0.452077684375206,0.9996989251019028,0.0003063138820786306
-0.4509202240646573,-0.4509202240646573,0.999548507531608,0.00031135619999391416
-0.4497500100830848,-0.4497500100830848,1.000188639713914,0.0003040789268869566
-0.4486876111292304,-0.4486876111292304,0.9998753657844264,0.0003083754100151743
-0.44750990636272264,-0.44750990636272264,1.0000710432817308,0.0003066606957086046
-0.4462857241248116,-0.4462857241248116,0.9999676536341123,0.00030694158925822845
-0.4452228586458432,-0.4452228586458432,0.9999361577274515,0.0003100356378739304
-0.4440529753302599,-0.4440529753302599,1.0002521308080516,0.0003006596752887775
-0.4429177224564341,-0.4429177224564341,0.9998716305347328,0.00030626787713253543
-0.44176025028527877,-0.44176025028527877,1.0002336791183335,0.00031125795135148696
-0.44059004081208286,-0.44059004081208286,0.9998812438635609,0.00030422484060373285
-0.43952764468973554,-0.43952764468973554,1.000292465381604,0.0003081806746806005
-0.4383499284521122,-0.4383499284521122,0.9998023756116237,0.0003065492148550952
-0.43712575115868046,-0.43712575115868046,1.0002293690032054,0.0003070563662381289
-0.43606288690076556,-0.43606288690076556,1.000113232140711,0.00031004346465114484
-0.4348930096278991,-0.4348930096278991,1.0002481133020313,0.0003005303594996149
-0.4337577607599542,-0.4337577607599542,0.9994544115545073,0.00030600318147595645
-0.43260027659549677,-0.43260027659549677,0.9998150673905057,0.00031108981399795754
-0.43143007172773196,-0.43143007172773196,1.0000544730822036,0.0003042353081389313
-0.4303676784394952,-0.4303676784394952,1.000311217532901,0.0003081462570409839
-0.4291752946309998,-0.4291752946309998,1.0002084485387246,0.0003064143202481959
-0.42793529436514743,-0.42793529436514743,0.9999576767217618,0.00030204215750239836
-0.42686011913066296,-0.42686011913066296,1.0001728658066653,0.00031469990287154943
-0.4256626531800521,-0.4256626531800521,0.9996979896353266,0.00029968261517274305
-0.4245949100339203,-0.4245949100339203,1.0000516037310268,0.0003067416927666437
-0.42336702282245825,-0.42336702282245825,1.0002023350725942,0.00031107733558634435
-0.42223408258814743,-0.42223408258814743,1.000085428682693,0.0002992213577165098
-0.4211704524486322,-0.4211704524486322,0.9997322037864892,0.00031268217037123204
-0.41995669283375037,-0.41995669283375037,0.9999078755249597,0.0003064012879038805
-0.41877533984894627,-0.41877533984894627,0.9997361411391179,0.00030190816026286736
-0.41770012960631675,-0.41770012960631675,0.9998410635256173,0.0003146099833379211
-0.4165026991306604,-0.4165026991306604,1.000569777334682,0.00029988276665793707
-0.41543493751617006,-0.41543493751617006,0.9994864347202526,0.0003065962729615414
-0.4142070493317419,-0.4142070493317419,1.0001556424884601,0.00031110736608727933
-0.4130741194655457,-0.4130741194655457,1.000444441128887,0.00029917053895735284
-0.41201048101804644,-0.41201048101804644,1.0000172060972408,0.0003127091982952746
-0.4107967153064124,-0.4107967153064124,0.9999779952930303,0.00030659968497331625
-0.40961538557965016,-0.40961538557965016,0.999986562293046,0.0003017339037698067
-0.4085401401741933,-0.4085401401741933,1.0001965729318845,0.0003145147078190269
-0.40734274532568404,-0.40734274532568404,0.9996197392583509,0.0002999062582383735
-0.40627496519375655,-0.40627496519375655,1.0003606779118421,0.0003065514166050736
-0.4050470759455266,-0.4050470759455266,1.0001104292061105,0.0003111237896552217
-0.403914156597159,-0.403914156597159,0.9997347117120974,0.00029919262429707724
-0.4028505097384937,-0.4028505097384937,0.9997556876362333,0.0003126579554686241
-0.4016367379289818,-0.4016367379289818,1.0000029914572126,0.00030680812000087344
-0.40045543155850966,-0.40045543155850966,0.9998499758855527,0.0003014608160097818
-0.39938015084520656,-0.39938015084520656,1.0000627544568714,0.00031489541636769703
-0.39818279175045745,-0.39818279175045745,1.0001348292256242,0.0003001678493051795
-0.39711499306906717,-0.39711499306906717,1.0004501951922027,0.0003064397918891776
-0.3958871026723159,-0.3958871026723159,1.000098739413644,0.00031129537641199235
-0.39475419398181655,-0.39475419398181655,1.0001068622551745,0.0002992165569151608
-0.39369053861006476,-0.39369053861006476,1.0000703923342544,0.0003127450413930837
-0.39247676067918746,-0.39247676067918746,0.9997865626930593,0.0003070652729540278
-0.3912954777904133,-0.3912954777904133,1.0001149595542962,0.00030113901391438117
-0.39022016161331974,-0.39022016161331974,0.9999096355031531,0.0003148474942731861
-0.38902283842829777,-0.38902283842829777,0.9997719156236284,0.00030008967043235006
-0.3879550211470814,-0.3879550211470814,1.000287743292804,0.00030649770190648544
-0.3867271295095861,-0.3867271295095861,1.0002008512017082,0.00031134611156972356
-0.38559423162079154,-0.38559423162079154,1.000033041940411,0.0002990681922370695
-0.3845305676438329,-0.3845305676438329,1.0002462935759007,0.000312847073153474
-0.38331678357815235,-0.38331678357815235,0.9997281010070669,0.0003072768940083128
-0.3821355242765662,-0.3821355242765662,0.9994968822400123,0.00030096171167967703
-0.3810601724919593,-0.3810601724919593,0.9999972233673162,0.000314985902864409
-0.3798628853481432,-0.3798628853481432,1.0004135481261784,0.00030005816392437393
-0.37879504943394976,-0.37879504943394976,0.9998312519519225,0.0003065161374329823
-0.3775671564611457,-0.3775671564611457,1.0001756570805338,0.00031138291905465635
-0.3764342695164714,-0.3764342695164714,1.0000134655938384,0.0002990788207276631
-0.37537059684219687,-0.37537059684219687,1.000030791008781,0.0003127482951117178
-0.3741568066269451,-0.3741568066269451,1.000063220579444,0.0003075208387650924
-0.3729755710182758,-0.3729755710182758,0.9997862848008664,0.0003007524671961399
-0.3719001834726214,-0.3719001834726214,1.0001215873947338,0.00031491974100032933
-0.37070293252230613,-0.37070293252230613,0.9997964671593824,0.0002998855933033012
-0.36963507793698225,-0.36963507793698225,1.0001312013145696,0.0003066014010534246
-0.3684071835244481,-0.3684071835244481,0.999885920744126,0.00031142418547528723
-0.367274307681248,-0.367274307681248,1.000074995492549,0.00029885425133040997
-0.36621062620760086,-0.36621062620760086,0.9997907745330192,0.00031282171332107356
-0.36499682982444026,-0.36499682982444026,0.9999947227037775,0.00030759126852629404
-0.3638156180266151,-0.3638156180266151,0.9995271764396361,0.000300481962073048
-0.36274019456373024,-0.36274019456373024,1.0004827089073856,0.000314860217153683
-0.3615429799494791,-0.3615429799494791,1.0001766870453133,0.00029977055974259194
-0.36047510665255234,-0.36047510665255234,0.9999052377529957,0.000306600816328462
-0.35924721071430665,-0.35924721071430665,0.9999758242255039,0.00031137237035937167
-0.35811434610649256,-0.35811434610649256,0.9999749398632511,0.00029863427493496996
-0.35705065574378525,-0.35705065574378525,1.0002683563957766,0.00031261040530128115
-0.3557928850690928,-0.3557928850690928,1.0001507679864665,0.0003074218497790333
-0.35465566529776427,-0.35465566529776427,0.9999426667987497,0.0003001466494218315
-0.35350692558254193,-0.35350692558254193,0.9993777321604383,0.0003146623239644304
-0.35238302763335694,-0.35238302763335694,1.000172366598759,0.0002996502139113276
-0.3512418554124565,-0.3512418554124565,0.9999680342925152,0.0003064956543056555
-0.350013957836768,-0.350013957836768,1.0002922360788775,0.00031138594811032193
-0.3489543848030962,-0.3489543848030962,0.9999250417058004,0.00029838762705259827
-0.3477734375141381,-0.3477734375141381,1.000128039945965,0.00031255083770255634
-0.3466035965044398,-0.3466035965044398,1.000247886498167,0.00030747147324794097
-0.345422433238582,-0.345422433238582,0.9999793375774104,0.00030001099390695557
-0.34431450272198844,-0.34431450272198844,0.9999089049115785,0.00031075657633323193
-0.3431822301622788,-0.3431822301622788,1.0002759243449197,0.00030335461454706833
-0.3420086049832207,-0.3420086049832207,0.9995302861778625,0.00030643144711195956
-0.34084968098176205,-0.34084968098176205,0.9996260520097124,0.0003121572014662268
-0.33972544846124036,-0.33972544846124036,1.0001085133271308,0.0002972095468057617
-0.33858415557066335,-0.33858415557066335,0.9999678053561389,0.00031261178623976597
-0.33744362017848745,-0.33744362017848745,0.9998932372159219,0.0003073653539028126
-0.33626248104411616,-0.33626248104411616,0.9998509467084894,0.00029986506712189915
-0.335139867915575,-0.335139867915575,1.0000653991192625,0.0003107416155331552
-0.33402226857766665,-0.33402226857766665,0.9999471104058744,0.0003033255504535324
-0.33277535420137383,-0.33277535420137383,1.0000296279647025,0.00030638154700538716
-0.33161641609865455,-0.33161641609865455,1.0000875336811466,0.000312119242599254
-0.3305654999545823,-0.3305654999545823,1.000254053508857,0.000297061770859711
-0.3293509054645142,-0.3293509054645142,1.000201064252798,0.0003124984182915279
-0.3282288518938799,-0.3282288518938799,0.9997163525619526,0.0003040409259898536
-0.3270547289874116,-0.3270547289874116,0.9998074446056417,0.00030312039136770185
-0.32587079804144425,-0.32587079804144425,0.9999170212980737,0.00030685877775697007
-0.324839494143896,-0.324839494143896,1.0002417249254567,0.00030747102764699404
-0.32354210365291464,-0.32354210365291464,1.0003814736415115,0.00030632769747521393
-0.32244683933247414,-0.32244683933247414,0.9998828053385191,0.00030426805635749095
-0.32134186374976254,-0.32134186374976254,0.9998014588486761,0.0003049327926621334
-0.32011765554125304,-0.32011765554125304,0.9999475406821773,0.0003125827674851239
-0.31906887837985776,-0.31906887837985776,0.9998404254580692,0.00030415838003923534
-0.3178508067543248,-0.3178508067543248,0.9997245836401841,0.00030295835842695607
-0.3167108343905511,-0.3167108343905511,1.000194620123246,0.0003069419740530933
-0.31567951821966744,-0.31567951821966744,1.0003215135811014,0.0003075280415537285
-0.3143821335318421,-0.3143821335318421,1.0001284078918047,0.0003063133331019726
-0.3132868796088701,-0.3132868796088701,1.0001950455430102,0.0003043515158765738
-0.3121818910883462,-0.3121818910883462,1.0000017038985307,0.0003048663462103281
-0.3109576860001084,-0.3109576860001084,0.9999231947726802,0.00031285455585682373
-0.3099089050673228,-0.3099089050673228,1.0002715435963647,0.0003043071448847733
-0.3086908528830577,-0.3086908528830577,1.0000862959046435,0.0003028323335826707
-0.30755087096696343,-0.30755087096696343,0.9996853164921315,0.00030703656109369733
-0.3065195424625017,-0.3065195424625017,0.999826727594669,0.0003077859582800348
-0.3052221636502622,-0.3052221636502622,0.9996957056735984,0.00030643077122532834
-0.3041269201162777,-0.3041269201162777,0.9998911875984943,0.0003046120491080081
-0.3030219186098634,-0.3030219186098634,0.999941543340299,0.0003047560566731197
-0.3017977166455353,-0.3017977166455353,1.000071624804226,0.0003131882934826081
-0.30074893194638436,-0.30074893194638436,0.9998383483709535,0.00030455678787282903
-0.299530899266108,-0.299530899266108,0.9999380569806766,0.0003027801291920363
-0.29839090776813465,-0.29839090776813465,1.0003114625730762,0.0003070447607045402
-0.29735956687974296,-0.29735956687974296,1.0004334691134482,0.0003081129257401525
-0.2960328819451661,-0.2960328819451661,1.0002296299298818,0.0003064573920045343
-0.29496696085949453,-0.29496696085949453,0.9998433489422303,0.00030479845333970313
-0.2937886661365269,-0.2937886661365269,1.0002509205666017,0.00030457684453566984
-0.2926211008283758,-0.2926211008283758,0.9997175194446439,0.000305213530713462
-0.2915323255130374,-0.2915323255130374,1.0000604990111215,0.00031293207258008087
-0.29029766572413107,-0.29029766572413107,1.0000846515979234,0.00030282688879396856
-0.28923094479780503,-0.28923094479780503,0.9999518509406455,0.0003070669631415314
-0.2881263112860779,-0.2881263112860779,0.9999565682617539,0.00030838947996705905
-0.2868289444548623,-0.2868289444548623,1.0000446153462013,0.00030652146401845704
-0.28580700183247243,-0.28580700183247243,0.9996463504254743,0.0003048447645197368
-0.28462869403517743,-0.28462869403517743,0.9998974528435053,0.0003045172706760299
-0.283461143155057,-0.283461143155057,0.9999643045892113,0.00030535184881336577
-0.28237234150928997,-0.28237234150928997,0.9997845750756333,0.0003132366468959262
-0.2811377126255593,-0.2811377126255593,1.0004349741288086,0.00030328283802539424
-0.280070982054724,-0.280070982054724,1.0004307921944449,0.00030707975888761457
-0.27896633606453636,-0.27896633606453636,0.9997061980347232,0.0003086179566481698
-0.2776689753252072,-0.2776689753252072,1.0004482838361388,0.00030684403731102766
-0.2766470430376103,-0.2766470430376103,0.9998905489030907,0.0003048122824879661
-0.27546872212308243,-0.27546872212308243,0.9999716137467919,0.0003048139708736277
-0.27430118575080087,-0.27430118575080087,0.9996328325887651,0.00030528526817515247
-0.27321235764809443,-0.27321235764809443,1.0001554863193616,0.00031349697875578656
-0.27197775979227573,-0.27197775979227573,1.0001652580515181,0.0003034244810120761
-0.2709110195364701,-0.2709110195364701,0.9995228645132151,0.0003069074597528809
-0.2698063610174245,-0.2698063610174245,1.0002781299658152,0.0003089362747107241
-0.26850900644726605,-0.26850900644726605,0.9998302032837196,0.000307100897351486
-0.2674870844786369,-0.2674870844786369,1.0000472812792247,0.0003046076916977945
-0.26630875040623325,-0.26630875040623325,0.9996948874949949,0.00030498988137548874
-0.2651412286143568,-0.2651412286143568,1.0000978468363837,0.00030529316157718175
-0.2640523739134437,-0.2640523739134437,1.0006058195213896,0.0003135814022817734
-0.262817807220722,-0.262817807220722,0.9999780350722874,0.00030390384749293787
-0.2617510572430092,-0.2617510572430092,1.0001119702186176,0.0003069779376687563
-0.2606463861644329,-0.2606463861644329,0.9999634137298468,0.0003090869272053516
-0.2593490378236652,-0.2593490378236652,0.9998214425203967,0.0003074500315888249
-0.25832712614688946,-0.25832712614688946,0.9999439938493676,0.00030429620560191046
-0.25714877888588034,-0.25714877888588034,1.0005016343207427,0.0003054548655551389
-0.25598127174934004,-0.25598127174934004,1.0000473592794608,0.0003052365492061479
-0.2548923903213449,-0.2548923903213449,1.000099045512353,0.00031363150791187345
-0.2536578549070441,-0.2536578549070441,0.9997395344202964,0.0003043002526198787
-0.25259109517562595,-0.25259109517562595,0.9995523174147957,0.0003067142970783077
-0.2514864114944544,-0.2514864114944544,1.0001840029392917,0.00030934569272614374
-0.2501890694616236,-0.2501890694616236,0.9998019496848582,0.00030776508832077874
-0.24916716804480074,-0.24916716804480074,1.0002943497327785,0.00030418316460971537
-0.24798880756592326,-0.24798880756592326,0.9996712439081058,0.00030575616169102083
-0.24682131515713762,-0.24682131515713762,1.0002993031175158,0.0003053853577644961
-0.24573240686059988,-0.24573240686059988,0.9997446395779755,0.00031375547892031745
-0.24449790286494136,-0.24449790286494136,1.0000322512126523,0.0003045464404816137
-0.24343113332804478,-0.24343113332804478,1.000239304451026,0.0003069078246618762
-0.24232643701975576,-0.24232643701975576,1.0002999525878642,0.00030952953202201445
-0.24102910134413377,-0.24102910134413377,1.0000154993257826,0.00030813117640740166
-0.2400072101762248,-0.2400072101762248,0.9999249790831726,0.0003040174439855993
-0.23882883644606637,-0.23882883644606637,1.000092735503123,0.0003060711251474098
-0.23766135882897288,-0.23766135882897288,0.9998757407978438,0.00030551700117857167
-0.23657242354738628,-0.23657242354738628,0.9999887963158516,0.0003138068899208462
-0.23533795107954347,-0.23533795107954347,0.9998599770139978,0.0003047365290342882
-0.23419066914415226,-0.23419066914415226,0.9999549609084826,0.0003069057052315574
-0.232908430256839,-0.232908430256839,1.000493592765093,0.00031396588299116145
-0.23163000294376843,-0.23163000294376843,0.9999914921338178,0.00030478279632660884
-0.23052667900337837,-0.23052667900337837,1.0000870382860467,0.0003070125577380572
-0.22943642286231808,-0.22943642286231808,0.9999213272775791,0.0003097796095552681
-0.22805858808723087,-0.22805858808723087,0.9997077172742272,0.0003084451349235695
-0.2271422933670692,-0.2271422933670692,0.9999306903771222,0.0003080234953248891
-0.22589929506258385,-0.22589929506258385,0.9998858483772917,0.0003022480351058216
-0.2247001852193648,-0.2247001852193648,1.0004724627791042,0.00031581365055203056
-0.2237391240140596,-0.2237391240140596,1.0002033471332983,0.0003041673426508719
-0.22236746070102525,-0.22236746070102525,1.0003612033748652,0.000304924694641342
-0.22136670380770057,-0.22136670380770057,0.9996607039078624,0.0003072948031657139
