time,time,flux,flux_err
-0.49991969879010867,-0.49991969879010867,0.9999668711788813,0.0003874152457587782
-0.49981407212362683,-0.49981407212362683,1.0004208243722557,0.00038782702123764
-0.49957474623624876,-0.49957474623624876,0.9996176899417297,0.00038744305683382336
-0.4994604332847909,-0.4994604332847909,1.0000987246792017,0.0003928819683932746
-0.49937078750590447,-0.49937078750590447,1.0000348859310948,0.00031938812936632433
-0.499238822227926,-0.499238822227926,0.9996740147465781,0.0003353122696315002
-0.49908650852012215,-0.49908650852012215,0.999538957571585,0.00033010229932765547
-0.4989788583407062,-0.4989788583407062,1.0001492802858305,0.00037965814644263276
-0.4988386961507786,-0.4988386961507786,1.000190242228888,0.0003233303369033685
-0.4986365261967876,-0.4986365261967876,1.0000280025649846,0.0003453267561003469
-0.4985603776840435,-0.4985603776840435,1.0000413538577977,0.000334819530708081
-0.4984568978732568,-0.4984568978732568,1.0002618354812123,0.00034055102800846634
-0.4984064794371079,-0.4984064794371079,0.9998795499194928,0.0003437496430070927
-0.4982877261652902,-0.4982877261652902,1.0003610624601804,0.0003511879902229816
-0.49811897800609584,-0.49811897800609584,1.0004982616260734,0.0003867942619573243
-0.4980192855662608,-0.4980192855662608,0.9997642880841535,0.00034104433995285567
-0.49784447452329916,-0.49784447452329916,0.9999174091017773,0.0003887699742458492
-0.49762730889051454,-0.49762730889051454,1.0001222327083905,0.0003393441359265938
-0.4975762582238531,-0.4975762582238531,0.9997864930004476,0.0003370134956554552
-0.4974049428521539,-0.4974049428521539,0.9999666560138841,0.00034134793288656724
-0.49731425318313993,-0.49731425318313993,1.0006216452117753,0.00033645605687173004
-0.4972356462661992,-0.4972356462661992,0.9997056411197542,0.0003386911522428478
-0.4970661841231049,-0.4970661841231049,1.000288962080295,0.00032905581495809935
-0.49692439025820934,-0.49692439025820934,1.0002053995807565,0.0003704873797830103
-0.49670441235648466,-0.49670441235648466,0.9998920428227542,0.00029981136710306223
-0.4965915655338904,-0.4965915655338904,0.9995168738121956,0.0003615972375175762
-0.4965059491871216,-0.4965059491871216,0.9997079883632318,0.0003404284819372344
-0.4964574272496975,-0.4964574272496975,0.9997249854301369,0.00036690722362556785
-0.49639991171716247,-0.49639991171716247,0.9998698675319737,0.0003320351860500051
-0.49630204528293687,-0.49630204528293687,0.9996426010603778,0.00035781589071153365
-0.4962205229268875,-0.4962205229268875,0.9999315719965525,0.0003327363204859239
-0.4960879632708384,-0.4960879632708384,0.9998257943875419,0.0003240172750112708
-0.4958167031261837,-0.4958167031261837,1.0001094453812003,0.0003712063234245794
-0.4957137755613076,-0.4957137755613076,0.9998305679699735,0.00032680360978113636
-0.49558230861730407,-0.49558230861730407,0.9997167862883248,0.00033572844016545496
-0.49547015482385176,-0.49547015482385176,0.9997193249239784,0.0003268574590178062
-0.4953408475317701,-0.4953408475317701,0.9994840457675636,0.0003408575322164749
-0.495244782496593,-0.495244782496593,1.0002485266430428,0.00037423474142075843
-0.4951440386023023,-0.4951440386023023,0.9992698646626927,0.0003427440267883493
-0.49503130299272013,-0.49503130299272013,0.9996223074755861,0.0003397277538682373
-0.49485168753235487,-0.49485168753235487,1.000129597498829,0.00036141763608955
-0.4946456865502114,-0.4946456865502114,0.999536613984481,0.0003380891148911626
-0.49449208875375916,-0.49449208875375916,0.9998922083769936,0.0003706820106421146
-0.49442064592876706,-0.49442064592876706,0.9996968777339473,0.0003191823450682743
-0.49430525341813336,-0.49430525341813336,1.000016068556788,0.0003433439070220608
-0.4941800943423004,-0.4941800943423004,0.9999168599971187,0.0003642489478192311
-0.494071367293509,-0.494071367293509,1.0002419929879358,0.0003392803341525427
-0.49397535800744663,-0.49397535800744663,0.9996524586650443,0.00032820462772612967
-0.4938514342466078,-0.4938514342466078,0.9994573500519067,0.0003263240966737323
-0.4937253499258077,-0.4937253499258077,0.9999651814153987,0.00034217307704295966
-0.4935757069673855,-0.4935757069673855,0.9996463143928237,0.00035157950776748765
-0.49345029521209655,-0.49345029521209655,1.0001771017443104,0.00033852741731476145
-0.4933543384577206,-0.4933543384577206,1.000207157125073,0.0003416258113670798
-0.49321506790220154,-0.49321506790220154,1.0002824119509197,0.0003515739920831032
-0.4931157907951274,-0.4931157907951274,0.9999138169725498,0.00034826056048482785
-0.49303121657649174,-0.49303121657649174,1.0001746505908418,0.00038892371203747044
-0.4928172382766206,-0.4928172382766206,1.000138675762474,0.0003653826589050404
-0.492698989740893,-0.492698989740893,1.0002861708633843,0.00034844292481741196
-0.4925777216871211,-0.4925777216871211,1.0000553746241982,0.00034313634940815835
-0.4924002898143954,-0.4924002898143954,0.9998125884396641,0.0003489933960000711
-0.4922285651075072,-0.4922285651075072,1.000396640424451,0.0003630155236144158
-0.4920527210146247,-0.4920527210146247,1.0004262970595026,0.0003176201041357606
-0.4918969415120955,-0.4918969415120955,1.0000933646313732,0.0003176741562478698
-0.4918559695353906,-0.4918559695353906,1.0002198658728036,0.000361408322481317
-0.4917593989041052,-0.4917593989041052,0.9997752338635417,0.00036732900614954274
-0.4917011577679659,-0.4917011577679659,1.0002379208932284,0.00034895146678345023
-0.4916174311270879,-0.4916174311270879,0.9999526530182828,0.00035395866914646396
-0.49148383135252516,-0.49148383135252516,1.0005940369256572,0.0003664565667951558
-0.4913465279052616,-0.4913465279052616,0.9999041442113092,0.000355525642806114
-0.49122051285085033,-0.49122051285085033,0.9998916753121811,0.0003552667881568437
-0.4910791133857856,-0.4910791133857856,1.0001753172866696,0.0003437439194922954
-0.4909227038042445,-0.4909227038042445,1.0004000220175304,0.0003410300890169585
-0.4908305740507785,-0.4908305740507785,1.0003157549193673,0.00031111360351211297
-0.49066091551430874,-0.49066091551430874,1.0002421794082827,0.0003693121041989611
-0.4905708795777173,-0.4905708795777173,1.0001920405591345,0.0003349478937608123
-0.4905002694897121,-0.4905002694897121,0.9998883244844488,0.0003387739834048604
-0.4903543400272611,-0.4903543400272611,1.0000849045007658,0.000325375803809622
-0.49026837021301617,-0.49026837021301617,0.9993873884650213,0.00037914743787063833
-0.4901011873349489,-0.4901011873349489,0.999777319793151,0.0003151736799706517
-0.48995057828578864,-0.48995057828578864,0.9996904142804061,0.00032799972473949914
-0.4898086806613719,-0.4898086806613719,1.0002447624928819,0.0003601790082389805
-0.4897571841145691,-0.4897571841145691,0.9997952219855544,0.0003376427697664303
-0.489696817692311,-0.489696817692311,0.9997262519212603,0.00036305288959073473
-0.4895912124993629,-0.4895912124993629,1.0004484825029165,0.00035072993591346054
-0.4894911015886464,-0.4894911015886464,0.9996575406334893,0.00036058062844477576
-0.4893517763208365,-0.4893517763208365,0.9999492212658343,0.00031865059319873977
-0.48914240075755516,-0.48914240075755516,0.999920553316375,0.00033786626102223685
-0.4889900883208611,-0.4889900883208611,0.9998551056757927,0.00033448544671796333
-0.48880568870517893,-0.48880568870517893,0.9999204409857085,0.0003517045011392925
-0.48870531903594383,-0.48870531903594383,0.9995816916283576,0.00031226583386725074
-0.48863038938725367,-0.48863038938725367,1.000175442825118,0.00034193138309244483
-0.4884955929592252,-0.4884955929592252,1.00023063449331,0.0003482326152657111
-0.48839830104989235,-0.48839830104989235,0.9999681632974962,0.0003796199881877258
-0.48824814831095864,-0.48824814831095864,0.9999206009571393,0.0003193025442697132
-0.48803992417524567,-0.48803992417524567,1.0005371451241696,0.0003535843702988547
-0.4878482998261461,-0.4878482998261461,0.9995963580120574,0.00030263931440966145
-0.48775753424779394,-0.48775753424779394,1.0003946829265165,0.00036156766553827713
-0.4877153768858989,-0.4877153768858989,1.0002330257422416,0.00034081732865966316
-0.487644461318996,-0.487644461318996,1.0003279060864216,0.0003424447504625647
-0.4875075484960689,-0.4875075484960689,0.9999047311365882,0.00036213838901905283
-0.4874239718359604,-0.4874239718359604,1.000091941704841,0.00034455289577511536
-0.4873317382232926,-0.4873317382232926,1.0000999802074868,0.0003687800504496743
-0.48721258588702765,-0.48721258588702765,1.0001753863558098,0.0003664549885869656
-0.48712237205181735,-0.48712237205181735,1.0000064233161932,0.0003264092806486211
-0.4870119849263574,-0.4870119849263574,0.9997601775521432,0.00033565487944932197
-0.48687327025909327,-0.48687327025909327,1.0001167751091655,0.00032880369845782545
-0.4866655658915988,-0.4866655658915988,1.0003279958501035,0.0003581771387569983
-0.4865346664148092,-0.4865346664148092,1.0000257861384527,0.0003611583383874901
-0.4864138273987919,-0.4864138273987919,1.000301072346056,0.0003455663918434178
-0.48633169911263396,-0.48633169911263396,0.9996811275970252,0.000342335453695149
-0.48616911224162324,-0.48616911224162324,0.999708626263003,0.0003644828244772227
-0.4860449660511222,-0.4860449660511222,0.9996472871558438,0.00038436124684378267
-0.4859233193776163,-0.4859233193776163,1.0002398270826445,0.0003379435466191105
-0.48581118742658874,-0.48581118742658874,1.0006162003476204,0.00032678520495247904
-0.48567149148366295,-0.48567149148366295,0.9995513435739325,0.00033928574732839864
-0.4855006155456067,-0.4855006155456067,0.999996098092683,0.00036298533931079563
-0.48534413304005286,-0.48534413304005286,1.0000378624253636,0.0003418652969361096
-0.48518285179088705,-0.48518285179088705,0.9994827379829865,0.0003236080922784137
-0.4851040348126844,-0.4851040348126844,1.0001187781203607,0.0003219723996486276
-0.48501882393538837,-0.48501882393538837,1.000229334384334,0.0003668485558534938
-0.4849709178059129,-0.4849709178059129,1.0000263910964406,0.0003562516453137523
-0.4848875664305524,-0.4848875664305524,0.9998196310253491,0.0003399583294304741
-0.48482050698657986,-0.48482050698657986,0.9997329737142582,0.0003525701351546604
-0.48472181123288466,-0.48472181123288466,0.999754435761116,0.0003513878930615567
-0.4845884082191333,-0.4845884082191333,0.9998808066960875,0.00036644883786604983
-0.48450617353228154,-0.48450617353228154,0.9999810969880901,0.0003546789269217639
-0.4842822534046718,-0.4842822534046718,0.9999842613518798,0.00035163128047644587
-0.48415050944167887,-0.48415050944167887,1.0001992383312899,0.00032240560145004184
-0.4840362310758792,-0.4840362310758792,1.0005901057604603,0.000328955084883534
-0.4838999476742174,-0.4838999476742174,0.9999229247983351,0.00033481893893767226
-0.4838094017824915,-0.4838094017824915,0.999912873187123,0.0003531684896129609
-0.4837524703973031,-0.4837524703973031,1.0000060719614703,0.00034824491423434095
-0.4835735873755766,-0.4835735873755766,0.9997782017385527,0.00034744909203091
-0.4834404781438934,-0.4834404781438934,1.0001987801607335,0.0003573238779168499
-0.48326116221942356,-0.48326116221942356,0.9995665221922068,0.0003171233886210103
-0.48312032753965467,-0.48312032753965467,1.000102803457295,0.00036488119214364144
-0.48304216264587013,-0.48304216264587013,1.0001383723260773,0.00038208828010907574
-0.4830061472624948,-0.4830061472624948,0.999984896487016,0.0003294308015754157
-0.4828660731436685,-0.4828660731436685,1.0002359275016284,0.00035027996469287105
-0.4827698455541395,-0.4827698455541395,0.9998074290616085,0.00038754049817139554
-0.48271543399532674,-0.48271543399532674,1.0000089893001116,0.0003592482327951089
-0.4825579360847769,-0.4825579360847769,1.0006010153135425,0.0003206761794936117
-0.48238841568745555,-0.48238841568745555,0.9995803577915137,0.00030525816809151617
-0.48220958541496656,-0.48220958541496656,0.9998578708188715,0.00034688532045316326
-0.48206990550024786,-0.48206990550024786,0.9999477190623367,0.00033231553850660527
-0.48197835924802346,-0.48197835924802346,0.9998393433557655,0.0003322595175477817
-0.4819377127896587,-0.4819377127896587,1.0003088006461713,0.00034119983128418085
-0.48183742676337715,-0.48183742676337715,1.0002877496383533,0.0003443358949704984
-0.4817368037787674,-0.4817368037787674,1.0003037582702081,0.0003602155729225581
-0.4815686430527421,-0.4815686430527421,1.00024751248515,0.00035637297951376885
-0.48134415726162844,-0.48134415726162844,1.000007511269942,0.0003784839098217839
-0.48118194528506136,-0.48118194528506136,1.0002452914860949,0.00030573031714823946
-0.48103870381819436,-0.48103870381819436,1.0005187155122859,0.0003617352234199619
-0.48096507300579106,-0.48096507300579106,1.0004095599553786,0.00034860979279463495
-0.48088804646977223,-0.48088804646977223,1.0002952704013228,0.00033586373980052715
-0.48075871335022385,-0.48075871335022385,0.9996904026593194,0.0003796543506521535
-0.4806503219624574,-0.4806503219624574,0.9992837642492324,0.00033585382383767906
-0.48051104148617013,-0.48051104148617013,0.9999285191573556,0.0003572252306411183
-0.4804009451057937,-0.4804009451057937,1.000232072225709,0.0003325483748180777
-0.48033158763864775,-0.48033158763864775,0.9999860524210996,0.0003349456960812183
-0.4801929167326307,-0.4801929167326307,0.9998698239823046,0.000314425524786032
-0.4799576567958866,-0.4799576567958866,1.0000618325527837,0.0003586685348446751
-0.4798621777561493,-0.4798621777561493,1.0000628937717004,0.0003292560946933611
-0.47974730762143736,-0.47974730762143736,1.0002481557615996,0.00033627314290233666
-0.47967512618706676,-0.47967512618706676,1.000006563350927,0.0003625970248056272
-0.4795604409642692,-0.4795604409642692,0.9998129931747552,0.000369872474987647
-0.47936044891466734,-0.47936044891466734,0.9996497902681074,0.00036749159318371093
-0.47922741216170833,-0.47922741216170833,1.0004169256727866,0.0003431239633867784
-0.47914650798411457,-0.47914650798411457,1.0005473442013242,0.0003203440053838536
-0.47903809400013414,-0.47903809400013414,0.9994810936672186,0.00034398151777637417
-0.47893860508920627,-0.47893860508920627,0.9997122492299054,0.0003320370687919834
-0.47878272844754977,-0.47878272844754977,1.0000453916189607,0.0003511218702582599
-0.4786278416700952,-0.4786278416700952,0.9999846016874383,0.0003345494279981161
-0.4784582782107464,-0.4784582782107464,0.9992472852131307,0.0003296343215914947
-0.4783569700797671,-0.4783569700797671,0.9996844982870314,0.0003475826792279006
-0.478280947040912,-0.478280947040912,0.9998099955389268,0.0003444961405507297
-0.47820626296161206,-0.47820626296161206,1.0000515417334082,0.00035821145038893696
-0.47812043040103164,-0.47812043040103164,1.0000593260344368,0.000351121440830596
-0.4780179789420799,-0.4780179789420799,0.9997420047524912,0.00034556359461302934
-0.477857314805442,-0.477857314805442,1.000155351302007,0.0003304790065672853
-0.477780824231013,-0.477780824231013,1.0000847819459948,0.0003485712659672366
-0.47757746902643705,-0.47757746902643705,0.9996905547619217,0.00035131135457423514
-0.4774745623326453,-0.4774745623326453,0.9997927139133397,0.00035309027055678663
-0.4773372640142043,-0.4773372640142043,0.9995561191376039,0.0003651329956508549
-0.47719313984416656,-0.47719313984416656,1.0002424560713394,0.0003164470548148182
-0.47707389233037245,-0.47707389233037245,0.99997917099108,0.0003650593676151847
-0.47700150402524744,-0.47700150402524744,1.0003577100640102,0.0003467929497900635
-0.47692013023624896,-0.47692013023624896,0.9997386181436021,0.00033217715838348885
-0.476779201975296,-0.476779201975296,1.0001370268423901,0.00035417161979550227
-0.4765587223933835,-0.4765587223933835,0.9998621958645508,0.00030586248538397087
-0.476387798810174,-0.476387798810174,0.9998755215658225,0.0003893311788223502
-0.47632154448365327,-0.47632154448365327,0.9999855315344843,0.0003328218105200763
-0.4762464363746403,-0.4762464363746403,1.00009732060795,0.0003553691760353002
-0.47612263997871196,-0.47612263997871196,1.0001131340840053,0.00035235303107433974
-0.4760382188280346,-0.4760382188280346,0.999943492034624,0.0003565760253347088
-0.4759997187058616,-0.4759997187058616,0.9995140119910435,0.0003642079551664066
-0.47583432752799126,-0.47583432752799126,0.999860720480739,0.00031591280081515497
-0.4756584381473658,-0.4756584381473658,1.0000143896496998,0.000341025892074642
-0.47542684879372243,-0.47542684879372243,1.00049432030498,0.0003535584907867693
-0.47528744536321027,-0.47528744536321027,0.9999945993998273,0.00033793488159172174
-0.4751872177381301,-0.4751872177381301,0.9997128622547928,0.00037814975947435996
-0.47508490702239214,-0.47508490702239214,1.0002585104265709,0.0003234351747719136
-0.47497850731160723,-0.47497850731160723,1.0000978605459199,0.0003768651128479777
-0.4748127149614447,-0.4748127149614447,0.9991321768122097,0.0003426580619622222
-0.4746458351648471,-0.4746458351648471,0.9996821532440265,0.0003471090392408052
-0.474460666142113,-0.474460666142113,0.99962231887356,0.00033675489136982467
-0.47432540683439584,-0.47432540683439584,1.0000244347468417,0.00032545188829905024
-0.474242336111638,-0.474242336111638,1.0000955599770278,0.00037649875116526086
-0.4741429987887386,-0.4741429987887386,1.0001108795793465,0.00032235760585122054
-0.4740114145060943,-0.4740114145060943,1.000286483497204,0.0003827486566796623
-0.4739133060691529,-0.4739133060691529,0.9999284532866077,0.000322430424276113
-0.47376775277298294,-0.47376775277298294,1.0000129254986814,0.00030197254714293454
-0.4736305568323587,-0.4736305568323587,0.9999675020313408,0.00035544157137958857
-0.4735342040657997,-0.4735342040657997,0.99988521743761,0.00034924321468766717
-0.4733701601675421,-0.4733701601675421,0.9999826244085224,0.00032605431036395014
-0.47318241280081563,-0.47318241280081563,0.9995177793176542,0.0003489911113607102
-0.4730610373801028,-0.4730610373801028,1.0003783644425046,0.0003825221212371086
-0.4730234932496387,-0.4730234932496387,1.000508672490763,0.00033000711249210103
-0.4729483546347183,-0.4729483546347183,0.9997912255222381,0.00036267688798325944
-0.4727255871097441,-0.4727255871097441,1.0005079077782635,0.00047963680395892935
-0.47253356139190145,-0.47253356139190145,0.9998838250616077,0.0003515200253274615
-0.47241821831121344,-0.47241821831121344,1.000104254572235,0.00032731775378456215
-0.47224534236593174,-0.47224534236593174,1.000090474217173,0.0003353457234735179
-0.4720805380507954,-0.4720805380507954,0.9999809724430262,0.0003205739188147866
-0.4719601279968629,-0.4719601279968629,0.9997356672824088,0.0003453151095774778
-0.4717733335433877,-0.4717733335433877,1.0004414302738838,0.0002975268123756854
-0.47167207525708366,-0.47167207525708366,0.9997077730763884,0.00035118993458105427
-0.47158041475850043,-0.47158041475850043,0.9999780723203351,0.0003519619818652145
-0.4715248208311095,-0.4715248208311095,0.9998687474188049,0.00031459928495338786
-0.4714732471118623,-0.4714732471118623,1.0003110799052881,0.00036853119947544003
-0.47139903493225577,-0.47139903493225577,0.9999636159224841,0.0003349841544703149
-0.4713284689554712,-0.4713284689554712,0.99995324734884,0.0003291060228805265
-0.4711278264279827,-0.4711278264279827,0.9993779747962354,0.00030815927182511186
-0.47099863384355556,-0.47099863384355556,1.0001714852944208,0.0003730416269227434
-0.47079247432702687,-0.47079247432702687,1.0002072029444213,0.00034170479338206173
-0.4706477033061674,-0.4706477033061674,1.000203769898721,0.0003266470099320332
-0.47047680931573266,-0.47047680931573266,1.0001468187740905,0.0003422091115930698
-0.4703182312128774,-0.4703182312128774,1.000172268973199,0.00035092238100256813
-0.4702545742802613,-0.4702545742802613,1.000151385653456,0.00033279173231609354
-0.4701148808286234,-0.4701148808286234,0.9998637403545114,0.00037877270527760106
-0.46997454895899865,-0.46997454895899865,1.0003328475490578,0.00028697475095776777
-0.4697397723022732,-0.4697397723022732,1.0002243865791411,0.000352182018112628
-0.4696541460303706,-0.4696541460303706,0.9999970789929156,0.0003722008306833473
