time,time,flux,flux_err
-0.4999319464416961,-0.4999319464416961,0.9999162996595707,0.00021175261663649306
-0.49979194465170923,-0.49979194465170923,1.000001647436461,0.00020437310396687029
-0.49969118837689164,-0.49969118837689164,1.0003641524928555,0.00020088788745206387
-0.49959551270803787,-0.49959551270803787,1.0000929232083553,0.0001958164078105785
-0.4995427106652642,-0.4995427106652642,0.9997407372301804,0.00020993810684758908
-0.4994817332502862,-0.4994817332502862,1.0000356345687165,0.0001973159095192158
-0.49937041869343374,-0.49937041869343374,0.9999706139794412,0.0002024040404360455
-0.4991839704925951,-0.4991839704925951,0.9998926769380374,0.00020732688846812454
-0.4989702470302291,-0.4989702470302291,1.000085294706047,0.00020724197389918115
-0.4988070757375681,-0.4988070757375681,1.0000162605326666,0.00020750167868016254
-0.49866894371807574,-0.49866894371807574,0.9998890110250909,0.00018639483302226016
-0.49852876336954066,-0.49852876336954066,0.9997098642714566,0.0001985214049028453
-0.49836949192831526,-0.49836949192831526,1.0000759306981974,0.00018541842683039586
-0.4982680137261923,-0.4982680137261923,1.0000883385817125,0.00021662171769074257
-0.49816036723568685,-0.49816036723568685,0.9999799012857722,0.0002101823915303734
-0.4980650394165423,-0.4980650394165423,0.9998861300784607,0.00021526087558063149
-0.4979915775817062,-0.4979915775817062,0.9997582361557356,0.0001967047352712352
-0.4979078631142329,-0.4979078631142329,0.9999881608537192,0.00019600977415226025
-0.49776143221388336,-0.49776143221388336,1.0001774593149526,0.0001960458421980056
-0.497639890643768,-0.497639890643768,1.0001145893884997,0.00022368922471744366
-0.497450254712021,-0.497450254712021,1.000070469417748,0.0002089033176255574
-0.4972523370292038,-0.4972523370292038,1.0000760448267083,0.0001928955224028532
-0.4971091767962207,-0.4971091767962207,1.0001155035761744,0.00019204129018944737
-0.4970252288163465,-0.4970252288163465,1.0000121261471966,0.00020279474068046099
-0.49691874941272546,-0.49691874941272546,0.9998843851546667,0.0001997395765521404
-0.4967627088590234,-0.4967627088590234,1.0000146978104976,0.00020023255292439995
-0.4966386449232232,-0.4966386449232232,0.9999495370021521,0.00020299631674658433
-0.49651520101033386,-0.49651520101033386,1.0000118984393986,0.0002032023691250915
-0.4964133675239282,-0.4964133675239282,0.9998022333148258,0.00020532985308954662
-0.49624437647144076,-0.49624437647144076,0.9999850372007307,0.00019735251813655046
-0.496170711175364,-0.496170711175364,0.9999055601699431,0.00018756699849862532
-0.49606222216170864,-0.49606222216170864,1.000003872627413,0.00022109714090300662
-0.4959503960722941,-0.4959503960722941,0.9998452146870263,0.00019357261642135687
-0.495841415963514,-0.495841415963514,1.0002150706059376,0.00019709258536289588
-0.4956507663700904,-0.4956507663700904,0.9999635240794694,0.00021137975105264814
-0.4955147498229053,-0.4955147498229053,0.9999680549822418,0.00020499312024331817
-0.4954025878694665,-0.4954025878694665,1.000247414265631,0.00020620544476170137
-0.4952443466259865,-0.4952443466259865,0.9996118993521705,0.0001953755519265987
-0.4950272943991877,-0.4950272943991877,1.0003120572715607,0.00018561348294000873
-0.49496819761625377,-0.49496819761625377,1.0003012017271018,0.00020252813393008664
-0.49488903885212493,-0.49488903885212493,0.9999417796789093,0.00020424164434385242
-0.49481447789730737,-0.49481447789730737,1.0001325623915567,0.00020577123796286658
-0.4947009278352198,-0.4947009278352198,1.0001232885089735,0.00018787347351277708
-0.49459061089582973,-0.49459061089582973,0.9997008713614365,0.00019452154813130084
-0.4945156280504307,-0.4945156280504307,1.0000663968417312,0.00019287224658882943
-0.49435624535326494,-0.49435624535326494,0.9999487347788605,0.0002118526125809404
-0.49413246509575404,-0.49413246509575404,0.999833439269743,0.00019650005654087976
-0.49399476300823153,-0.49399476300823153,0.9997895056555824,0.00018579259198893427
-0.4938907151634339,-0.4938907151634339,1.000016545466846,0.00021379557890192688
-0.4938320205139462,-0.4938320205139462,0.9997033263907072,0.0001878558772095108
-0.49375506169963046,-0.49375506169963046,0.9999931152346202,0.00020230952870410124
-0.4936242578856763,-0.4936242578856763,0.9998578641586787,0.00019582983690930668
-0.49351729823902135,-0.49351729823902135,0.999851298840414,0.00020543533069263074
-0.49345271345082437,-0.49345271345082437,0.9998793364188806,0.00020060682949414672
-0.4933467671602557,-0.4933467671602557,0.9997567775730867,0.00020470250656648512
-0.4932395494994125,-0.4932395494994125,1.0002187795647373,0.00019077954521966244
-0.49309267786666167,-0.49309267786666167,1.0002823820474582,0.00019052831415500938
-0.4929572268061747,-0.4929572268061747,0.9998360232310413,0.000203057421644201
-0.4928825591392524,-0.4928825591392524,1.0001634126112111,0.00019814084742634657
-0.49273595515624036,-0.49273595515624036,1.0001852879141324,0.00018936478711483064
-0.4926525035749364,-0.4926525035749364,0.9997112290443976,0.00018879856911566223
-0.49256879212043714,-0.49256879212043714,0.9999263804415411,0.00019827340057427598
-0.49247496832249454,-0.49247496832249454,0.9996646873907308,0.00019949180908294988
-0.4924068840809923,-0.4924068840809923,1.0002388355181286,0.00020364342733763746
-0.4923707332185586,-0.4923707332185586,1.0003198871684358,0.0002036729828016952
-0.4922642181547417,-0.4922642181547417,0.9996111323550554,0.00020263771975846805
-0.49206132712060935,-0.49206132712060935,1.0001106986570611,0.00021584685466855165
-0.4918788482922537,-0.4918788482922537,1.0000916763154917,0.00020413528015659943
-0.4917429625689692,-0.4917429625689692,1.000099457471115,0.00020679849557022684
-0.4916782680513279,-0.4916782680513279,0.999909037690896,0.0001968057513622282
-0.4915320913481992,-0.4915320913481992,0.9998558023586355,0.00019664135174592032
-0.4914571486435307,-0.4914571486435307,0.9999067702269752,0.00019005227775871302
-0.4913889124094567,-0.4913889124094567,0.9998739277650233,0.00018755299372733212
-0.49124027117577496,-0.49124027117577496,1.0003209873475165,0.0002001916759290222
-0.49115254313874174,-0.49115254313874174,1.0001026673013833,0.00018944920460286035
-0.49103884858850505,-0.49103884858850505,1.0000240676434429,0.0002322477111328478
-0.49094802984400304,-0.49094802984400304,0.9999958711770711,0.00019687298000365668
-0.49086687475573854,-0.49086687475573854,0.9998244063007784,0.00019487123737182283
-0.49080857410881434,-0.49080857410881434,1.0001576132485697,0.00019822005509573167
-0.4906209970511554,-0.4906209970511554,1.0000313274564598,0.00019600242059113248
-0.4905255978330388,-0.4905255978330388,0.9998910597816696,0.0002171258135947624
-0.49037927173121715,-0.49037927173121715,1.0001336071759412,0.00019731228950158416
-0.49018182802174126,-0.49018182802174126,1.0000968192317061,0.00018919117909530568
-0.4900432273178012,-0.4900432273178012,0.9998336663291469,0.00019807892726218186
-0.48994024689891374,-0.48994024689891374,1.0001222590441234,0.0001883262308132998
-0.4898863554713898,-0.4898863554713898,0.9998929665581617,0.0001964988073592996
-0.4897541771126271,-0.4897541771126271,1.0001796495523874,0.00021326037890784317
-0.48964618206155136,-0.48964618206155136,1.0000879064077783,0.00021516573697970414
-0.48949778894530027,-0.48949778894530027,0.9998512310302793,0.00019412015543587234
-0.48940763386854086,-0.48940763386854086,1.0000765288205384,0.0002006738354944513
-0.4892518662811199,-0.4892518662811199,0.9997623053979812,0.00018759712641228603
-0.48916065560406424,-0.48916065560406424,1.0002492177208424,0.0001959042217537567
-0.48904536253758124,-0.48904536253758124,0.9998571616332658,0.0002095784785873678
-0.48892859650368337,-0.48892859650368337,0.9997146265251129,0.0002179985972080015
-0.4887565106328111,-0.4887565106328111,1.0000940980017412,0.00019196773201721093
-0.4885809022540343,-0.4885809022540343,1.0002495691134916,0.00019637982308919836
-0.48843315081467154,-0.48843315081467154,0.9998873014648995,0.00020421465730174212
-0.4882858216202294,-0.4882858216202294,0.9999518314082007,0.00020335822726533925
-0.48810014660921297,-0.48810014660921297,0.9998904229423105,0.0001948091962555717
-0.48787422411551234,-0.48787422411551234,1.000080577959849,0.0001961634793486436
-0.4878020234158612,-0.4878020234158612,1.000048539471776,0.00020102502574833784
-0.4877059716382064,-0.4877059716382064,0.9998191757309091,0.00021162216304070153
-0.48757844957508495,-0.48757844957508495,0.9999860230951418,0.00020206034488189873
-0.48743927319083014,-0.48743927319083014,0.9998854623665562,0.0002139636075254747
-0.48732130260250417,-0.48732130260250417,0.9997916618781121,0.00019205961077057787
-0.48710994751891123,-0.48710994751891123,1.00002081516794,0.0002024517806564035
-0.486971670352068,-0.486971670352068,0.9998174396076577,0.0001991280897677032
-0.4868268638034351,-0.4868268638034351,0.9998920817039473,0.00021135350767108262
-0.48675903157272843,-0.48675903157272843,0.999934648770205,0.00019357964575398608
-0.4866440497346048,-0.4866440497346048,0.9998691247620195,0.00018794197983688669
-0.4865736868814565,-0.4865736868814565,0.9997039326593595,0.00019857638849216775
-0.48649309168904437,-0.48649309168904437,0.9999631328817962,0.00020776132175183968
-0.48640742178758956,-0.48640742178758956,0.9999988645182739,0.00021260011689168038
-0.4863211274248897,-0.4863211274248897,1.0003681158391633,0.00020367533139389375
-0.48618786525548785,-0.48618786525548785,0.9999688946109855,0.0001930914839984695
-0.4861122907823301,-0.4861122907823301,1.0002735421615416,0.0001907177930717175
-0.48595401071434025,-0.48595401071434025,1.0001499761109538,0.00020513909700171267
-0.4858506639749976,-0.4858506639749976,1.0001171743018358,0.0002106749318046517
-0.4857731953539769,-0.4857731953539769,0.9995937175840774,0.00019144630422642978
-0.48559650368988516,-0.48559650368988516,1.0001181167090578,0.000193647736358651
-0.4855428796414344,-0.4855428796414344,0.9999326740661324,0.00019459286789698567
-0.4854714081127895,-0.4854714081127895,1.0002303848029537,0.00020552642075292795
-0.48539296594244663,-0.48539296594244663,1.0000627372703326,0.00020240894490573583
-0.4853048388737079,-0.4853048388737079,1.0003106310969967,0.00020149758562483291
-0.48525096127486905,-0.48525096127486905,0.9999947491242857,0.00020218241257462412
-0.4851513590423565,-0.4851513590423565,0.9998173675249333,0.00020669032269969738
-0.4849844461401517,-0.4849844461401517,0.999911076003323,0.00020094796900539934
-0.4848766634255298,-0.4848766634255298,1.000078025083147,0.0002183073085987028
-0.4846992307895562,-0.4846992307895562,0.9999536661815558,0.00019654186478327982
-0.4845885519251169,-0.4845885519251169,1.0001789058106416,0.00020129270165926256
-0.48448871038272046,-0.48448871038272046,1.0000362131288676,0.00019234414703409166
-0.4843400052195648,-0.4843400052195648,0.9999307895724898,0.00019225199505481255
-0.48419296740903517,-0.48419296740903517,0.9998161313962054,0.00018669501213336754
-0.4840753676886379,-0.4840753676886379,0.9998835076844875,0.0001934282070686827
-0.4839633864292409,-0.4839633864292409,0.9998573675052109,0.0002103780829336242
-0.4838920860136568,-0.4838920860136568,1.000374477895101,0.0002210915903394567
-0.4837899837111763,-0.4837899837111763,1.0000268639873544,0.00019165110147570033
-0.483734409265162,-0.483734409265162,1.0001103617614449,0.00019304853595755972
-0.4836388202929811,-0.4836388202929811,0.9999199170760894,0.00019950965721089218
-0.4835238752108125,-0.4835238752108125,1.0002571499235937,0.0001898741223404612
-0.4834324615439982,-0.4834324615439982,0.9997829681015492,0.00021217209671841605
-0.4833198565931525,-0.4833198565931525,1.0001888919926425,0.00019913339706193245
-0.48312402865631154,-0.48312402865631154,1.0002891766729252,0.00019892937639913038
-0.4829857598961098,-0.4829857598961098,0.999766218469353,0.00019299005600227476
-0.4829144715979055,-0.4829144715979055,1.0000810055208356,0.0001982431925072711
-0.48278324607526885,-0.48278324607526885,1.0000876587876137,0.00019456916834550557
-0.4826458709780127,-0.4826458709780127,1.0001467129655564,0.00021333644162519334
-0.48255787667731054,-0.48255787667731054,0.9997838062437209,0.00019157252504034425
-0.48246856899713747,-0.48246856899713747,1.0002267436177164,0.0002006621720514141
-0.4823663233073603,-0.4823663233073603,1.0003018659456533,0.00019634728992761583
-0.48227900716738076,-0.48227900716738076,1.0000490429971716,0.00019424336399974422
-0.48216279654880057,-0.48216279654880057,0.9998360859803868,0.00020004372567810326
-0.48204246487512137,-0.48204246487512137,1.0000244825117082,0.00020638072974843444
-0.48193581365267163,-0.48193581365267163,1.0000597086236518,0.00020781769857833172
-0.4817918304041086,-0.4817918304041086,0.9998293087128591,0.00020661972298530138
-0.4815711787014152,-0.4815711787014152,0.9998254623192354,0.00020603460786861293
-0.4814238117236528,-0.4814238117236528,0.9998975420824948,0.00019534475795609713
-0.4812918986885052,-0.4812918986885052,1.000321777510554,0.00022173391888590942
-0.48110644836488065,-0.48110644836488065,0.9996684758059496,0.00019036025259846606
-0.48086532263332626,-0.48086532263332626,1.0001527768577714,0.00019407982146206116
-0.48077918825511007,-0.48077918825511007,1.00002229346665,0.00019977546297377777
-0.480683156781015,-0.480683156781015,0.9999416320479917,0.0002030067225996994
-0.4805602995249501,-0.4805602995249501,0.9998448388214486,0.00020537434072086073
-0.48047644163743825,-0.48047644163743825,1.0001767693876669,0.00021609097570542056
-0.48032636407151585,-0.48032636407151585,0.9999640253102029,0.00021275866401211066
-0.48026571028894977,-0.48026571028894977,0.9999852457019237,0.0001940143905454288
-0.48011122184543636,-0.48011122184543636,0.9999208561391111,0.00020178264099759508
-0.4799712502863258,-0.4799712502863258,0.9997105939367799,0.00020396319994498853
-0.4798488630920474,-0.4798488630920474,0.999954230272094,0.00021013009682732667
-0.4796534932451323,-0.4796534932451323,0.9998658741037294,0.0002115472295281984
-0.4795071753615048,-0.4795071753615048,1.0003528090337237,0.00019337618058859335
-0.4794132250637631,-0.4794132250637631,0.9998369674128137,0.0002014812523002704
-0.479315325551579,-0.479315325551579,1.0000692933596569,0.00020897427542940612
-0.4792106584187422,-0.4792106584187422,0.9999903989961261,0.00020512175892058873
-0.4790655277407495,-0.4790655277407495,0.9998554918092942,0.00019277311725309426
-0.47896135615519597,-0.47896135615519597,0.9999241719272458,0.00019631177997612225
-0.4788122267469589,-0.4788122267469589,0.9998190468817919,0.0002159470749717004
-0.47873327241686636,-0.47873327241686636,1.000244038724481,0.00019908500519577366
-0.47864167275474756,-0.47864167275474756,1.0002283561360312,0.00019042350480520778
-0.4784519460357842,-0.4784519460357842,1.000226374977507,0.00019158503708584565
-0.4783880538670928,-0.4783880538670928,1.0001912676033036,0.00020058900381191464
-0.4783096691237006,-0.4783096691237006,1.0000276150007577,0.00019709885168567757
-0.4782403278375568,-0.4782403278375568,0.9998880598918953,0.0001981304017955109
-0.47818441435956627,-0.47818441435956627,1.000203821606449,0.00020614563705180755
-0.47811574304141685,-0.47811574304141685,0.99981722494077,0.0002018450999269485
-0.47799832598175274,-0.47799832598175274,1.0001421489170625,0.00020796490756000582
-0.47789027977196386,-0.47789027977196386,1.0001727924994044,0.00019614274499406758
-0.47775572789614673,-0.47775572789614673,1.000305366579451,0.0002200131374326116
-0.47758946864778407,-0.47758946864778407,1.0001848619451124,0.00019290060531778426
-0.47746783722323016,-0.47746783722323016,0.9997766044634693,0.00019353968210491726
-0.47734720827647836,-0.47734720827647836,0.9997474301958779,0.0001932176061084461
-0.47721540156853737,-0.47721540156853737,0.9998838635541782,0.00019589303948764708
-0.47705787094964763,-0.47705787094964763,1.0000585246840994,0.00018897862236638552
-0.4769826246665616,-0.4769826246665616,1.000013667788538,0.00021087698227779478
-0.4769022446067538,-0.4769022446067538,1.000098124117346,0.00019674736667218317
-0.47683420796092835,-0.47683420796092835,0.9997498875548528,0.0002160594381010229
-0.4767998433213506,-0.4767998433213506,0.9998670647127292,0.00020935808096165018
-0.4767504600320535,-0.4767504600320535,0.9999684788555943,0.00022500827105413954
-0.4766547124563658,-0.4766547124563658,0.9998528442748638,0.0001946811135596486
-0.4765209170509479,-0.4765209170509479,0.9998318317827339,0.00019996845919064175
-0.47642071123627827,-0.47642071123627827,1.0001573231109355,0.00019710309254124337
-0.4762784336009645,-0.4762784336009645,1.0001334542497087,0.00021996097144542825
-0.4762079051863111,-0.4762079051863111,1.0000839725685515,0.00019454809624149845
-0.47603040460016927,-0.47603040460016927,0.9999743349325574,0.00019321844728735916
-0.47588734616656436,-0.47588734616656436,1.0000368833359565,0.0002013933856334305
-0.4758018328837352,-0.4758018328837352,0.9998405243363468,0.00019024759249782456
-0.47571387087373296,-0.47571387087373296,1.0000629591725692,0.00018537436664658373
-0.47562858974852135,-0.47562858974852135,1.00004054734143,0.00020249148546378908
-0.47550746201668515,-0.47550746201668515,0.9999726706891913,0.00021055613391775612
-0.47537632154198944,-0.47537632154198944,1.0002227041815668,0.00019015444581451263
-0.475262483136612,-0.475262483136612,1.0000977429265272,0.00020062128701017908
-0.47513568807626144,-0.47513568807626144,0.9999397574622062,0.00020261904747660218
-0.47502169940053135,-0.47502169940053135,1.0001460461687293,0.00019949201779742966
-0.47490576475101987,-0.47490576475101987,1.0001435406586183,0.0002141093795590847
-0.47474359593761617,-0.47474359593761617,0.9999145898818798,0.00022231994703168708
-0.47461587166108077,-0.47461587166108077,1.0001752304970843,0.0001878123621460623
-0.4744292543909978,-0.4744292543909978,0.9999797893987358,0.00019213449888118127
-0.47429603406708337,-0.47429603406708337,1.0000286760767945,0.00020615979314741678
-0.47418436441003,-0.47418436441003,1.0002063757255342,0.00021392895509701558
-0.4740263065192266,-0.4740263065192266,0.999877186524077,0.0001944821132988651
-0.4738017894269433,-0.4738017894269433,0.9997655859168061,0.00019645170087021776
-0.47367415853223066,-0.47367415853223066,1.0001087584186004,0.00020023730685571591
-0.4735486281599151,-0.4735486281599151,0.9998731235602133,0.00018999392101465008
-0.4734618483911618,-0.4734618483911618,0.9999500106857837,0.00020491459277915388
-0.4734106477124442,-0.4734106477124442,0.9998159211798754,0.00019411928809165687
-0.4732633992221963,-0.4732633992221963,0.9996968287585244,0.0002201389990373781
-0.47315664348134306,-0.47315664348134306,0.9997873670540761,0.00019881155075145515
-0.4730047169694444,-0.4730047169694444,0.999769676159778,0.00020234296381498469
-0.47282967086866845,-0.47282967086866845,0.9997773020098375,0.00021081783369793265
-0.4727043417158711,-0.4727043417158711,1.000012897785519,0.00019815096384390523
-0.47250249265125605,-0.47250249265125605,1.000129549701526,0.00020672688811165717
-0.47236798679296044,-0.47236798679296044,0.999891305891594,0.00018864323425542677
-0.47226621193331086,-0.47226621193331086,1.0002638566677036,0.00021624713780617742
-0.4722010130935814,-0.4722010130935814,0.999748008181198,0.00020856643353443934
-0.47206955367946646,-0.47206955367946646,1.000044912948201,0.00022030380161816714
-0.4719205636225524,-0.4719205636225524,0.9998323349898888,0.00019537826888241984
-0.47178456620895304,-0.47178456620895304,1.0000755341793677,0.00018720138427731023
-0.47169193821027877,-0.47169193821027877,1.000018256501558,0.0002136886796139543
-0.4716077474433405,-0.4716077474433405,0.9999333309415483,0.00019853266445035052
-0.471478678391577,-0.471478678391577,1.0000128059109632,0.00018549990875198343
-0.47131629009527387,-0.47131629009527387,1.0000529618762812,0.00019147676794950818
-0.4712445476114226,-0.4712445476114226,0.9998719318596226,0.00019558477446185758
