time,time,flux,flux_err
-0.4999417559944656,-0.4999417559944656,0.9997542165788137,0.00048746860208945914
-0.4997726528793767,-0.4997726528793767,0.9996040834891288,0.0005021796238401584
-0.49965098635002503,-0.49965098635002503,0.9999627789750913,0.0004702140304376567
-0.499604559479485,-0.499604559479485,1.0003796236785907,0.0004436887837350281
-0.49951026843773433,-0.49951026843773433,0.9996063041749574,0.0004730424000383658
-0.49935291569127005,-0.49935291569127005,1.000379844259669,0.0004448591336427861
-0.4992745252427994,-0.4992745252427994,1.0000304497684998,0.0004332306904826754
-0.4990880079792987,-0.4990880079792987,1.000155245747964,0.00045291212986778393
-0.4988844585779589,-0.4988844585779589,0.9991991474318975,0.0004920710983403796
-0.4988272457710991,-0.4988272457710991,0.9998804971818613,0.0004483250707911938
-0.49872077718537183,-0.49872077718537183,0.9998138048982238,0.0004458137478350756
-0.4986403882910963,-0.4986403882910963,1.0000563864830978,0.00042015773703620377
-0.49843074358723244,-0.49843074358723244,0.9997377825744156,0.00045908179246868764
-0.4982790507470781,-0.4982790507470781,1.0003108237273646,0.00045987611172681775
-0.49807624851819127,-0.49807624851819127,0.9994785312093715,0.0004743868046052405
-0.49798057789812444,-0.49798057789812444,1.0001718721938178,0.0004212542262061377
-0.4978935538420046,-0.4978935538420046,0.9999570988684152,0.0004544308312810809
-0.49777968090056673,-0.49777968090056673,0.999937184557357,0.0004866467250806526
-0.49767629365960603,-0.49767629365960603,0.999664958663162,0.00043428237641460557
-0.4975634522641485,-0.4975634522641485,1.0005480388715953,0.00046228532932096974
-0.49738769928662807,-0.49738769928662807,1.0002168201462944,0.000435176397892513
-0.49726759405239135,-0.49726759405239135,1.0002193050255097,0.0004234045582021914
-0.4971592918984243,-0.4971592918984243,0.9991209154727952,0.0004849695252140741
-0.4970827019904391,-0.4970827019904391,1.0000714610404091,0.0004619018163970675
-0.4970286683223094,-0.4970286683223094,1.0000705094901918,0.0004643474426832638
-0.4969157543004258,-0.4969157543004258,0.9999076782276468,0.00045142803499851415
-0.4967657756678818,-0.4967657756678818,0.9996718995709575,0.0004463985918189238
-0.496647573543305,-0.496647573543305,1.0007427466667789,0.00044374569561167026
-0.4964700889766391,-0.4964700889766391,0.9999794624225571,0.0004327797496045797
-0.4963007718484732,-0.4963007718484732,1.000134077788751,0.0004611742003546703
-0.4962444893462816,-0.4962444893462816,0.9999507424055979,0.0004309209955361438
-0.4961618468973029,-0.4961618468973029,0.9997997425708768,0.0004564544978295234
-0.4960975020658225,-0.4960975020658225,1.0001753351189047,0.0004366021963708948
-0.49587199027373574,-0.49587199027373574,0.9999319127668604,0.0004421026555729266
-0.49577943150143255,-0.49577943150143255,0.9998835956863761,0.00043868831996402084
-0.4956014763425628,-0.4956014763425628,0.9994649668499378,0.00048287721775269754
-0.49546611252881123,-0.49546611252881123,1.0001816849481746,0.0004392586139946194
-0.4954034438233066,-0.4954034438233066,1.0001521562569398,0.00038674135904428743
-0.4953175303089665,-0.4953175303089665,0.9999627204045851,0.00046149901793647065
-0.49520352862600703,-0.49520352862600703,1.0003479156032,0.0004694960565713296
-0.4950786633999087,-0.4950786633999087,1.0003960009528985,0.00045845976976674864
-0.4949472846048593,-0.4949472846048593,1.000621136699554,0.0004720537450700761
-0.49481379034259587,-0.49481379034259587,0.9993966622419638,0.0004254233715543546
-0.4947198777270387,-0.4947198777270387,0.9999884898820953,0.00046302757945757423
-0.4945895615106565,-0.4945895615106565,0.9997197328941899,0.0005069898953452528
-0.49452686913355137,-0.49452686913355137,1.0006592483806167,0.00043793470404384965
-0.49446776435434003,-0.49446776435434003,0.9988179045403307,0.0004810198910580739
-0.49432315617596034,-0.49432315617596034,0.9994587170908487,0.0004558143989216168
-0.4942173473449657,-0.4942173473449657,1.0001468985845563,0.00044625646193443777
-0.49412891649626545,-0.49412891649626545,0.9998296010285701,0.0004339467077482797
-0.493976726391702,-0.493976726391702,1.0000562815221141,0.0004317484096310237
-0.49380270243636915,-0.49380270243636915,1.0004897234293146,0.0004755104451343741
-0.49371643820413735,-0.49371643820413735,1.0001312280396963,0.0004494510200730857
-0.4936450202927517,-0.4936450202927517,0.999811206884192,0.0004368046927815601
-0.49358428089035444,-0.49358428089035444,1.000033237969285,0.00043629190648447163
-0.4934600355416478,-0.4934600355416478,1.000191350635529,0.0004740761227722141
-0.4932716246097698,-0.4932716246097698,0.99949381538508,0.0004449215928531406
-0.4930831607140135,-0.4930831607140135,0.9994727136156545,0.0004834577371229905
-0.492948056361638,-0.492948056361638,1.0003739003605836,0.00043297385280159135
-0.4928905325148662,-0.4928905325148662,1.0002557078702299,0.0004210350260042182
-0.49281521453667665,-0.49281521453667665,1.0005362996997653,0.0004032623151424065
-0.4926850074312824,-0.4926850074312824,1.0002813602750984,0.0004660611335488262
-0.4925255554429896,-0.4925255554429896,0.9999699957039769,0.0004615294629237294
-0.49241716341857683,-0.49241716341857683,1.0001725597299242,0.00043013586505861247
-0.49226370316100654,-0.49226370316100654,1.0001414781962694,0.0004254559966850894
-0.492150273907464,-0.492150273907464,1.0004469069570336,0.00046757768986254523
-0.4920231048890855,-0.4920231048890855,1.0000344652274475,0.000506600779870048
-0.49195924473315245,-0.49195924473315245,0.9995983202233069,0.00043333692997336425
-0.4918804572887893,-0.4918804572887893,0.999912422962225,0.00047386147491502317
-0.49173777072064695,-0.49173777072064695,1.0000272580244152,0.0004261494064150493
-0.49164169890864284,-0.49164169890864284,0.9996030347863378,0.0004494155774320815
-0.4915425083192531,-0.4915425083192531,1.000218295490515,0.000439226792927726
-0.4913421738834586,-0.4913421738834586,1.0001185311346759,0.00046681741618729504
-0.4911829894874245,-0.4911829894874245,1.000243291598245,0.0004512197477169593
-0.49109440080355854,-0.49109440080355854,1.0002651381232162,0.00043619823637220805
-0.4910143534492818,-0.4910143534492818,0.9994990767579107,0.0004299856080380869
-0.49078334687728786,-0.49078334687728786,0.9998335311695635,0.00047606670447931487
-0.49056996322251506,-0.49056996322251506,1.0005431556908655,0.0004830955385019231
-0.4904114483491867,-0.4904114483491867,1.0005361802168817,0.000455358472409467
-0.49033562255644936,-0.49033562255644936,0.9998418774948391,0.0004232920790353891
-0.49024682243179996,-0.49024682243179996,1.000376796106409,0.00041194623600674627
-0.4901017485783086,-0.4901017485783086,0.9993772776337716,0.0004672366904304605
-0.48994071731867733,-0.48994071731867733,1.0002236731265177,0.00044887985071413326
-0.4897646798672213,-0.4897646798672213,0.9998245302146938,0.0004432373975981164
-0.4896327326561732,-0.4896327326561732,1.0000433785180245,0.0004610020629555655
-0.4894945461419411,-0.4894945461419411,1.0004089405997907,0.000499267022767324
-0.4894271350480267,-0.4894271350480267,0.9993312431115365,0.0004382744065140569
-0.4893570050553535,-0.4893570050553535,1.0000491037480947,0.0004683451601662251
-0.4892679475771729,-0.4892679475771729,0.9999357141984151,0.0004382113997166857
-0.4891407016097219,-0.4891407016097219,0.9999948708251433,0.0004471570265760031
-0.48906174768635535,-0.48906174768635535,1.000053350378984,0.00043163397171225336
-0.48892396505980285,-0.48892396505980285,1.0003928650947338,0.0004481676531026686
-0.48879569687123875,-0.48879569687123875,0.9998253194526947,0.0004702232037083564
-0.48862838016066235,-0.48862838016066235,0.9998550433769153,0.00045217673900972986
-0.48849184894861536,-0.48849184894861536,0.9997018069418525,0.0004414481781558037
-0.488359030806896,-0.488359030806896,1.0000365056675173,0.0004555389154031504
-0.4881346580659738,-0.4881346580659738,0.9990872339447339,0.0004748775744376083
-0.4880383703595726,-0.4880383703595726,1.0005017708864405,0.00047903565719044534
-0.4878780683837249,-0.4878780683837249,0.9993826780929369,0.0004714581628656639
-0.48778518068938864,-0.48778518068938864,1.0001782321043304,0.0003957556509648053
-0.4876507563480118,-0.4876507563480118,1.0004343165895984,0.0004471414099982393
-0.48746566889312815,-0.48746566889312815,0.9996203618988544,0.0004983289287342772
-0.4873262642591726,-0.4873262642591726,0.999556602466815,0.00044904401957626976
-0.48716008626215623,-0.48716008626215623,0.9996956207531866,0.00042418931882920376
-0.4870293559273705,-0.4870293559273705,1.0000268393391119,0.0005022734139062509
-0.48692260548123156,-0.48692260548123156,0.9998089991828181,0.0005016148240486238
-0.48683256412405174,-0.48683256412405174,0.9996254299780803,0.0004571572496369649
-0.4866893103629991,-0.4866893103629991,0.9997231081341674,0.00047949662110493234
-0.48656896830216284,-0.48656896830216284,1.000043599669222,0.00046585208666940673
-0.4864975076663541,-0.4864975076663541,0.9995475718323436,0.0004105710991728396
-0.4863565066953015,-0.4863565066953015,0.9989123177207582,0.0004697429624491321
-0.48626785018641383,-0.48626785018641383,1.0006201584463545,0.00047058618435761527
-0.4861205472952861,-0.4861205472952861,0.9993743141217237,0.0004705070243634756
-0.485997248050262,-0.485997248050262,0.9997079499264763,0.0004423715259227125
-0.4859205716267752,-0.4859205716267752,0.9992732763940205,0.0004564490010607723
-0.4856615150492871,-0.4856615150492871,1.0002819147394806,0.00045253775886908837
-0.48545204549227494,-0.48545204549227494,1.0001920445048114,0.0004622539914389659
-0.48531498158481556,-0.48531498158481556,0.9997682601855613,0.00045972469086641616
-0.48523517536887084,-0.48523517536887084,0.9999959949256632,0.00040717782095879676
-0.48509712577069874,-0.48509712577069874,0.9997787456174361,0.00045106075946572336
-0.48493324090377427,-0.48493324090377427,0.9998937303918887,0.00047729007121341175
-0.48484731557473426,-0.48484731557473426,1.000683090596046,0.00047082764207334983
-0.48471355478759504,-0.48471355478759504,1.0000013755045445,0.0004582246637889262
-0.48458781911685944,-0.48458781911685944,1.0000896838447564,0.00043215484442707364
-0.48448069818186923,-0.48448069818186923,0.9995425197846746,0.000493320242169579
-0.4843618227598199,-0.4843618227598199,1.0006926093269002,0.00045055086791191603
-0.48428851829157793,-0.48428851829157793,0.9994407770941713,0.0005065367549230008
-0.48420489027703295,-0.48420489027703295,1.000163977675919,0.00047611460820720105
-0.4840487004657916,-0.4840487004657916,1.0004715905847505,0.0004712368775355983
-0.4839801946167427,-0.4839801946167427,1.000020022453676,0.0004142755418126991
-0.48391074366154496,-0.48391074366154496,0.9998741468915331,0.00042221376651501477
-0.48376843107471357,-0.48376843107471357,1.000323735311348,0.0004491806780118438
-0.483655766947777,-0.483655766947777,0.9999274830577594,0.0005005141896966965
-0.4834748424575082,-0.4834748424575082,1.0003669622636082,0.00042739634350092017
-0.48337655265277135,-0.48337655265277135,0.9996634305389904,0.0004808514144749285
-0.4831831041810801,-0.4831831041810801,1.0003424910439898,0.0004526032903116706
-0.4829900204378646,-0.4829900204378646,0.9995734730354678,0.00045139250749650836
-0.4828439975361107,-0.4828439975361107,0.9997444811252274,0.00046616629570198136
-0.482735052001226,-0.482735052001226,1.0001928248065506,0.00040918130378602
-0.4825878265670326,-0.4825878265670326,1.0003138780536354,0.00041439959745062356
-0.48242397756985156,-0.48242397756985156,0.9997318489943859,0.00046791033549186035
-0.4823286132515932,-0.4823286132515932,0.9995791907634655,0.0004510741300116536
-0.4821628967671131,-0.4821628967671131,0.9996394361874117,0.00040851980714180796
-0.48200536577569436,-0.48200536577569436,0.9999305138604733,0.000471255031527315
-0.481880731403362,-0.481880731403362,1.000538194753164,0.0004757226082455075
-0.48178727622071166,-0.48178727622071166,0.9999555256157817,0.00048133023346901146
-0.4816881640574138,-0.4816881640574138,0.9994847308306255,0.0005013634039759635
-0.48152496204493217,-0.48152496204493217,1.0000815991961556,0.0004600621832829112
-0.4814516980033659,-0.4814516980033659,1.0000151062870235,0.0004314687805711826
-0.4814038911237731,-0.4814038911237731,0.9998842332808995,0.0004101132134099279
-0.48129660427657656,-0.48129660427657656,0.9999829209696418,0.00045486973370476095
-0.48120014013475154,-0.48120014013475154,1.0000447538286528,0.0004496730922303288
-0.48105440016297507,-0.48105440016297507,1.00011706440441,0.0004844857885012995
-0.480952663874632,-0.480952663874632,1.0000319936084878,0.0004369198825489147
-0.4808387814708112,-0.4808387814708112,1.000314634398142,0.000436940167859044
-0.48074891945871057,-0.48074891945871057,0.9996676333122266,0.00047565530379397073
-0.4804839763943164,-0.4804839763943164,1.0007552306063583,0.0004448905204226354
-0.480240557979414,-0.480240557979414,0.999427438917013,0.0004586006370417785
-0.4801388970721746,-0.4801388970721746,1.0001737509476658,0.0003916363177172565
-0.47997983652894616,-0.47997983652894616,1.0002508559966228,0.00046128610117142
-0.47982969353033694,-0.47982969353033694,0.999873799303562,0.00044863715856916246
-0.4797668990744569,-0.4797668990744569,1.0000603927548801,0.0004538167847671134
-0.47949326905873024,-0.47949326905873024,0.9998655524975751,0.00046245910528963435
-0.4793824058549944,-0.4793824058549944,0.9996953493584858,0.00048180710952461724
-0.47925885158911113,-0.47925885158911113,0.9998817615525487,0.0004253613021789349
-0.47918158737447814,-0.47918158737447814,1.0003982094059993,0.0005222540640829283
-0.47907391503176766,-0.47907391503176766,1.0001343614151417,0.00045647293736761786
-0.4789443080262572,-0.4789443080262572,0.9998439888505356,0.00045040163796865415
-0.4788877066275745,-0.4788877066275745,0.9997048019387644,0.00041922745015259027
-0.4788286864866677,-0.4788286864866677,0.9997059844965731,0.00044079982249660887
-0.47866569096804595,-0.47866569096804595,0.9999547318448438,0.00045962231599295963
-0.4784996205336938,-0.4784996205336938,0.999647796882714,0.00048495065091432005
-0.4784184363910754,-0.4784184363910754,0.9993219898080732,0.00042419771169642544
-0.47832929238211364,-0.47832929238211364,0.9999227926344538,0.0004522934386735648
-0.47828172652807555,-0.47828172652807555,0.999873429594501,0.0004707895428466624
-0.47811828277262974,-0.47811828277262974,0.9998753647059926,0.00045803150276672405
-0.4778702850220725,-0.4778702850220725,1.0002734593938758,0.000454984498238403
-0.4776612219837261,-0.4776612219837261,1.000267197390939,0.0004389463050179332
-0.477540435778792,-0.477540435778792,1.0001014485134578,0.0004242095556408618
-0.47738848047883947,-0.47738848047883947,1.0004366335522021,0.0004662669375033503
-0.47723647019738563,-0.47723647019738563,1.0006103837942593,0.00047038129007176687
-0.47703433577844406,-0.47703433577844406,1.0006450110757175,0.0004250838165879106
-0.47689351747758335,-0.47689351747758335,1.0000137243581004,0.00048639046765690166
-0.4767860173516965,-0.4767860173516965,0.9998112018637068,0.00046500426443717114
-0.47668269775022054,-0.47668269775022054,0.9998319078526696,0.00046547933365213596
-0.4765885628097749,-0.4765885628097749,1.000356709896451,0.0005032389996120111
-0.4764865209137497,-0.4764865209137497,0.9992497325148172,0.0004399723592992715
-0.4763695206893317,-0.4763695206893317,1.0000364054643995,0.00044577166966856395
-0.4763267300790176,-0.4763267300790176,1.000266720519155,0.0004023192482943983
-0.4761789687785495,-0.4761789687785495,0.999530678085003,0.00045138336431636665
-0.4759503484485322,-0.4759503484485322,0.9995597680124453,0.00047890708795234743
-0.47581780505061033,-0.47581780505061033,1.0006543245586126,0.0004432277052834015
-0.47574228954908904,-0.47574228954908904,0.9995287754651108,0.0004847425473220998
-0.47564065279075296,-0.47564065279075296,1.000050331150876,0.000460064968102327
-0.4753964197720052,-0.4753964197720052,1.0003846378940626,0.0004416873050865238
-0.475089000974549,-0.475089000974549,0.9998419315961551,0.00040895672481478494
-0.47493130142756856,-0.47493130142756856,1.0004244683559083,0.0004441325231912561
-0.4747293261840241,-0.4747293261840241,1.0001151975817002,0.00045784942366852087
-0.47456162733215024,-0.47456162733215024,0.9998445711532152,0.00043206037014425727
-0.47438212571141775,-0.47438212571141775,0.9999353141171534,0.0004530492376437563
-0.4742964050325099,-0.4742964050325099,1.0002692156188897,0.0004939377409279408
-0.4741614258789923,-0.4741614258789923,1.0001074487306476,0.00042455675053619253
-0.4741066648464766,-0.4741066648464766,0.9999923207323775,0.0004921913269274933
-0.47402074004203315,-0.47402074004203315,1.0001309551525177,0.00048524826315969095
-0.47388706526180613,-0.47388706526180613,0.9996870293974194,0.0004603801932343642
-0.4737961278173316,-0.4737961278173316,0.999971208057002,0.000425520478777951
-0.4737021028326126,-0.4737021028326126,0.9999619559696296,0.0004068111465787636
-0.47345507311620166,-0.47345507311620166,1.0001673011674428,0.000500258737377884
-0.4732609903301636,-0.4732609903301636,0.9998581253264687,0.00045245838382892447
-0.4731662713245896,-0.4731662713245896,0.9999079702470028,0.0004733381919106384
-0.47304281888500554,-0.47304281888500554,0.9997260283345938,0.0004517659723391112
-0.4728320201087627,-0.4728320201087627,1.0001426496956924,0.00044343080723429804
-0.47257229598690176,-0.47257229598690176,0.9995869528161817,0.00048025097776731524
-0.4723950285660976,-0.4723950285660976,0.9999064708788268,0.00039573088094162255
-0.4722420908859931,-0.4722420908859931,1.0004450298493641,0.00045786297076326986
-0.4721021924451634,-0.4721021924451634,1.0002287538838868,0.0004514303101660389
-0.4718847560157883,-0.4718847560157883,0.9995445672525645,0.0004509961012028201
-0.471786834843806,-0.471786834843806,0.999682332932393,0.0004847665555314455
-0.4716605413108482,-0.4716605413108482,0.9997820969762049,0.00046323900422524033
-0.4715661365808046,-0.4715661365808046,0.9995304261624579,0.0004807860509639649
-0.4714774084808596,-0.4714774084808596,0.9998827644416579,0.0004587205799149497
-0.4714113845904649,-0.4714113845904649,1.0007926261820481,0.0004859565717285916
-0.47127924596861703,-0.47127924596861703,1.0006320411591887,0.00047068747496367924
-0.4712136855327117,-0.4712136855327117,1.0005542226189752,0.0004257656278112925
-0.4710287171510572,-0.4710287171510572,0.9998104401357686,0.0004329634144732337
-0.4708150956990721,-0.4708150956990721,1.0003356212415282,0.00048678408379580355
-0.47066068396161426,-0.47066068396161426,0.9996378678554965,0.00044900299097445153
-0.47054168984250283,-0.47054168984250283,0.9998621901398559,0.00046011991382474996
-0.4703674426426005,-0.4703674426426005,1.0000909875207604,0.00044887397025685644
-0.47012516970862633,-0.47012516970862633,0.9999361494516357,0.00048795220592636113
-0.46994035826646724,-0.46994035826646724,1.000177091689082,0.00042070701571650566
-0.4697731112442852,-0.4697731112442852,1.0004144330797013,0.00046299288080132816
-0.4695698841263948,-0.4695698841263948,0.999991869389708,0.00044967021322049155
-0.4694578478774929,-0.4694578478774929,0.9999561417950685,0.0004302464526730589
-0.4692690846481128,-0.4692690846481128,0.9997198157187741,0.0004766119532243685
-0.46920454989303834,-0.46920454989303834,1.0001898843022796,0.0004911849070334681
-0.46906196599302347,-0.46906196599302347,1.00012072484371,0.00045437765222045706
-0.46899260454447356,-0.46899260454447356,0.99883408285855,0.00048627427270391075
-0.46892147546750496,-0.46892147546750496,1.000501197398333,0.0004908338509455764
-0.46878445703550825,-0.46878445703550825,1.0010185023855136,0.00047976239053916525
-0.46866696173819944,-0.46866696173819944,1.000013614016692,0.0004184504159729991
-0.4685033838075469,-0.4685033838075469,0.9998111201533829,0.00042310021633092684
-0.46835585349763276,-0.46835585349763276,0.9999326001165144,0.0004886640507364272
