time,time,flux,flux_err
-0.4999519210808406,-0.4999519210808406,1.0001183194605803,0.0005251421682436999
-0.49983463591343025,-0.49983463591343025,0.9999175883563459,0.0005760197346652683
-0.4997143648564816,-0.4997143648564816,0.9999633695613582,0.00046877877437032247
-0.49960122231568677,-0.49960122231568677,0.9995351447511794,0.0005141019879690069
-0.4994806252012495,-0.4994806252012495,1.000987408597938,0.0004674931870857691
-0.49936786243342796,-0.49936786243342796,1.0002920899452221,0.0005136033117932556
-0.4992601714271586,-0.4992601714271586,0.9993652147501371,0.0004690811629216426
-0.499166296920157,-0.499166296920157,1.0002484471061377,0.0005154150155891642
-0.49904340188659263,-0.49904340188659263,1.0000687077801433,0.0004783901517516862
-0.49888669797219337,-0.49888669797219337,1.00001471248508,0.0004971842930069887
-0.4986281038465677,-0.4986281038465677,0.9997790510156795,0.0005029077950849506
-0.498337642516708,-0.498337642516708,1.0002875635816024,0.0004566377299726018
-0.49814382276672403,-0.49814382276672403,1.000234977578639,0.00040914891899667815
-0.4978868532489287,-0.4978868532489287,0.9995227914432772,0.0006263901803760176
-0.49739101563754956,-0.49739101563754956,0.9999359799401202,0.0004883115139237891
-0.4970206619531382,-0.4970206619531382,1.0003019392707553,0.0004397128159888535
-0.4968377339449944,-0.4968377339449944,1.0004688118100724,0.0004821323110359723
-0.49669008906930684,-0.49669008906930684,1.000610720591402,0.00046050602876461337
-0.49640541318804027,-0.49640541318804027,0.9999801733644368,0.00043726541053833444
-0.49615704522875603,-0.49615704522875603,0.9999692051641539,0.00044502115639289487
-0.4958943975128932,-0.4958943975128932,1.0001340723679468,0.00047929308150673435
-0.495741886011092,-0.495741886011092,1.0002500704133728,0.000480503281365166
-0.4955919887026539,-0.4955919887026539,1.00015649528452,0.000481453498918658
-0.49535029379476325,-0.49535029379476325,0.9999655752722288,0.00045084439112270193
-0.49523148993612265,-0.49523148993612265,1.0003863201275542,0.0005101822800185247
-0.4950992634287104,-0.4950992634287104,0.999678910538832,0.0004722445263767606
-0.49497184570354874,-0.49497184570354874,1.0004325019707072,0.000487963638739773
-0.49479565702204126,-0.49479565702204126,0.9998922284854581,0.00048516534391056937
-0.4946060385555029,-0.4946060385555029,0.9998039566770128,0.0004879636304385319
-0.49442272887099536,-0.49442272887099536,1.000173272374282,0.0005335918672140221
-0.4942605054238811,-0.4942605054238811,0.9994639456015755,0.0004857868172437743
-0.4941433128376957,-0.4941433128376957,0.9996607116291922,0.00047681588211359626
-0.4940338942571543,-0.4940338942571543,0.9997390796349659,0.00047824446889580566
-0.49392597647092773,-0.49392597647092773,0.999585439646992,0.0005499552099201186
-0.4938202374993125,-0.4938202374993125,1.0003100297431757,0.00044708770700044016
-0.4937028731306782,-0.4937028731306782,0.9995235755092755,0.0004929165051714063
-0.4936031065793941,-0.4936031065793941,0.999759560220944,0.0004036116082381569
-0.49352645057369954,-0.49352645057369954,1.0006381581329395,0.0004937138223799728
-0.49343686321517455,-0.49343686321517455,1.0003080987676465,0.0004483294776761374
-0.49335282656538765,-0.49335282656538765,0.9995467021675587,0.0004937366628005041
-0.4932625564804766,-0.4932625564804766,1.0000861435773885,0.000424949754012074
-0.49316288658301344,-0.49316288658301344,1.0003963418578001,0.0005312346922634678
-0.4930551287601702,-0.4930551287601702,1.0003151694353316,0.00046925429971790957
-0.4929525186744286,-0.4929525186744286,1.0002720574285302,0.0004937129644381492
-0.49283750223985406,-0.49283750223985406,1.0005767539889994,0.00046972438347677657
-0.4926963997946586,-0.4926963997946586,1.0000729564308894,0.0004939308525371735
-0.4925889137433842,-0.4925889137433842,0.9996882989152404,0.0004692216225120818
-0.49244586005515883,-0.49244586005515883,0.9997537320326856,0.0005342098215496588
-0.49225218980864155,-0.49225218980864155,0.9999363386124406,0.0005565787269255681
-0.49202240687154697,-0.49202240687154697,0.9995064009540717,0.0005950044764440612
-0.4918215435376624,-0.4918215435376624,1.0001889201700844,0.0005442832553902403
-0.4915758719405858,-0.4915758719405858,0.9994455934919927,0.0005631022558406223
-0.49133413344388827,-0.49133413344388827,1.000641245984428,0.00048734302302486587
-0.4910931211634306,-0.4910931211634306,1.0001077016602855,0.000531043706752555
-0.49076163234130943,-0.49076163234130943,1.0002655408743926,0.0005317918786191518
-0.49047502150642686,-0.49047502150642686,1.0006698739744182,0.0005965032722625272
-0.4902185066137463,-0.4902185066137463,0.9999233995723131,0.0006560792849635965
-0.489989467538544,-0.489989467538544,1.0004239474555938,0.000552487764758862
-0.48977551065327135,-0.48977551065327135,0.9994825449739075,0.000576127837576413
-0.48964856496313586,-0.48964856496313586,0.9996534826165926,0.000573466340790859
-0.4895262060977984,-0.4895262060977984,1.0000090432366568,0.0005093411290975665
-0.48941641208075454,-0.48941641208075454,1.00012466050848,0.0006047540905946057
-0.489251823865925,-0.489251823865925,0.999864587845597,0.0004939274705772565
-0.489084599565831,-0.489084599565831,1.0000348534517225,0.0006132530079350295
-0.4888875733100576,-0.4888875733100576,1.000567266765141,0.0005273849149858088
-0.48877327432273887,-0.48877327432273887,0.9996929680126028,0.0005028478761606313
-0.48873268527095204,-0.48873268527095204,1.0012002804480205,0.00051894435242836
-0.48868941751716194,-0.48868941751716194,1.000095174934519,0.00047074643700125297
-0.488676614157157,-0.488676614157157,1.0001557603349698,0.0005646213783122521
-0.4886645061866147,-0.4886645061866147,1.000081606917129,0.0004660843249614915
-0.48865381289215293,-0.48865381289215293,0.9993632421867547,0.00044775932340606505
-0.4886421829520259,-0.4886421829520259,0.999861092821565,0.00048186901819190903
-0.48863230393617413,-0.48863230393617413,0.9998737997150606,0.00046367457964037863
-0.48862178054987454,-0.48862178054987454,1.000110525094921,0.00048056763833915345
-0.48861254246730823,-0.48861254246730823,1.0002740860333554,0.0004633270567966054
-0.48860220357892103,-0.48860220357892103,1.000284460139183,0.00046278660495493686
-0.488585917808814,-0.488585917808814,0.9995835711585743,0.0005618429054042761
-0.4885726937005529,-0.4885726937005529,1.000155695377439,0.000575932476259944
-0.4885639605956385,-0.4885639605956385,0.9997058437895253,0.0006502948594633031
-0.48855401021719447,-0.48855401021719447,1.0000634862727993,0.0005100512188077544
-0.48854534059937577,-0.48854534059937577,1.000177294783931,0.00044691492933585325
-0.4884230899857357,-0.4884230899857357,1.0001813332840839,0.00042703800520832853
-0.48835359523363875,-0.48835359523363875,1.0005330504136292,0.0005456695751388193
-0.488328296126565,-0.488328296126565,0.9999546368659008,0.00052917048663215
-0.4883161022036802,-0.4883161022036802,1.0001719357183023,0.000486048344833277
-0.4883028784097405,-0.4883028784097405,0.99947473650662,0.0005025019285505811
-0.48829087621707,-0.48829087621707,0.9989712334248549,0.0005286507710170468
-0.488280129226041,-0.488280129226041,1.0003559691876582,0.0005238111323096101
-0.4882698785891989,-0.4882698785891989,0.9994858393512386,0.0005297154402049789
-0.48826020255219194,-0.48826020255219194,1.000461206091939,0.0005111160395052582
-0.48825179352134,-0.48825179352134,1.0002595463733912,0.0005286754372453248
-0.4882451784884324,-0.4882451784884324,1.0005864731694651,0.0005213119961923081
-0.4882394989224849,-0.4882394989224849,0.9994318052498065,0.0005334213291913771
-0.48823261562210973,-0.48823261562210973,0.9997208029738796,0.0005325390914932749
-0.4882251805043779,-0.4882251805043779,1.0001196138671595,0.0005324214483035367
-0.4882219874212751,-0.4882219874212751,0.9994165385342442,0.0005285450464605562
-0.48820345612766686,-0.48820345612766686,1.0000149209872724,0.0004980084828634497
-0.4881149375898531,-0.4881149375898531,1.000213723868765,0.00048216995718699607
-0.4879393787123263,-0.4879393787123263,1.0008948513713276,0.0005021199375434067
-0.4877361036458751,-0.4877361036458751,1.0001538891717867,0.0005193561235679305
-0.48766513936570843,-0.48766513936570843,1.0000133334934282,0.00048793786567506833
-0.48763631643669214,-0.48763631643669214,0.9998511034810009,0.00048305427277415
-0.487604040154838,-0.487604040154838,1.0002122960283812,0.000493683995547019
-0.4875688009837177,-0.4875688009837177,1.0005922928863238,0.0005110929255939949
-0.4874892471387284,-0.4874892471387284,1.0000915944242028,0.0005536000690087282
-0.4873703171004308,-0.4873703171004308,0.9999103059662225,0.0004644367955095853
-0.4872590928775026,-0.4872590928775026,1.0003753676861864,0.0005531157611750843
-0.487106445239624,-0.487106445239624,0.9996393504337296,0.0005486210349224085
-0.48697489438345654,-0.48697489438345654,1.0002515153899556,0.00048728112278643065
-0.4868999214289943,-0.4868999214289943,0.9998436299756281,0.0005267216163147567
-0.486847045851755,-0.486847045851755,1.0003367035303259,0.0005177198548553197
-0.4867740604153369,-0.4867740604153369,1.0000753488818055,0.0004773605118377639
-0.4867204635957023,-0.4867204635957023,0.9994802923627901,0.0005060194862337345
-0.48666875456110575,-0.48666875456110575,1.000389429970817,0.0005217609468817664
-0.48659784195187966,-0.48659784195187966,0.9993974612285852,0.0005009925260364382
-0.4865351079002721,-0.4865351079002721,1.000362847779699,0.00047466635685879154
-0.4864832583582029,-0.4864832583582029,0.9995641827116339,0.0005427320434349914
-0.48642101224104406,-0.48642101224104406,1.0002124430879307,0.0005069534958465711
-0.4863018844247563,-0.4863018844247563,0.9999712649346455,0.0005360761682584589
-0.4861692925856914,-0.4861692925856914,1.0000383763180687,0.0005170101088225335
-0.4860314244317124,-0.4860314244317124,0.9998755005328579,0.000503913813539288
-0.4858962188998703,-0.4858962188998703,1.0000681148287587,0.0005569129699572954
-0.4857653493207181,-0.4857653493207181,0.9995345454486904,0.0004567865092228997
-0.48567092113953547,-0.48567092113953547,1.0006450760180863,0.0005041193155477057
-0.48564253057411405,-0.48564253057411405,1.0003333140589454,0.00047713959088632377
-0.4855864616780309,-0.4855864616780309,1.0005601470146996,0.0004878344263778531
-0.4855137237813324,-0.4855137237813324,0.9996885723420981,0.00045887202122948077
-0.48548586129327304,-0.48548586129327304,1.0000854485835546,0.0005127021261410708
-0.48543427577242254,-0.48543427577242254,0.9997404128119471,0.0004502155228054614
-0.48536257082596423,-0.48536257082596423,0.9999575943168626,0.00047807378864897395
-0.48530712377105373,-0.48530712377105373,0.9996496147426417,0.0004946831213418025
-0.4852370207197964,-0.4852370207197964,0.9997957835347255,0.00046860734621386363
-0.48518595631758216,-0.48518595631758216,1.000036146204928,0.00045646581678337686
-0.48510353929596023,-0.48510353929596023,0.9999607762867464,0.0005155058087206425
-0.4850474066857714,-0.4850474066857714,1.0001968612314784,0.0004563590485343232
-0.48500616883975456,-0.48500616883975456,1.0000989949801877,0.00047126482333762827
-0.48488367970858237,-0.48488367970858237,0.9998412220324658,0.0004450232619671417
-0.4847976930614095,-0.4847976930614095,1.0002266922017418,0.0005163661814613026
-0.4847003864793805,-0.4847003864793805,1.0006012570385827,0.00045339701596696464
-0.48456895936105865,-0.48456895936105865,1.0001121177405305,0.00048792609359775955
-0.4843960181809962,-0.4843960181809962,0.9995032196584299,0.0004759256044947293
-0.4842022415337851,-0.4842022415337851,1.0006122761056633,0.00047470202748980874
-0.4840597531001549,-0.4840597531001549,1.0002759641615584,0.00047622733142869283
-0.4839436079171719,-0.4839436079171719,0.9992162503359003,0.00042735545472300754
-0.48380322740704285,-0.48380322740704285,1.0006812412980417,0.00047556389909168725
-0.4836099089763593,-0.4836099089763593,1.001063074254676,0.0005149026724422792
-0.48338236605923157,-0.48338236605923157,0.9997562297639023,0.0005162901863924747
-0.48325445590890015,-0.48325445590890015,1.0002349442160114,0.0005244338724677624
-0.48315881911257746,-0.48315881911257746,0.999833195224127,0.00048063887194356474
-0.48300324811716566,-0.48300324811716566,0.999895004215789,0.0005155695226419308
-0.4829019637807505,-0.4829019637807505,1.0002739799873717,0.00045754912037151784
-0.4828121498256223,-0.4828121498256223,0.9998966531701596,0.0004778247789615996
-0.4827002669509966,-0.4827002669509966,0.9993920163591772,0.0004798947655084183
-0.48260595663450656,-0.48260595663450656,0.9996108364404186,0.0004669108526933259
-0.4825421991699841,-0.4825421991699841,0.9999103743431771,0.0005077860964697745
-0.48244135977583935,-0.48244135977583935,0.9998925862077834,0.00039472526360261224
-0.48234473876073025,-0.48234473876073025,0.9994730737915802,0.000485013654474002
-0.482240429171361,-0.482240429171361,0.999553437474955,0.0004402092940477652
-0.4821882211312186,-0.4821882211312186,1.0000060378772182,0.0005404415013981436
-0.4821270056214416,-0.4821270056214416,0.9999685742313803,0.00043809479077642696
-0.482048104389105,-0.482048104389105,1.0001515293337164,0.0004593778865652319
-0.4819722325890325,-0.4819722325890325,0.9995409965341631,0.00047421082348467403
-0.48187590702436867,-0.48187590702436867,1.0003719819766315,0.0004359459735163799
-0.48179502846614924,-0.48179502846614924,0.9994750494536696,0.0004966364446210029
-0.4817016077053268,-0.4817016077053268,0.9999772676163501,0.00045855225253609917
-0.4816094512410928,-0.4816094512410928,1.0000122620922034,0.00043631412118491034
-0.4815225093800109,-0.4815225093800109,1.0000839434537363,0.0005059541854242391
-0.48141250272747127,-0.48141250272747127,0.9989150968238938,0.0004614316051027234
-0.4813138399127638,-0.4813138399127638,0.9992048088164698,0.000499507604690681
-0.48117894944152795,-0.48117894944152795,1.00031681264699,0.0005029137046546282
-0.48106426117301454,-0.48106426117301454,0.9998497945088853,0.0004915289301344958
-0.4809255899192067,-0.4809255899192067,0.9995841937807242,0.0005403154066413014
-0.4807634336873889,-0.4807634336873889,1.0001642261302623,0.00047848779777290914
-0.4806426927942084,-0.4806426927942084,0.999258255113387,0.0005403335361506221
-0.4803672333538998,-0.4803672333538998,0.9998397758574076,0.00040366717951642464
-0.48004136236268097,-0.48004136236268097,1.0001732489489674,0.00044571482573301955
-0.47976662172877693,-0.47976662172877693,1.0000067363539293,0.0004469106123007881
-0.479509901770507,-0.479509901770507,1.0002774162523254,0.0005350100781801221
-0.47929971119447146,-0.47929971119447146,0.9999386855066318,0.0004162896156791906
-0.47908463652129285,-0.47908463652129285,0.9996704793833274,0.0004161577890460872
-0.47887840296607465,-0.47887840296607465,1.0003911049747491,0.0004695653516644139
-0.4787480826867977,-0.4787480826867977,1.0002865462456452,0.0005100796295631425
-0.4786395685427124,-0.4786395685427124,0.9998673065647035,0.00045131748410095926
-0.47834034748666454,-0.47834034748666454,0.9994724815933974,0.0004953287324480188
-0.47795912829460574,-0.47795912829460574,0.9996181526133399,0.0005395008006002943
-0.4776984113646904,-0.4776984113646904,0.9996537165609951,0.0004642424993664861
-0.4774439883418381,-0.4774439883418381,1.0008539562419199,0.0004546612570619283
-0.4772202894935617,-0.4772202894935617,1.0000406175363639,0.0005145239793512186
-0.47696388368785847,-0.47696388368785847,1.0000562177192955,0.0004687839531802186
-0.4767119303374784,-0.4767119303374784,0.9992970113670065,0.0004975424442081676
-0.47652409824659114,-0.47652409824659114,1.0001281523777894,0.000533424209176554
-0.47636615569936114,-0.47636615569936114,1.0000580690497747,0.0005257923994689358
-0.47623532126599455,-0.47623532126599455,1.0000229896109645,0.0006672527613695381
-0.4760904434224358,-0.4760904434224358,0.9998517045785423,0.0004683177971741355
-0.4759611637680791,-0.4759611637680791,0.999909936047526,0.0005926915876530135
-0.4758715919480892,-0.4758715919480892,0.9995878709756024,0.0006855757175417818
-0.4757949183200253,-0.4757949183200253,1.000134664271106,0.0005917547766789806
-0.47563135999662337,-0.47563135999662337,1.0002225711674306,0.00048496357901869024
-0.4755133312399266,-0.4755133312399266,1.0003128394768943,0.0004497451540404486
-0.4753257650969317,-0.4753257650969317,0.9997263428615589,0.0005210210132914242
-0.47512194950541015,-0.47512194950541015,1.0000709545105582,0.0005142963445192816
-0.47487456421076785,-0.47487456421076785,1.0002701647964871,0.0007072589209036996
-0.47474437421769833,-0.47474437421769833,0.9996804800295189,0.0007185240163235559
-0.4745526015409268,-0.4745526015409268,1.0001225706115,0.0005815435374555069
-0.4744395564630395,-0.4744395564630395,0.9995625778692588,0.0007533154815856926
-0.4743342978676083,-0.4743342978676083,0.9998893080398462,0.0006731528731657741
-0.47412498091580346,-0.47412498091580346,1.0004342558909016,0.0004735529926558674
-0.4739250417100266,-0.4739250417100266,1.0002814679281855,0.0005128897081453753
-0.47375780790753197,-0.47375780790753197,1.0004122023691457,0.0005601408983497401
-0.47368010036298075,-0.47368010036298075,1.000010243121991,0.0006585248098241739
-0.4736013607267523,-0.4736013607267523,1.0000205091253247,0.0007211938729986641
-0.4735484151664423,-0.4735484151664423,0.9996037288306727,0.0007334321956110109
-0.47344770944910125,-0.47344770944910125,0.9995674279908922,0.0004999191856796769
-0.473392779630376,-0.473392779630376,0.9993268447078009,0.0005827647715714224
-0.47337088618951384,-0.47337088618951384,1.0009202522705631,0.0005389072885908908
-0.4733614076569211,-0.4733614076569211,0.999552276367441,0.0004846143055868055
-0.47335150030558,-0.47335150030558,1.0000118771544613,0.0005938222711618893
-0.47334320277732334,-0.47334320277732334,0.999914500673402,0.0006078615534147008
-0.4733335788798286,-0.4733335788798286,1.0005617358983847,0.0006030581924888936
-0.473314506188035,-0.473314506188035,0.9999905611301012,0.0005256132957929471
-0.4732921088492731,-0.4732921088492731,0.9997152602355375,0.0006226734679307311
-0.4732698716368759,-0.4732698716368759,0.9999039506817862,0.0006369032852896913
-0.4732548766158288,-0.4732548766158288,0.9999640352036465,0.0007997313917015601
-0.47323793116083834,-0.47323793116083834,0.9998331258304372,0.0007843792299734944
-0.4732209549838444,-0.4732209549838444,1.0006655440006476,0.0007994513073657075
-0.47320887036621573,-0.47320887036621573,0.999916982406295,0.0008061517187247251
-0.47317723923479205,-0.47317723923479205,1.0004127177633164,0.0008510370599937311
-0.47314442369097376,-0.47314442369097376,0.999934736694988,0.0004900146052989318
-0.47307093082927165,-0.47307093082927165,0.9994866934364008,0.0004823878820155349
-0.47295547208341304,-0.47295547208341304,0.9998031661484428,0.00047554096939813234
-0.4728569560800679,-0.4728569560800679,0.99952420791347,0.0005125097617487192
-0.4728041991387727,-0.4728041991387727,1.0003304012744691,0.0005284606048203942
-0.47276012594811617,-0.47276012594811617,0.9992028216198425,0.0005451795104232608
-0.472730072127888,-0.472730072127888,0.9995358726781192,0.000528509921141556
-0.47270109529781623,-0.47270109529781623,1.0003936356572873,0.0005029968473857228
-0.4726822983269813,-0.4726822983269813,1.0002694697966494,0.0005286126176605184
-0.47266466432774906,-0.47266466432774906,1.0011726875816582,0.000528889317294402
-0.472652450329042,-0.472652450329042,1.0000906499388549,0.0005290574208675828
-0.47255390555947085,-0.47255390555947085,1.0001533460235505,0.0004671288522519127
-0.4722204222256551,-0.4722204222256551,0.999555709623935,0.00048570272940141315
-0.47174117373360785,-0.47174117373360785,0.9999893920829896,0.0004302955668160982
-0.47135845181473995,-0.47135845181473995,0.9998154233716525,0.0004997793121235736
-0.4707643928413745,-0.4707643928413745,1.0002264404224785,0.0005184398475524424
-0.47043983029725495,-0.47043983029725495,0.9994364807103343,0.00047942873651191965
