time,time,flux,flux_err
-0.49996990860745427,-0.49996990860745427,0.9999800911065696,0.0001182905951451794
-0.4998919672420016,-0.4998919672420016,0.9999111552447146,0.00012078269551057857
-0.4997526426690456,-0.4997526426690456,1.000115729794955,0.0001125714865709364
-0.49964823626942234,-0.49964823626942234,1.0000196893539552,0.00010929023432009822
-0.4995535903595737,-0.4995535903595737,1.00003882809948,0.00011640286288349658
-0.49948494492127793,-0.49948494492127793,1.0000775978705063,0.00010922571528837593
-0.49940228354462307,-0.49940228354462307,1.0000299861866793,0.00011004942130962692
-0.49933486134250415,-0.49933486134250415,0.9999166427865445,0.0001113736577439132
-0.4992463835027593,-0.4992463835027593,1.0000162555524625,0.00011316570224628153
-0.4990483277266321,-0.4990483277266321,0.999970153271019,0.00012025914861965546
-0.4988367337551608,-0.4988367337551608,1.0000058182050968,0.00011687402962406585
-0.49869215984726906,-0.49869215984726906,1.0001220209754431,0.00011542468872987861
-0.49857100294175327,-0.49857100294175327,1.0000872820757347,0.00011663299231832814
-0.49848441493522844,-0.49848441493522844,1.0000435370837546,0.00011465591356164874
-0.4983801835332997,-0.4983801835332997,1.0000512707940254,0.00010909379212525995
-0.4982807696542295,-0.4982807696542295,0.9998286902517439,0.0001135663865315388
-0.4981928105422412,-0.4981928105422412,1.000026576308727,0.00011437282004284497
-0.49808599349635185,-0.49808599349635185,1.0001569181959766,0.00010923658425080794
-0.49793328902087525,-0.49793328902087525,1.0000777119028728,0.00011465104594624267
-0.4977039652716485,-0.4977039652716485,0.999993286161606,0.00011095542533289531
-0.4975024292260059,-0.4975024292260059,1.0000084664954134,0.00011809755293712193
-0.4972910272954323,-0.4972910272954323,1.0000949511010266,0.0001106792632638112
-0.49718170523192384,-0.49718170523192384,1.0000487571017955,0.00011506679594120053
-0.49709370696582483,-0.49709370696582483,1.000076714009279,0.00012008656725470759
-0.4970465667305689,-0.4970465667305689,1.0000532072164663,0.00011142832149741244
-0.49671003750845555,-0.49671003750845555,1.0000122124859012,0.00010842670224301654
-0.49658891105718794,-0.49658891105718794,1.0000259285301392,0.00011866013703851627
-0.49643620432470925,-0.49643620432470925,1.0001286873392856,0.00010785359416892165
-0.49628500164471917,-0.49628500164471917,1.0001076657139083,0.00012142823154996215
-0.4961866581528739,-0.4961866581528739,0.9999605472922445,0.00010914426669518811
-0.49605551541244497,-0.49605551541244497,0.9998825529415566,0.00011456363665463187
-0.49588250974484255,-0.49588250974484255,0.9999284125611609,0.00011235608298088065
-0.4957873782455863,-0.4957873782455863,0.999942716324483,0.00011693983830774709
-0.4956304786828696,-0.4956304786828696,1.0000222728754509,0.0001068246683508826
-0.4954266937020293,-0.4954266937020293,1.0000821598034944,0.00011078046516154315
-0.49526588820372125,-0.49526588820372125,0.999862774999188,0.00010888544100057561
-0.49508542301991837,-0.49508542301991837,1.0001412548310922,0.00011735579627144488
-0.49500073326271377,-0.49500073326271377,1.0002336178987385,0.00011013107007311359
-0.49494895475072553,-0.49494895475072553,1.0000337258061816,0.00011484168471311313
-0.4948534889983421,-0.4948534889983421,1.0000347217736845,0.0001181900495638793
-0.49476825240199107,-0.49476825240199107,0.9999494376666155,0.00010914025128870507
-0.49464538893807913,-0.49464538893807913,1.0001755880156449,0.00011979751637179841
-0.49452093967993277,-0.49452093967993277,1.0002036615930738,0.00010989065080621013
-0.4944661746012571,-0.4944661746012571,1.0000314941781583,0.00011385457392379641
-0.4943599866433942,-0.4943599866433942,1.0000121778444382,0.00011201468622487798
-0.49423370091317337,-0.49423370091317337,1.0000132040605578,0.00011543780923730842
-0.4940429596776085,-0.4940429596776085,1.0000039959959008,0.0001282110854845515
-0.49393737254504233,-0.49393737254504233,0.9997919779789839,0.00011094133512640374
-0.4938454581097176,-0.4938454581097176,1.0000060039940268,0.00011076578497673086
-0.493750183226075,-0.493750183226075,1.0000554004158348,0.00011596961029529057
-0.49367339387827086,-0.49367339387827086,0.9999199930121285,0.00011748841137324303
-0.49359725040776536,-0.49359725040776536,1.0000696057250258,0.00011892801292016431
-0.4935105669152108,-0.4935105669152108,1.0000642536866369,0.00012278545419898887
-0.4933894689915178,-0.4933894689915178,0.9999678285266522,0.00010738708471766522
-0.4932421135737968,-0.4932421135737968,0.9999793374372803,0.00010847223433852081
-0.49312854051822796,-0.49312854051822796,1.000010182743227,0.00011854436086842987
-0.49298902176960835,-0.49298902176960835,0.9999015871180991,0.00010819622579748831
-0.49288358143239747,-0.49288358143239747,1.0001392817211254,0.00011561184900147276
-0.49280681956297484,-0.49280681956297484,0.999993344261475,0.00011199346458792962
-0.49272068501086325,-0.49272068501086325,0.9999641871985638,0.00012005518612501539
-0.49266034776665035,-0.49266034776665035,0.9999440770380522,0.00011782928881119635
-0.4925847452017479,-0.4925847452017479,1.000039218013096,0.00010892117877213481
-0.49251865522091975,-0.49251865522091975,1.0000027018240736,0.00011064265522760071
-0.4923511780594708,-0.4923511780594708,1.000027498954156,0.0001160296205344743
-0.4922251952601073,-0.4922251952601073,0.9998018544184843,0.00011066594361987435
-0.49211959648819176,-0.49211959648819176,1.0000189678802356,0.00011598568951870398
-0.49199235648629835,-0.49199235648629835,0.9999298036918279,0.00011076694451699314
-0.4918453316531668,-0.4918453316531668,0.9999459266554315,0.00011224866246346218
-0.49169745759354555,-0.49169745759354555,0.9999538067641268,0.0001129383890645796
-0.4916239683625463,-0.4916239683625463,0.9997954241875604,0.00011602248318788812
-0.49154986938010553,-0.49154986938010553,0.9999420242241943,0.00011122767355826401
-0.49148470078434914,-0.49148470078434914,0.9999464055942047,0.00011643114645858987
-0.4913587558614381,-0.4913587558614381,1.0000652492593043,0.00011657630836468247
-0.4912373253704573,-0.4912373253704573,0.9999880208866989,0.00010935553715602977
-0.49113339360919783,-0.49113339360919783,1.00008211304266,0.00012078861214721226
-0.49103110209689477,-0.49103110209689477,0.999934688674441,0.00010775304753219
-0.490925102775509,-0.490925102775509,1.000026940333854,0.00011749205503636057
-0.49077048478357027,-0.49077048478357027,0.9998509516496131,0.000113564755164377
-0.49064449238358065,-0.49064449238358065,0.9999557470281214,0.00011245510903871573
-0.4905115745124931,-0.4905115745124931,0.9999907827145733,0.00011199055552674267
-0.49038367015091355,-0.49038367015091355,1.0000213763028767,0.00011847384845179584
-0.49016735777186116,-0.49016735777186116,0.9999411216659742,0.00011770745083075867
-0.4901035332106403,-0.4901035332106403,1.0000317918071808,0.00011026770097546796
-0.49005158927975573,-0.49005158927975573,1.000056876617218,0.00010733108791105575
-0.4899710816302104,-0.4899710816302104,1.0001343657070094,0.00011805616123236544
-0.4898608334551682,-0.4898608334551682,0.9998975081232032,0.00011348898528612413
-0.48976578879592125,-0.48976578879592125,1.0001291160899828,0.00011747703073716593
-0.4896655676035152,-0.4896655676035152,0.9998178385338885,0.00011829555260761028
-0.4895656531276472,-0.4895656531276472,0.9998911280254029,0.00010803005193344543
-0.4894691086352395,-0.4894691086352395,1.0002135685007254,0.00011409165955542245
-0.48938780080134164,-0.48938780080134164,1.0000208886789432,0.00011135819326989999
-0.4893005960722803,-0.4893005960722803,1.0000255193331395,0.00011602619232717818
-0.4891973511817923,-0.4891973511817923,1.0000968867114548,0.00010889887705786405
-0.48910339926223967,-0.48910339926223967,0.9999267139125031,0.00012151305115871756
-0.4889485460560536,-0.4889485460560536,0.999878134024131,0.00011927372201840654
-0.4888084707381495,-0.4888084707381495,1.0001662999291367,0.00011878953252799848
-0.4887384145782562,-0.4887384145782562,1.000073092656476,0.00011797566553547433
-0.4886733041625121,-0.4886733041625121,1.0000969022398865,0.00011962517299635069
-0.48853018036024876,-0.48853018036024876,1.0000523764192173,0.00011066887487933995
-0.48843905777903274,-0.48843905777903274,1.0000018869130816,0.0001140545307218979
-0.4883745748993533,-0.4883745748993533,1.0000293533982785,0.00010951615999589967
-0.48829783841138125,-0.48829783841138125,1.0000380564582236,0.0001238745897100673
-0.4881619087303989,-0.4881619087303989,0.9999261045494116,0.00011358062580054998
-0.4880420091074484,-0.4880420091074484,1.0001117237928354,0.00011122789419527944
-0.48792072790893143,-0.48792072790893143,1.000002472924805,0.00011315770664367172
-0.48778634299742407,-0.48778634299742407,0.9998568676830967,0.00011817325694205743
-0.48755005907514715,-0.48755005907514715,0.9999086788769619,0.0001165562257950352
-0.48740034681541144,-0.48740034681541144,0.9998102056975965,0.00011831096443005922
-0.4873612696748751,-0.4873612696748751,1.0000248174708586,0.0001121571278341237
-0.48728912236911126,-0.48728912236911126,0.9998511746495012,0.00011270825165604796
-0.48715089885736235,-0.48715089885736235,1.0000758379219132,0.00011471489980686774
-0.4870313465500658,-0.4870313465500658,0.9999946110103611,0.00011387624575440709
-0.48694562661548846,-0.48694562661548846,0.9999796402104462,0.0001106429544997959
-0.4868352980287455,-0.4868352980287455,0.9999056664487282,0.00011343965175328247
-0.48675755125368597,-0.48675755125368597,0.9999152730306736,0.00011435174096225946
-0.48665338631981286,-0.48665338631981286,0.9999803534493882,0.00011649703735669244
-0.48652704957712556,-0.48652704957712556,0.9998057116562531,0.00011161656597510902
-0.48638311838221854,-0.48638311838221854,1.0000170385263192,0.00012002413249429372
-0.4860875862650573,-0.4860875862650573,1.0002614428068566,0.000120289717644874
-0.4859535695417435,-0.4859535695417435,1.000020945680208,0.0001099360993606363
-0.4858765324301203,-0.4858765324301203,0.9999300186544826,0.00011623156884518831
-0.4857903993804939,-0.4857903993804939,0.9999082137819121,0.00011020156685279021
-0.4856907499190129,-0.4856907499190129,1.000212969808227,0.00011403398506289812
-0.4856113254536467,-0.4856113254536467,0.9998756899677852,0.00011345931573717711
-0.48547620423196347,-0.48547620423196347,1.000151519956163,0.00011296516665012927
-0.4853990813571727,-0.4853990813571727,1.00003001985118,0.00011242209213328946
-0.4852937808216666,-0.4852937808216666,1.0001050329168695,0.00011542181197709196
-0.4851440545047808,-0.4851440545047808,1.0000132010988059,0.00011361091414170265
-0.48499003566685134,-0.48499003566685134,1.000012174017432,0.00011728978320338776
-0.48489894953381735,-0.48489894953381735,0.9999026931371076,0.00011304396342847522
-0.4846507360765827,-0.4846507360765827,0.999926852437296,0.00010918029074138658
-0.4845130040906952,-0.4845130040906952,0.9999906084517814,0.00011866286513543571
-0.4844113218714483,-0.4844113218714483,1.000115754304257,0.00010959572326481795
-0.4842824387087603,-0.4842824387087603,1.0001330474266028,0.00011086329203349164
-0.4840531180772814,-0.4840531180772814,1.0000847837618996,0.00011195595555049006
-0.4839483717616531,-0.4839483717616531,1.000023072518127,0.00011064537396714184
-0.4838040126749547,-0.4838040126749547,1.000257905125793,0.00011782300508712373
-0.48365095796762037,-0.48365095796762037,1.0001697609123106,0.00011357519334905238
-0.48357244686994816,-0.48357244686994816,1.0000522612210225,0.00011075538105438372
-0.4834808430437988,-0.4834808430437988,1.0000861645267063,0.00010958098831513998
-0.4833291918941541,-0.4833291918941541,0.9999095935181097,0.00011214539293073868
-0.48317188148430434,-0.48317188148430434,1.0000229157136606,0.00011656608459871254
-0.4830593571801728,-0.4830593571801728,1.0000837151304918,0.00011453687376815973
-0.48291121684524113,-0.48291121684524113,1.000341589455108,0.00011269536239076142
-0.4826917237995076,-0.4826917237995076,0.9998357198201528,0.00010902555897460682
-0.48257008693690295,-0.48257008693690295,1.0000645158859396,0.00011005752295296092
-0.4824594673234969,-0.4824594673234969,0.9999627066231971,0.0001157896374079556
-0.4823945903321146,-0.4823945903321146,0.9997918291110744,0.00010759832911063434
-0.4823500714839611,-0.4823500714839611,1.0001542620850417,0.00011375474788561353
-0.4822533743456006,-0.4822533743456006,0.9999374174285695,0.00012266853866655728
-0.48216457249727684,-0.48216457249727684,1.0001294373441236,0.00010964854277239161
-0.4820177466630412,-0.4820177466630412,0.9999631014483139,0.00010699461633589364
-0.48187291678550537,-0.48187291678550537,1.0000097234444232,0.00011271266504852119
-0.48180968005544855,-0.48180968005544855,0.9999829383869286,0.00011948623030918156
-0.4816552784082887,-0.4816552784082887,0.9999335144010416,0.00011189655016108826
-0.4815806420454464,-0.4815806420454464,0.9999238870563307,0.00011009828026675406
-0.4814540437037067,-0.4814540437037067,1.0000428999591229,0.00012142388797209496
-0.4813111985808064,-0.4813111985808064,1.0000808035711035,0.0001118148092057455
-0.4812515224555682,-0.4812515224555682,1.0001544992562248,0.00011251850778479153
-0.4811647588627238,-0.4811647588627238,0.9999000646909204,0.0001098154928245416
-0.48105248385400046,-0.48105248385400046,1.0000021093949307,0.00012269308270383106
-0.4809333414137654,-0.4809333414137654,1.0001754301349384,0.00011643264412367342
-0.4808384895310155,-0.4808384895310155,0.9999052359790941,0.00011692777862571226
-0.4806432220779243,-0.4806432220779243,0.9999465002824461,0.00010848970944124002
-0.4805171101943415,-0.4805171101943415,1.0001804794152036,0.0001240261806285914
-0.4804181668769161,-0.4804181668769161,0.9999164335361922,0.00011414483110003943
-0.4803365217689134,-0.4803365217689134,0.999908951387464,0.00011231395216922673
-0.48023389227018926,-0.48023389227018926,1.0000688847035044,0.00011325688450898228
-0.480131851581973,-0.480131851581973,1.0000383508778514,0.0001111250106793789
-0.48003474649740385,-0.48003474649740385,1.0001771866419615,0.00011624063902928481
-0.47990261728700717,-0.47990261728700717,1.0000154670404389,0.0001124130316782008
-0.47973173326754476,-0.47973173326754476,0.9998842445837692,0.00010805995209060761
-0.4796245025157987,-0.4796245025157987,1.0000454912531143,0.00012065364501520054
-0.4795231681186124,-0.4795231681186124,0.9999677243940315,0.00011032034347568155
-0.47941433059313565,-0.47941433059313565,0.9998742298174127,0.00010771161728907019
-0.4792733907073853,-0.4792733907073853,1.0001099593739062,0.00011361610784897151
-0.4791708873737662,-0.4791708873737662,0.9998424802314713,0.00011212377366426641
-0.47907138480368305,-0.47907138480368305,0.9999103451237167,0.00011613948982966933
-0.47897379048590666,-0.47897379048590666,0.9999560271588577,0.000110298009574418
-0.4789338211310678,-0.4789338211310678,0.9999946678672348,0.00011674114413242416
-0.4788285050279228,-0.4788285050279228,0.9998248902038469,0.00011082395283097976
-0.4787095097279234,-0.4787095097279234,0.9998632480642431,0.00011661546883729903
-0.4786606662804843,-0.4786606662804843,1.0000702223721625,0.00010887614711245353
-0.47857736678706714,-0.47857736678706714,1.0000852373002949,0.00011024258375083332
-0.47842299726762577,-0.47842299726762577,0.9999662816408268,0.00011060092345003633
-0.4783497112781333,-0.4783497112781333,1.0000883177706283,0.00011811598965669415
-0.47817655708131496,-0.47817655708131496,1.0002282729957166,0.00011456915874391098
-0.47808873924586803,-0.47808873924586803,1.000216181767278,0.00011174796326313907
-0.4780008953923243,-0.4780008953923243,0.9998724781110312,0.00011150746895140413
-0.47783536274000654,-0.47783536274000654,1.0000861044667675,0.00011371846949886227
-0.47765513835911405,-0.47765513835911405,0.9998989273305101,0.0001217302315333151
-0.47752560591470683,-0.47752560591470683,1.0001287252647448,0.00011197296547477121
-0.4774651370527863,-0.4774651370527863,1.0001303013214862,0.00011744764880483012
-0.4774246583641798,-0.4774246583641798,1.0000327759568435,0.00011441754101557313
-0.47732904748991134,-0.47732904748991134,1.0000786920574423,0.0001194702863597367
-0.47724150867798015,-0.47724150867798015,0.9999331928870397,0.00011088134629813752
-0.4771795050706714,-0.4771795050706714,1.0000412661571314,0.00010876583825667685
-0.47707425635817347,-0.47707425635817347,0.9999885000750843,0.00011836769334186862
-0.4770019719966513,-0.4770019719966513,0.9999240993253876,0.00011528996951990472
-0.4769324769244122,-0.4769324769244122,1.0001200730771687,0.00011111576616654501
-0.4767858041122963,-0.4767858041122963,1.0000581553904904,0.00010740365734902364
-0.4766755739045038,-0.4766755739045038,1.0000393932218334,0.00010995566958140398
-0.4766135797770403,-0.4766135797770403,0.9999763537930526,0.00010934766160333625
-0.47652986021348626,-0.47652986021348626,1.0000098020277508,0.00011210339464230022
-0.47636375816509824,-0.47636375816509824,0.9998392598281743,0.00011849163523191487
-0.4761877682773047,-0.4761877682773047,1.0000926594028592,0.00011859309563268578
-0.4761395410132536,-0.4761395410132536,0.9997586702171345,0.00011229031473086967
-0.47609270137836573,-0.47609270137836573,1.0000202614713787,0.0001246061264397093
-0.47600363308156374,-0.47600363308156374,0.9999086445662959,0.00011259151511806036
-0.47591096472751815,-0.47591096472751815,1.0000649266026453,0.0001193191545114009
-0.4757506437592383,-0.4757506437592383,0.9999778357643674,0.00011167200389443279
-0.4756202464610396,-0.4756202464610396,1.0001530857023926,0.00011412118975800093
-0.47551657235744643,-0.47551657235744643,0.999991088716621,0.00011039342521457519
-0.47539051911298885,-0.47539051911298885,1.0000404336305644,0.00011296552662420803
-0.4753168179180648,-0.4753168179180648,0.9999763501692076,0.00011465291533471568
-0.4751116046863899,-0.4751116046863899,1.000085892925601,0.00011956307674393942
-0.47481593303455155,-0.47481593303455155,1.0001012641204947,0.00011004455895397729
-0.4747147665955708,-0.4747147665955708,0.9999725201916636,0.00011723191734812647
-0.47461338806315323,-0.47461338806315323,1.0000290216053738,0.00010941524342052782
-0.4744727081058954,-0.4744727081058954,0.999923853741306,0.00011313072207858236
-0.4743659397077863,-0.4743659397077863,0.9999393522723153,0.00011191642717329416
-0.4742519655024807,-0.4742519655024807,1.0000183771913522,0.00011298924484440323
-0.4741874396764615,-0.4741874396764615,1.000165120155624,0.000119350163574126
-0.4740085760880902,-0.4740085760880902,1.0002122692600857,0.00011564013066674614
-0.47379711625762866,-0.47379711625762866,1.00008202867375,0.00011056975301840339
-0.47362210367864466,-0.47362210367864466,0.9998669107444067,0.00011899165328203298
-0.47344651485254874,-0.47344651485254874,1.0002035221450893,0.00010764462411822985
-0.4732737267542689,-0.4732737267542689,0.9999907795434133,0.00010989193439785662
-0.4731732612213818,-0.4731732612213818,1.0000633516937814,0.00011892661022190743
-0.47310990826226773,-0.47310990826226773,0.9999641971375282,0.00011387626189832358
-0.47291164186317475,-0.47291164186317475,1.0000142101920162,0.00011090076253631553
-0.47267764818461727,-0.47267764818461727,1.000026086100957,0.00010914849484679626
-0.47255238010548056,-0.47255238010548056,1.000019448535565,0.00011731739128585004
-0.47236358681475393,-0.47236358681475393,1.0000920967211564,0.00011523919013947221
-0.4722535055960179,-0.4722535055960179,1.0000025540365223,0.00010984577996851709
-0.4721263962739613,-0.4721263962739613,1.0000638464233718,0.00011421119128285247
-0.4719522965940996,-0.4719522965940996,1.000032500317493,0.00011397656468042187
-0.47185430847966925,-0.47185430847966925,0.9999513245256214,0.00011599226302228857
-0.47167373399352075,-0.47167373399352075,1.0001041052509492,0.00010890152532583652
-0.47141524059479706,-0.47141524059479706,0.9998317600637764,0.00011169446390890796
-0.471266109233693,-0.471266109233693,1.0000128890593654,0.000115280652468024
