time,time,flux,flux_err
-0.4982922514900565,-0.4982922514900565,1.000037024299521,2.9811664634154377e-05
-0.4972870373283513,-0.4972870373283513,0.9999656308290252,2.9825417213006683e-05
-0.49634358194671224,-0.49634358194671224,0.9999341444071568,2.9833203980549506e-05
-0.49438543007636326,-0.49438543007636326,1.0000402053715753,2.981750464163756e-05
-0.49262037616645105,-0.49262037616645105,1.000017215089062,2.985677389736103e-05
-0.49092854539194375,-0.49092854539194375,0.9999674612135404,2.982087591161534e-05
-0.48897284919803496,-0.48897284919803496,1.0000463436841378,2.981296991773477e-05
-0.48803076732947376,-0.48803076732947376,1.0000692488525504,2.982698724697577e-05
-0.4871325358879403,-0.4871325358879403,0.9999526045812097,2.9825931023753575e-05
-0.48524804058470183,-0.48524804058470183,1.0001616794919295,2.9818281803903785e-05
-0.4834320686793944,-0.4834320686793944,0.9999450144574726,2.987813430126862e-05
-0.48179345097378246,-0.48179345097378246,1.0000055620059418,2.9823244531404188e-05
-0.4796573924024415,-0.4796573924024415,1.0000488338599567,2.981802027126654e-05
-0.4787333366992243,-0.4787333366992243,1.0000150522895273,2.982385006917046e-05
-0.47764468781824687,-0.47764468781824687,0.999995745371727,2.9823910916716642e-05
-0.47540363475782216,-0.47540363475782216,1.000024538614809,2.9832214109966934e-05
-0.473517812215141,-0.473517812215141,0.9999047083945525,2.9831266709719857e-05
-0.4712691364708007,-0.4712691364708007,1.000009867012729,2.9816634712040217e-05
-0.46991034256861897,-0.46991034256861897,1.000067694098154,2.9823064917300196e-05
-0.469238355683774,-0.469238355683774,1.0000099872323331,2.98129703460833e-05
-0.4670562005449028,-0.4670562005449028,1.0000230839680841,2.983176438651391e-05
-0.46517045819782654,-0.46517045819782654,1.0000588791781366,2.984230784619874e-05
-0.4626992479519686,-0.4626992479519686,0.9999857878754173,2.9815338589450163e-05
-0.4608993768124492,-0.4608993768124492,0.9999817454919139,2.9827542517999655e-05
-0.4602366614832135,-0.4602366614832135,1.0000635564962876,2.9810613646191394e-05
-0.45839872811702664,-0.45839872811702664,1.0000258589368245,2.9828018932055623e-05
-0.456266120338114,-0.456266120338114,1.0000245782758739,2.9874229861405797e-05
-0.4540802299481584,-0.4540802299481584,1.000009749642778,2.9822892757732554e-05
-0.45229645687431913,-0.45229645687431913,1.0000018020636738,2.981978391620727e-05
-0.45135901848843785,-0.45135901848843785,0.9999841702194014,2.9816705185471263e-05
-0.45016898070753086,-0.45016898070753086,1.0000244546287873,2.984416104192453e-05
-0.448606503141491,-0.448606503141491,0.9999625487612713,2.9818710479795044e-05
-0.4469046924816212,-0.4469046924816212,0.9999934877331628,2.986665079901905e-05
-0.44494078791176433,-0.44494078791176433,1.000004278170355,2.982262062747619e-05
-0.4432930408511311,-0.4432930408511311,1.0000642191548692,2.9819998918837072e-05
-0.4423828896346095,-0.4423828896346095,1.0000575446153064,2.982120717927163e-05
-0.441069846899336,-0.441069846899336,1.0000382667781176,2.9838201618330146e-05
-0.4394664549792651,-0.4394664549792651,1.0000514040724444,2.9819481133376372e-05
-0.4377615292090923,-0.4377615292090923,1.0000247231859523,2.9859284015423555e-05
-0.4355521482946642,-0.4355521482946642,0.9999831639580853,2.981632238106399e-05
-0.43400275684107326,-0.43400275684107326,0.9999891455618565,2.98242442780821e-05
-0.4333062256599078,-0.4333062256599078,0.9999491085558061,2.9824539964760477e-05
-0.432290586126328,-0.432290586126328,1.0000489957208532,2.98259200963298e-05
-0.43042895270191367,-0.43042895270191367,0.999979152891132,2.9818774167060466e-05
-0.42863917643990135,-0.42863917643990135,0.9999643936314582,2.9881348158885904e-05
-0.42726870650803905,-0.42726870650803905,1.0000281832935423,2.9824237993575257e-05
-0.42532270347946904,-0.42532270347946904,0.9999696437043142,2.9811434138845563e-05
-0.42437335284848815,-0.42437335284848815,1.000008018756728,2.9827393429445087e-05
-0.42348154346254885,-0.42348154346254885,0.9999547976395645,2.9823494412500814e-05
-0.42129019028070613,-0.42129019028070613,0.9999690537166916,2.9821597440349015e-05
-0.41941658700525297,-0.41941658700525297,0.9999333319136874,2.9870805382510557e-05
-0.4176542133311159,-0.4176542133311159,1.0000202577511281,2.9822022435677292e-05
-0.41575442367102367,-0.41575442367102367,1.0000106705498524,2.982250803688585e-05
-0.4149368460959522,-0.4149368460959522,1.0000272059182975,2.9814309517378446e-05
-0.4135371348253102,-0.4135371348253102,1.0000623046303199,2.9829340647312684e-05
-0.4113661301220418,-0.4113661301220418,1.0000026702327642,2.983990820470911e-05
-0.40921786667604465,-0.40921786667604465,1.0000518195477939,2.982804287957179e-05
-0.4068845820846036,-0.4068845820846036,1.0000468549975559,2.9821693407389322e-05
-0.4059560987254372,-0.4059560987254372,0.999999853844163,2.981886183607456e-05
-0.40485186807636636,-0.40485186807636636,1.0000939451426951,2.9825148639463164e-05
-0.402482722834975,-0.402482722834975,1.0000396793293647,2.9864675139614236e-05
-0.4006414738803869,-0.4006414738803869,1.000043990115825,2.9834889657419666e-05
-0.3982566183374729,-0.3982566183374729,1.000006041028994,2.9811035464675037e-05
-0.39713167033187347,-0.39713167033187347,1.000027997303271,2.9825421143415168e-05
-0.39617032813257536,-0.39617032813257536,1.0000215207129393,2.9817292970114015e-05
-0.3940844696466229,-0.3940844696466229,0.9999657193009904,2.981851948502289e-05
-0.39219008450600085,-0.39219008450600085,1.0000290788321453,2.9872664708114212e-05
-0.38997395597107243,-0.38997395597107243,0.9999669842977414,2.9815629286966847e-05
-0.38852717296540507,-0.38852717296540507,1.0000056708871363,2.982159083832813e-05
-0.3877052466334135,-0.3877052466334135,0.9999525183439031,2.981554815353327e-05
-0.38650794420900636,-0.38650794420900636,0.9999874972971027,2.984079073231939e-05
-0.384944016681402,-0.384944016681402,1.0000670697884586,2.9820734952563617e-05
-0.38324061945604626,-0.38324061945604626,1.0000311309764427,2.9861456689893013e-05
-0.3810242040461162,-0.3810242040461162,1.0000101998146331,2.9817892379399307e-05
-0.379475847271533,-0.379475847271533,1.000052955511934,2.9824076873364524e-05
-0.37864566353382545,-0.37864566353382545,1.0000348066354083,2.981869838218195e-05
-0.3769916324134101,-0.3769916324134101,1.0000599936342518,2.983716250240229e-05
-0.3750932304894377,-0.3750932304894377,0.9999915101587173,2.9848905928716155e-05
-0.37375269470066996,-0.37375269470066996,0.9999614546518456,2.9866513131227343e-05
-0.3718266611278523,-0.3718266611278523,1.0000168058080185,2.9814045064661336e-05
-0.37034566252987133,-0.37034566252987133,1.000054902103031,2.9818774618079205e-05
-0.36952633834589504,-0.36952633834589504,0.999956954132647,2.9820278051218378e-05
-0.3682873272387951,-0.3682873272387951,1.000062524223782,2.982971275942764e-05
-0.3663495246466482,-0.3663495246466482,1.0000028530136338,2.9836307559974945e-05
-0.3646391414680693,-0.3646391414680693,1.0000247868703558,2.9862836277448386e-05
-0.36271537991269726,-0.36271537991269726,1.0000424746677559,2.9814075161752842e-05
-0.3609809193185356,-0.3609809193185356,0.9999789604152731,2.982425121670367e-05
-0.36027036129889894,-0.36027036129889894,1.0000108285392815,2.981438066630769e-05
-0.3585124771190749,-0.3585124771190749,0.9999952859098237,2.982669321401421e-05
-0.3564843601139728,-0.3564843601139728,0.9999930498527227,2.9844756777635103e-05
-0.35447467284466255,-0.35447467284466255,0.9999790434691913,2.982533140402554e-05
-0.35235301391876417,-0.35235301391876417,1.0000002505739984,2.9819755729521822e-05
-0.3514254615853133,-0.3514254615853133,1.000020436961831,2.982051389920859e-05
-0.35032682785240465,-0.35032682785240465,1.000119065034242,2.982520656213396e-05
-0.3479561860651302,-0.3479561860651302,0.9999865428461863,2.986868881711647e-05
-0.3461260792617395,-0.3461260792617395,0.9999612644353615,2.9833501629116812e-05
-0.3434850810350326,-0.3434850810350326,1.0000241180285117,2.981559167934461e-05
-0.3424564830995223,-0.3424564830995223,0.9999911774986586,2.9825458646726175e-05
-0.3411926980581484,-0.3411926980581484,1.0000093321334318,2.982233940403735e-05
-0.33882526364905063,-0.33882526364905063,1.0000144586461552,2.9860855936430818e-05
-0.33697140959629907,-0.33697140959629907,1.0000389634271496,2.983467834474697e-05
-0.33471319840682556,-0.33471319840682556,0.9999756129899782,2.9814305457745973e-05
-0.33358292039047227,-0.33358292039047227,1.0000455451056263,2.982925429685561e-05
-0.33291322425793624,-0.33291322425793624,0.9999257989710759,2.9810926994468424e-05
-0.33153849876107416,-0.33153849876107416,0.9999795791899929,2.9842324537950834e-05
-0.3300795842980733,-0.3300795842980733,1.000015683379803,2.984951437004284e-05
-0.3284751992439851,-0.3284751992439851,0.999948923328932,2.984255555588255e-05
-0.32631827705408795,-0.32631827705408795,1.0000135020919525,2.9816144938218112e-05
-0.3248702802673506,-0.3248702802673506,1.000030914544442,2.982307674057073e-05
-0.323968174590118,-0.323968174590118,1.000028347713635,2.9815267420617943e-05
-0.3220386481843889,-0.3220386481843889,1.000059244350302,2.9847751387312078e-05
-0.3205656324127631,-0.3205656324127631,1.0000582195179288,2.9849636944861585e-05
-0.3190324309420248,-0.3190324309420248,0.9999698328866096,2.9829416201430323e-05
-0.31680332167816233,-0.31680332167816233,0.9999585297156454,2.9813475064767934e-05
-0.3155893206654582,-0.3155893206654582,0.9999994761580329,2.9825309813818514e-05
-0.3148558690743812,-0.3148558690743812,1.0000643664855258,2.981681240730514e-05
-0.31333050334869766,-0.31333050334869766,0.9999605834761972,2.983068108718501e-05
-0.3114369952301786,-0.3114369952301786,1.0000791988117126,2.984725023733624e-05
-0.310080539502087,-0.310080539502087,0.9999586742811515,2.9856734996257623e-05
-0.30817942291323563,-0.30817942291323563,0.9999427670535583,2.981364306287476e-05
-0.3066887083296024,-0.3066887083296024,0.9999727157287677,2.9819532164705498e-05
-0.3058721737274027,-0.3058721737274027,1.0000274409081555,2.982035210007571e-05
-0.304489578812354,-0.304489578812354,0.9999934115574677,2.9827738245242076e-05
-0.3023091854091035,-0.3023091854091035,1.0000265255303291,2.984271038296542e-05
-0.30050484080711615,-0.30050484080711615,1.000029260098136,2.9828697334879544e-05
-0.29807049972441746,-0.29807049972441746,1.0000225083028267,2.9818549198066196e-05
-0.29705893313730486,-0.29705893313730486,1.0000169029672894,2.982745528914548e-05
-0.2961801739067596,-0.2961801739067596,0.9999589602707546,2.9818140999765596e-05
-0.29396779582093585,-0.29396779582093585,1.0000196270373134,2.982337938508605e-05
-0.2919701207210892,-0.2919701207210892,0.9999805232572273,2.9843396018693545e-05
-0.2894307926733745,-0.2894307926733745,1.0000163810508607,2.9817234840148446e-05
-0.28807226125063606,-0.28807226125063606,1.0000769922068438,2.9826274550097164e-05
-0.2874077244414366,-0.2874077244414366,0.9999876730428919,2.9810489758675734e-05
-0.2855840650830942,-0.2855840650830942,1.0000025790729539,2.9851191153807734e-05
-0.283557027731149,-0.283557027731149,1.0000441568143956,2.9875266213147326e-05
-0.2813730824382219,-0.2813730824382219,1.000012681347275,2.9822450969684942e-05
-0.2795810208175681,-0.2795810208175681,1.0000332055678893,2.9821143260615245e-05
-0.2786453937646002,-0.2786453937646002,1.000061990969137,2.981725981688064e-05
-0.277130021621997,-0.277130021621997,1.0000181711557632,2.9822323260010116e-05
-0.2751680076595221,-0.2751680076595221,0.9999842519913221,2.9858239997638426e-05
-0.2733014702134824,-0.2733014702134824,1.000007532363728,2.983479836735672e-05
-0.27104081658908397,-0.27104081658908397,1.0000038047930446,2.981005619882654e-05
-0.2699248922035622,-0.2699248922035622,0.9999541609489624,2.982574857040339e-05
-0.2690824688419525,-0.2690824688419525,1.0000476800817792,2.9833899204143824e-05
-0.2672623032478441,-0.2672623032478441,1.0000942588080264,2.982335705036423e-05
-0.2657039362777141,-0.2657039362777141,0.9999490324656218,2.9853905905584973e-05
-0.2639334676016006,-0.2639334676016006,1.0000098952914322,2.982708631719313e-05
-0.26172342723366454,-0.26172342723366454,1.0000460219211245,2.9819051122630628e-05
-0.2607934267864039,-0.2607934267864039,0.9999968916559293,2.9824296113244657e-05
-0.25959006067496376,-0.25959006067496376,1.0000215578294545,2.9831408661607524e-05
-0.25772164733425595,-0.25772164733425595,1.000025248929312,2.982076174886971e-05
-0.2559339378924051,-0.2559339378924051,0.9999848961841049,2.9889330255301274e-05
-0.2545596766656672,-0.2545596766656672,1.0000519146386577,2.982271833108129e-05
-0.25260613701466356,-0.25260613701466356,1.0000107472400281,2.981296372299227e-05
-0.25166244130232374,-0.25166244130232374,1.0000566919309097,2.982503629420489e-05
-0.2507656319190573,-0.2507656319190573,1.0000457695012823,2.9825986238383034e-05
-0.24887898071465314,-0.24887898071465314,1.0001060242199487,2.9818289056606438e-05
-0.24706227242204476,-0.24706227242204476,1.0000843621918842,2.9877888234155002e-05
-0.24542466023558518,-0.24542466023558518,0.9999988006556929,2.9820473875554535e-05
-0.24329021074736373,-0.24329021074736373,0.9999966342283294,2.9819251025078582e-05
-0.24236562030055211,-0.24236562030055211,1.0000285870833567,2.982004880156439e-05
-0.2412761439794849,-0.2412761439794849,1.000002639745275,2.9829324125210346e-05
-0.2390354548690084,-0.2390354548690084,0.9999918403182709,2.9830995426651477e-05
-0.23714846672228304,-0.23714846672228304,1.000010069574377,2.9831437659745223e-05
-0.23490145268733614,-0.23490145268733614,1.0000859195976854,2.981842089403677e-05
-0.2335427133097255,-0.2335427133097255,1.0000500413020696,2.982545194644183e-05
-0.232872206162574,-0.232872206162574,0.9999166393659908,2.980859321748382e-05
-0.23062698343564988,-0.23062698343564988,0.9999605202846679,2.982470167954565e-05
-0.2286267729345127,-0.2286267729345127,1.0000257626821427,2.9881818591228785e-05
-0.22633146241350915,-0.22633146241350915,0.9999794478047008,2.981795574986248e-05
-0.22453085488814395,-0.22453085488814395,0.9999966111701216,2.982947805539714e-05
-0.22384715569933178,-0.22384715569933178,1.000028610045604,2.9812092994966276e-05
-0.2214794544452161,-0.2214794544452161,1.0000320980500816,2.9827630606748275e-05
-0.21948404268405283,-0.21948404268405283,1.000018203505668,2.987449713920789e-05
-0.21726180591940647,-0.21726180591940647,1.0000336241763266,2.981855028654849e-05
-0.2158159637649078,-0.2158159637649078,0.9999453312733471,2.982440493391644e-05
-0.21499149986339033,-0.21499149986339033,0.9999916342816293,2.9817329561561335e-05
-0.21379984824379789,-0.21379984824379789,0.999991246559319,2.9842534092090714e-05
-0.21223704099538737,-0.21223704099538737,0.9999510768676771,2.9819495581603353e-05
-0.2105348908342421,-0.2105348908342421,1.000011337242596,2.986646140150053e-05
-0.2085714744433062,-0.2085714744433062,0.9999541544370663,2.9820568722181547e-05
-0.20697093760900315,-0.20697093760900315,1.0000281317665571,2.9818477974042637e-05
-0.20611148940006388,-0.20611148940006388,0.9999631035086438,2.982135880354815e-05
-0.20470191141503163,-0.20470191141503163,1.0000166023304373,2.9838114635824418e-05
-0.20309709490538808,-0.20309709490538808,0.9999849417311621,2.9819895628737732e-05
-0.20139177035453032,-0.20139177035453032,1.0000314478052974,2.9857882932364945e-05
-0.19972476090915733,-0.19972476090915733,0.9999854260343991,2.9824188831889806e-05
-0.1980730304523604,-0.1980730304523604,1.000012131216272,2.981548030040257e-05
-0.19713578565424542,-0.19713578565424542,0.9999113593459732,2.9824654750551385e-05
-0.19623330866525066,-0.19623330866525066,0.9999124845230934,2.9823857812395127e-05
-0.19435527568348335,-0.19435527568348335,1.0000375281073404,2.9816074736699082e-05
-0.1925925729548908,-0.1925925729548908,1.0000571094215853,2.9852512791122622e-05
-0.19138905461004468,-0.19138905461004468,1.0000203122887286,2.985512382214416e-05
-0.18900575176885467,-0.18900575176885467,0.999978964267417,2.981436646373954e-05
-0.18800505789549787,-0.18800505789549787,1.0000239687165042,2.9826497314474553e-05
-0.18711468387191416,-0.18711468387191416,1.0000308495507866,2.982455702113077e-05
-0.1849209845851874,-0.1849209845851874,1.000028636048473,2.9823815290204525e-05
-0.1829342883640493,-0.1829342883640493,0.9999989873444178,2.9847434070809208e-05
-0.18088555004214868,-0.18088555004214868,1.0000088639370728,2.9816891357665623e-05
-0.17913784115735326,-0.17913784115735326,0.9999459182505428,2.9826866573672563e-05
-0.17843904196779475,-0.17843904196779475,1.0000699627987057,2.980856006467908e-05
-0.17666220107930714,-0.17666220107930714,1.0000643647234342,2.9827400236180255e-05
-0.17464122171222698,-0.17464122171222698,0.9999505252297949,2.9841985541325342e-05
-0.17228440007020254,-0.17228440007020254,1.0000126302271695,2.9823559560607477e-05
-0.17025649079514552,-0.17025649079514552,0.9999952303761424,2.982189232147612e-05
-0.1694592410174664,-0.1694592410174664,1.0000388578132644,2.981277821805195e-05
-0.16802447896188824,-0.16802447896188824,0.9999458496829066,2.982627619657079e-05
-0.16573634434025736,-0.16573634434025736,0.999978442380676,2.98698179823103e-05
-0.1637194727831229,-0.1637194727831229,1.0000001436667034,2.9825520123468966e-05
-0.1616512294203858,-0.1616512294203858,1.0001246049611985,2.9816748028411582e-05
-0.16061580175883136,-0.16061580175883136,1.0000080804965044,2.982263928102288e-05
-0.1595821911469102,-0.1595821911469102,0.9999187068108698,2.983438336822797e-05
-0.15798110173782334,-0.15798110173782334,1.000083699769506,2.9822895038284434e-05
-0.15623774019186384,-0.15623774019186384,1.0000485439710873,2.986940721157979e-05
-0.15404877112378018,-0.15404877112378018,0.9999764577874112,2.982212389461716e-05
-0.152396550582489,-0.152396550582489,1.0000579952988864,2.9816987804172623e-05
-0.15148703938684777,-0.15148703938684777,1.0000823414743987,2.982310333979035e-05
-0.15017370405839756,-0.15017370405839756,0.9999540762493078,2.9837852193466753e-05
-0.14857460779021495,-0.14857460779021495,1.000019014974961,2.9820517150273884e-05
-0.14687083873213852,-0.14687083873213852,1.0000188549793023,2.9860639507083528e-05
-0.14465617948808357,-0.14465617948808357,1.0000557967452,2.9819014826491174e-05
-0.14310756436316296,-0.14310756436316296,1.0000253547987579,2.9821378924661957e-05
-0.14227824729387067,-0.14227824729387067,0.9999704643737836,2.9818731674655367e-05
-0.14062248029295005,-0.14062248029295005,1.0000572093131566,2.9837380240661554e-05
-0.13872515996117726,-0.13872515996117726,1.0000440002986166,2.9847384367743858e-05
-0.13738109599071321,-0.13738109599071321,1.0000049377698725,2.9864986411030952e-05
-0.13584356493447558,-0.13584356493447558,1.0000103691858218,2.9816423954793408e-05
-0.1341986430416,-0.1341986430416,1.0000026816387408,2.9814933054599715e-05
-0.13331536577679798,-0.13331536577679798,1.0000418716764325,2.9826671463467512e-05
-0.13227689502382417,-0.13227689502382417,0.999988995720058,2.9821161788528644e-05
-0.13039788408059394,-0.13039788408059394,0.9999298856691997,2.9820549712590452e-05
-0.12852910201254417,-0.12852910201254417,1.0000090409439235,2.987446230099459e-05
-0.12675633905018913,-0.12675633905018913,0.9999940353343171,2.9820485457480874e-05
-0.12485916208825074,-0.12485916208825074,1.0000245204457472,2.9819357617420354e-05
-0.12403521856467706,-0.12403521856467706,0.9999559479519393,2.9814801051134085e-05
-0.12264654642931419,-0.12264654642931419,1.0000426815224492,2.9829132596623106e-05
-0.12046968868380645,-0.12046968868380645,0.9999443218209267,2.98403279998305e-05
-0.11865432016566047,-0.11865432016566047,0.9999656896988176,2.9826565461274686e-05
-0.11623619796955609,-0.11623619796955609,0.9999643440529702,2.9813726183421915e-05
-0.11521782575000543,-0.11521782575000543,1.0000643754222782,2.9827657827819226e-05
-0.11434644591499818,-0.11434644591499818,0.9999710489473117,2.9815562656462134e-05
-0.11198787362518488,-0.11198787362518488,1.0000162993073445,2.985930086514658e-05
