time,time,flux,flux_err
-0.4991368484843406,-0.4991368484843406,1.0000892425490575,5.418300425771197e-05
-0.497230824566941,-0.497230824566941,1.0000315773838206,5.418618192359698e-05
-0.49505907115477993,-0.49505907115477993,0.999995257838445,5.419782869566864e-05
-0.49311164655082396,-0.49311164655082396,1.0000691427205526,4.946595971909441e-05
-0.4910917682471336,-0.4910917682471336,1.0001320370335351,4.945729479102737e-05
-0.48976729018322657,-0.48976729018322657,1.0000967366579485,4.9741416711258934e-05
-0.48852031436981636,-0.48852031436981636,1.000001511975559,4.9599431999972555e-05
-0.486969209741801,-0.486969209741801,0.9999646824819468,4.951142709969183e-05
-0.48540781481860906,-0.48540781481860906,1.000071200204858,4.94331726335946e-05
-0.48396184450975854,-0.48396184450975854,1.000038605872675,4.946069117831354e-05
-0.48240302694466664,-0.48240302694466664,1.000122060911473,4.9455424448199285e-05
-0.4806044470780762,-0.4806044470780762,1.0000237298564794,4.949497196872719e-05
-0.4787928657999146,-0.4787928657999146,1.0000685113890821,4.946660194004154e-05
-0.47677908672194463,-0.47677908672194463,0.9999824256230049,4.946258441878705e-05
-0.4751289697655011,-0.4751289697655011,1.0001129437492595,4.97682391972926e-05
-0.47356060256715865,-0.47356060256715865,1.0000131790076656,4.959777096508727e-05
-0.471966686497035,-0.471966686497035,1.0000997863111496,4.9516593849188857e-05
-0.4703148827888072,-0.4703148827888072,0.9998862642202839,4.943921872225574e-05
-0.4686488851919421,-0.4686488851919421,1.0000014470251062,4.944934130657408e-05
-0.46705397573678054,-0.46705397573678054,1.000101794237212,4.945580152425682e-05
-0.46520501974155193,-0.46520501974155193,0.999944406761287,4.9472927398353983e-05
-0.46345299874228657,-0.46345299874228657,1.0000327408374332,4.9468264103723715e-05
-0.46169190060027177,-0.46169190060027177,0.999993951128222,4.947741473659103e-05
-0.4601239645751775,-0.4601239645751775,0.9999633401905825,4.9791703050686785e-05
-0.45870350239711116,-0.45870350239711116,1.000099331471816,4.964248176163547e-05
-0.4573818171120365,-0.4573818171120365,0.9999869928763703,4.944500244394104e-05
-0.45559950400929666,-0.45559950400929666,1.0000811061125545,4.948146198575902e-05
-0.45393177701334936,-0.45393177701334936,1.0000628449981686,4.9478300216476465e-05
-0.45258148985303703,-0.45258148985303703,0.9999575297221661,4.946792747589654e-05
-0.45099420737533363,-0.45099420737533363,0.999985199056112,4.948735103252389e-05
-0.4489202633645618,-0.4489202633645618,1.0000062884393681,4.9495560209406356e-05
-0.4470527583427611,-0.4470527583427611,1.0000323292591626,4.9450879640117456e-05
-0.4454320585471578,-0.4454320585471578,0.9999927762710508,4.984998970273312e-05
-0.444187012295879,-0.444187012295879,1.0000221361995834,5.074190868971518e-05
-0.4432667425731779,-0.4432667425731779,1.0000059356898603,4.963479203046854e-05
-0.44159823591762687,-0.44159823591762687,1.0000139257183291,4.94913003314999e-05
-0.4399464755799272,-0.4399464755799272,0.9999174831051434,4.944160881643495e-05
-0.43797953649773264,-0.43797953649773264,0.99991902058658,4.949312128963658e-05
-0.43670447782496924,-0.43670447782496924,0.9998430529691674,4.943941005515659e-05
-0.4348008736313204,-0.4348008736313204,0.9999510303286507,4.9479887479617754e-05
-0.43283597045519856,-0.43283597045519856,1.000040799953299,4.948843262963109e-05
-0.43098192400939295,-0.43098192400939295,0.9999790767849891,4.965050374017845e-05
-0.42949379367928486,-0.42949379367928486,1.000022849090152,4.9650711166605715e-05
-0.42826441642682767,-0.42826441642682767,1.0000399679428758,4.964478529026554e-05
-0.42683023177523866,-0.42683023177523866,0.9999821701212133,4.948692477304099e-05
-0.42529086169524816,-0.42529086169524816,0.9999989070524287,4.944046107539595e-05
-0.4235100580190192,-0.4235100580190192,1.0000665621753662,4.9511334237830996e-05
-0.42224829306069295,-0.42224829306069295,0.9999991900834123,4.9443057188040023e-05
-0.4206366974467528,-0.4206366974467528,0.9999977246007722,4.946654408780175e-05
-0.418326996146061,-0.418326996146061,1.000084834526059,4.9466040332145844e-05
-0.41629940363782225,-0.41629940363782225,0.9999496318113262,4.9471056869534155e-05
-0.41483354269730627,-0.41483354269730627,1.000067436445762,4.987055018769121e-05
-0.4135391921226983,-0.4135391921226983,1.0000179863764374,4.963665612679782e-05
-0.41195712031767473,-0.41195712031767473,1.0001328426166611,4.952669071572426e-05
-0.4102829682684387,-0.4102829682684387,1.000099412003229,4.944585601474612e-05
-0.40850530861644074,-0.40850530861644074,0.9999743251525295,4.951123611193828e-05
-0.40723680916416927,-0.40723680916416927,1.0000946181642616,4.944062114957917e-05
-0.40562924739788286,-0.40562924739788286,1.000114517488365,4.947535463642871e-05
-0.40331461027235493,-0.40331461027235493,0.9999876045515478,4.946491645749365e-05
-0.4012916465915623,-0.4012916465915623,0.9999834484932635,4.947315047576651e-05
-0.3998248693649657,-0.3998248693649657,0.9999425481019225,4.990418614641344e-05
-0.3984358579633408,-0.3984358579633408,1.0000580735427445,4.966888675532607e-05
-0.3965793551018578,-0.3965793551018578,0.9999772494245394,4.950059904282948e-05
-0.39463610407256056,-0.39463610407256056,0.9999840218925578,4.949782978859044e-05
-0.3932269390032161,-0.3932269390032161,1.0000837697992204,4.9471767789838856e-05
-0.39196395358012526,-0.39196395358012526,1.000006413580935,4.945782625248589e-05
-0.3902064957161201,-0.3902064957161201,0.9999539607748016,4.945514282244776e-05
-0.38790945227083284,-0.38790945227083284,0.9999578878665825,4.948358072661385e-05
-0.3861702496680664,-0.3861702496680664,0.9999756946615156,4.945505215530359e-05
-0.38452704410156,-0.38452704410156,0.9999919942930726,4.966261141836738e-05
-0.3831398379727034,-0.3831398379727034,1.0000489493126135,4.966907271130238e-05
-0.3814721565708169,-0.3814721565708169,1.0000565396373102,4.955930673469297e-05
-0.37963304185541347,-0.37963304185541347,1.0000044214774702,4.9494948290104384e-05
-0.3779541421215981,-0.3779541421215981,1.0001141763491161,4.950009939784409e-05
-0.37666618204530095,-0.37666618204530095,0.9998764324697875,4.944702036885003e-05
-0.3748119016861892,-0.3748119016861892,1.0000289699151554,4.945594429903752e-05
-0.37240680827817413,-0.37240680827817413,1.0000590827662872,4.946953371146399e-05
-0.37095130779925967,-0.37095130779925967,0.9999130614949958,4.971328523677087e-05
-0.3691407949838322,-0.3691407949838322,0.9999868033629928,4.945097816718334e-05
-0.3677948364376789,-0.3677948364376789,0.9999997685790198,4.964244522068124e-05
-0.36615966454701265,-0.36615966454701265,1.0000503267572876,4.958683071939205e-05
-0.36451648866495817,-0.36451648866495817,1.0001799168035266,4.949336217675808e-05
-0.36312725532479817,-0.36312725532479817,1.0000883392573945,4.9482464131739266e-05
-0.36169619720749324,-0.36169619720749324,1.0000336242166592,4.947143257197326e-05
-0.3601058145417483,-0.3601058145417483,0.9999912515291036,4.946186971134518e-05
-0.3582780286102206,-0.3582780286102206,1.0000495985007452,4.947351539454587e-05
-0.3564596656142385,-0.3564596656142385,1.000027335631345,4.946654182586739e-05
-0.3549929325585254,-0.3549929325585254,0.9999911212505758,4.969640992018515e-05
-0.3537595787449391,-0.3537595787449391,1.0000492201559716,4.9670974675439476e-05
-0.3521083148210892,-0.3521083148210892,0.9999894589347257,4.950360331254993e-05
-0.3504744848367409,-0.3504744848367409,0.9999987319061086,4.952068090812135e-05
-0.34886079710558987,-0.34886079710558987,1.0000413322981636,4.949726686381793e-05
-0.34765932276641254,-0.34765932276641254,1.0000224249156726,4.9487162146930494e-05
-0.34600795396836476,-0.34600795396836476,0.9999548025367322,4.9448479215864966e-05
-0.3440935226462898,-0.3440935226462898,0.9999854280766745,4.946923733021291e-05
-0.3421116486337269,-0.3421116486337269,1.0001324560724574,4.946122332291464e-05
-0.34051281746214956,-0.34051281746214956,0.9999741818524089,4.947117346928748e-05
-0.33895342746400275,-0.33895342746400275,1.0000346506125366,4.955456680247288e-05
-0.33741099255275914,-0.33741099255275914,1.0000432170905509,4.9613892212317774e-05
-0.33632041031087284,-0.33632041031087284,1.0000078930018297,4.953989740677551e-05
-0.33484768470370907,-0.33484768470370907,1.0000200520146956,4.951945351690922e-05
-0.33336542946926784,-0.33336542946926784,1.0000128373057615,4.948315106370545e-05
-0.33198500566068107,-0.33198500566068107,1.0000592900350196,4.946242342373212e-05
-0.3302702533081174,-0.3302702533081174,0.9998917812072394,4.94251214449538e-05
-0.32862722090212626,-0.32862722090212626,1.0001111571563255,4.949027131037752e-05
-0.32677171942341376,-0.32677171942341376,1.0000682710767503,4.9470463036419034e-05
-0.3248852217016974,-0.3248852217016974,0.9999887923162261,4.942761732392041e-05
-0.3234334784297971,-0.3234334784297971,1.0000391726170188,4.972304520138688e-05
-0.3219386199969449,-0.3219386199969449,1.0000943863066283,4.950232100686497e-05
-0.320465691993013,-0.320465691993013,1.0000521201237522,4.952699368197446e-05
-0.3188780915006646,-0.3188780915006646,1.000062416984743,4.9499631966851254e-05
-0.3179046475852374,-0.3179046475852374,1.0000960249271387,4.949282298372639e-05
-0.31633746449515454,-0.31633746449515454,1.0000134576520137,4.945193187378524e-05
-0.314578612378682,-0.314578612378682,1.0000596619722715,4.944590406953122e-05
-0.31289206141664183,-0.31289206141664183,0.9999073277371539,4.946892485061017e-05
-0.3114329741671099,-0.3114329741671099,1.0000205369170743,4.946475526911319e-05
-0.30947755813540423,-0.30947755813540423,1.0000074516197168,4.943609188454789e-05
-0.3081336317525711,-0.3081336317525711,0.9999570996880542,4.973496770691486e-05
-0.3066887142471387,-0.3066887142471387,0.9999982980400477,4.959497733111422e-05
-0.30497230516630225,-0.30497230516630225,1.000047300241236,4.9508544481444185e-05
-0.3034198496679892,-0.3034198496679892,0.9999035565026817,4.942405420264451e-05
-0.3019704490288859,-0.3019704490288859,0.9999707699657371,4.9463310916351595e-05
-0.30039692384452793,-0.30039692384452793,0.9999171745301162,4.943556977911547e-05
-0.29861289307737027,-0.29861289307737027,1.0000954666472581,4.949390461666282e-05
-0.29675495144620073,-0.29675495144620073,1.0000700070916602,4.947341561232603e-05
-0.29485289795993597,-0.29485289795993597,1.0000115344028067,4.943097269312813e-05
-0.2934328086703317,-0.2934328086703317,0.9999693906305417,4.9763282864001005e-05
-0.29192417475278487,-0.29192417475278487,0.9999857514931187,4.951333432001738e-05
-0.29039564011764013,-0.29039564011764013,1.0000951182983342,4.954354027026832e-05
-0.28861553110473326,-0.28861553110473326,1.0000832889607536,4.947966015774349e-05
-0.28729756291868397,-0.28729756291868397,0.9999482386391673,4.945047001710958e-05
-0.28576626942376604,-0.28576626942376604,1.0000538624898587,4.9461306356036384e-05
-0.28400480302807407,-0.28400480302807407,0.999973293119643,4.948663385073265e-05
-0.28193424395431066,-0.28193424395431066,1.0000407681861876,4.9490095329590395e-05
-0.2797813502125791,-0.2797813502125791,0.999976258995963,4.946223075788603e-05
-0.2781299746086006,-0.2781299746086006,1.0000056038155676,4.9761732971772544e-05
-0.2765616908975062,-0.2765616908975062,0.9999338450370014,4.959545128694723e-05
-0.27496718786715063,-0.27496718786715063,0.9998735860336465,4.9510368100675306e-05
-0.273590158339357,-0.273590158339357,1.0001051610381808,4.941881418840581e-05
-0.27195616135722955,-0.27195616135722955,1.000016902481758,4.946331308031069e-05
-0.27039616862748517,-0.27039616862748517,0.9999997312398371,4.9453059800516456e-05
-0.26860483024793214,-0.26860483024793214,1.000007987802524,4.9468666905377664e-05
-0.26709813930647214,-0.26709813930647214,1.000024435562012,4.945874436878021e-05
-0.26544087695656343,-0.26544087695656343,1.0000184512692991,4.947965347871597e-05
-0.26373542359797286,-0.26373542359797286,0.9999526211474581,4.979265715521176e-05
-0.26209819052164673,-0.26209819052164673,1.0000293519042085,4.952740151822353e-05
-0.2610046253015753,-0.2610046253015753,1.0001028986360776,4.954926607362828e-05
-0.25920587003201945,-0.25920587003201945,1.0001546421446652,4.951622079127012e-05
-0.2577400810114341,-0.2577400810114341,0.9999515094757369,4.942265639478609e-05
-0.2561494282199419,-0.2561494282199419,1.0000373589913223,4.94784949340491e-05
-0.2547237569466233,-0.2547237569466233,0.9999564520594891,4.947560017824627e-05
-0.252814991955529,-0.252814991955529,1.0001939632337957,4.9481918743845375e-05
-0.25084456704207697,-0.25084456704207697,1.0001101570081852,4.948795195090516e-05
-0.24899132901773555,-0.24899132901773555,1.0000095273395095,4.9636195301250274e-05
-0.24738433378224728,-0.24738433378224728,0.999905446096615,4.96624818876868e-05
-0.24626721277745672,-0.24626721277745672,0.9999316322340721,4.96300474063524e-05
-0.24459950971067884,-0.24459950971067884,0.999953533776887,4.9490117026782195e-05
-0.24294810394058003,-0.24294810394058003,0.9999151034784914,4.943829321431592e-05
-0.2409808352284017,-0.2409808352284017,1.0000476331428583,4.9490615909374665e-05
-0.23941920205543282,-0.23941920205543282,0.999980679347398,4.945326636876812e-05
-0.23733825187082402,-0.23733825187082402,0.9999940180786464,4.950018397575902e-05
-0.2354261237589526,-0.2354261237589526,1.0001196589486105,4.948679889075888e-05
-0.23372228140360676,-0.23372228140360676,0.999971556961331,4.984765860355083e-05
-0.23220078986050793,-0.23220078986050793,0.9999877375296056,4.9452606155991015e-05
-0.23126487817498856,-0.23126487817498856,1.0000566246456182,4.9644302130561835e-05
-0.22959315393527505,-0.22959315393527505,0.9999198341302842,4.948581850051094e-05
-0.2279399811901385,-0.2279399811901385,0.9999128171310758,4.944390834194445e-05
-0.22625759232760173,-0.22625759232760173,1.0001065225470271,4.95066112674035e-05
-0.22505109777121107,-0.22505109777121107,1.0000873773286358,4.943864964985266e-05
-0.2236381974973483,-0.2236381974973483,0.9999927893586152,4.9468178741101355e-05
-0.22132948526559632,-0.22132948526559632,0.99994538585884,4.946537832686383e-05
-0.21930096656287787,-0.21930096656287787,0.9999999641302544,4.947231814652499e-05
-0.21783528572123032,-0.21783528572123032,0.9999989851408838,4.986310320451861e-05
-0.2165402450453257,-0.2165402450453257,1.0000516671989588,4.963573808751756e-05
-0.2149575799558079,-0.2149575799558079,1.0000139317870322,4.951596623447901e-05
-0.2132845421991078,-0.2132845421991078,1.000028375741849,4.9442312407555377e-05
-0.21150625120208133,-0.21150625120208133,1.0001981618570766,4.951282105441973e-05
-0.21023910065705423,-0.21023910065705423,0.9999019977164731,4.943565825638066e-05
-0.2086906831827946,-0.2086906831827946,0.9998697313801056,5.077296842624844e-05
-0.2067465004773112,-0.2067465004773112,1.0001016955973625,4.9448660908250875e-05
-0.20466220393718687,-0.20466220393718687,0.9999412840186569,4.9475213747272536e-05
-0.20313164991675875,-0.20313164991675875,1.0001492717604976,4.9911257085287626e-05
-0.20177301052899566,-0.20177301052899566,0.9998507933048193,4.963573950139524e-05
-0.19995530504675116,-0.19995530504675116,1.0000144786134066,4.9524349737128556e-05
-0.19827669422520558,-0.19827669422520558,1.0000209118938954,4.9446148675202114e-05
-0.19650155201088637,-0.19650155201088637,0.9999478756343632,4.951507761362797e-05
-0.19522767012531403,-0.19522767012531403,1.0001003751676116,4.944509496533158e-05
-0.1936233412605361,-0.1936233412605361,1.000024711763557,4.947147033263786e-05
-0.19130477374710608,-0.19130477374710608,1.000046139999204,4.947167451725165e-05
-0.1897383841103874,-0.1897383841103874,0.9999755588265021,4.9460985540470404e-05
-0.18822842269873946,-0.18822842269873946,0.999911114322335,4.9683634456452814e-05
-0.18676876834215364,-0.18676876834215364,0.9999943645611344,4.9646678226929315e-05
-0.18495308193523669,-0.18495308193523669,0.9999784029372591,4.952743808321799e-05
-0.18298659793072147,-0.18298659793072147,0.9999765502023162,4.949510600720804e-05
-0.18122866571793567,-0.18122866571793567,0.9999364861268069,4.946592644307357e-05
-0.17995813197630922,-0.17995813197630922,1.0000025211103036,4.946009171968102e-05
-0.17819700371765065,-0.17819700371765065,0.9999162173146955,4.9453859946747725e-05
-0.17590205393353245,-0.17590205393353245,0.9999622249312627,4.948348361228296e-05
-0.17416252251568948,-0.17416252251568948,1.0000511941740566,4.9459295650251075e-05
-0.17251654217689066,-0.17251654217689066,1.0001063035830533,4.967851842218095e-05
-0.1711387730159913,-0.1711387730159913,1.000082110737719,4.96685142905707e-05
-0.1694682238594396,-0.1694682238594396,1.0000861320777332,4.9566862612232566e-05
-0.16784744607139146,-0.16784744607139146,0.999968149130682,4.950863744999437e-05
-0.16638581637816968,-0.16638581637816968,0.9999744669416863,4.948077754765575e-05
-0.16520501883787803,-0.16520501883787803,1.000056110989425,4.944010776892335e-05
-0.16374273665278452,-0.16374273665278452,0.9999812968170108,4.947418022002737e-05
-0.16171465475053992,-0.16171465475053992,0.9999749349669216,4.946648120827055e-05
-0.1597906383074587,-0.1597906383074587,1.0000488361944284,4.9440326532663255e-05
-0.158212007592374,-0.158212007592374,0.9999739748659774,4.9722353117622005e-05
-0.15676040551916232,-0.15676040551916232,0.9999789415440722,4.966653399038398e-05
-0.1551095453018206,-0.1551095453018206,1.0000285844738783,4.950167948400124e-05
-0.153475374050322,-0.153475374050322,0.9999866997954816,4.9517974115699515e-05
-0.1518614437940414,-0.1518614437940414,1.0000690316584913,4.9495150150784716e-05
-0.1506613342120545,-0.1506613342120545,0.9999603991578994,4.9482243330719165e-05
-0.14900995018251706,-0.14900995018251706,0.9999672255859091,4.944703417284432e-05
-0.1472435367119033,-0.1472435367119033,1.0000253816846167,4.9456453559306183e-05
-0.14538581652595894,-0.14538581652595894,0.9999579985917972,4.9467147955790177e-05
-0.1439242201318848,-0.1439242201318848,1.0000067935609382,4.9475170191617076e-05
-0.14212356226926204,-0.14212356226926204,0.9998681840187631,4.944963007096733e-05
-0.1407851725118235,-0.1407851725118235,0.9999835144572706,4.9676936074425326e-05
-0.13940621737419862,-0.13940621737419862,1.0000360920280555,4.958412930148318e-05
-0.13784765090967993,-0.13784765090967993,1.0001532024632138,4.951816630788032e-05
-0.1363672697058064,-0.1363672697058064,0.9999755257839954,4.948166299240584e-05
-0.13498647717497078,-0.13498647717497078,1.0000477950438458,4.946363664437062e-05
-0.133272797378595,-0.133272797378595,1.0000040064475346,4.942383009194694e-05
-0.1316286723362282,-0.1316286723362282,0.999886789929113,4.949152363306244e-05
-0.12977341974183218,-0.12977341974183218,0.9999087875484177,4.946630531339344e-05
-0.12788847690535476,-0.12788847690535476,0.9999017430957782,4.942508533559586e-05
-0.12643355338368564,-0.12643355338368564,1.0000945276340398,4.972028021508439e-05
-0.12494007503264584,-0.12494007503264584,0.999952976366202,4.950043173397474e-05
-0.12346656060399255,-0.12346656060399255,0.9999475194872319,4.9527007747453654e-05
-0.12187876354582841,-0.12187876354582841,0.9999080108351437,4.9495726723598514e-05
-0.12090645559801487,-0.12090645559801487,1.0000415491197348,4.949089494836467e-05
-0.11933939148002537,-0.11933939148002537,0.9999716225454465,4.945149676963147e-05
-0.11758038825064432,-0.11758038825064432,0.9999153276246424,4.9448868310764726e-05
-0.1158942889800528,-0.1158942889800528,0.9999508726744473,4.9470929765747885e-05
-0.11443472573009786,-0.11443472573009786,0.9999532909388712,4.946258743647827e-05
-0.11248019458871568,-0.11248019458871568,1.0000578097126227,4.94361277574204e-05
-0.111133858357789,-0.111133858357789,1.000011505660322,4.9728378570565686e-05
-0.10968910359661095,-0.10968910359661095,0.9999606724763765,4.9592549811248405e-05
-0.10816182974667754,-0.10816182974667754,0.9999292199226859,4.9465869782188874e-05
-0.10662438498693519,-0.10662438498693519,0.9999708264416005,4.947476669084884e-05
-0.10530677668139106,-0.10530677668139106,1.0000521106509654,4.945692646265576e-05
