time,time,flux,flux_err
-0.49991061278560667,-0.49991061278560667,0.9996568242788209,0.00024946211703972014
-0.49986296601055075,-0.49986296601055075,0.9998013702460096,0.00024960668112622143
-0.49977931046960294,-0.49977931046960294,0.9998449814679271,0.00025995392846026494
-0.49967524163294,-0.49967524163294,1.0002804222103183,0.00024159331631112775
-0.4995230542233912,-0.4995230542233912,0.9999361613665704,0.00027459170891933114
-0.4993644264817704,-0.4993644264817704,0.9999420802667425,0.00025882811196028686
-0.4992512033175444,-0.4992512033175444,0.9998889540912778,0.0002465660808534455
-0.49917286077179596,-0.49917286077179596,0.9999155866713536,0.0002513691080615847
-0.49900680641221695,-0.49900680641221695,1.0000315360148486,0.00025365037997846906
-0.49883477349649186,-0.49883477349649186,0.9998506952478378,0.00024709401753489205
-0.4986973912826215,-0.4986973912826215,0.9996724195728175,0.0002744082478181518
-0.49845063683897023,-0.49845063683897023,0.9999575739083959,0.00028823883627688315
-0.49836624877498253,-0.49836624877498253,1.0001228543596625,0.00028652375602782103
-0.49826769994469944,-0.49826769994469944,1.0000986005308823,0.00024635009724782004
-0.49815655961574523,-0.49815655961574523,0.9998405129690212,0.00025733035194795895
-0.49796349643802384,-0.49796349643802384,1.000673779903807,0.0002461733102771091
-0.4978859777882462,-0.4978859777882462,0.9998450114390224,0.00027502931981054267
-0.4977947468418279,-0.4977947468418279,1.000157900562042,0.00027488233488710514
-0.4977345756546129,-0.4977345756546129,0.9996893478743776,0.00028107492404611027
-0.4976343955546326,-0.4976343955546326,1.0000578808288796,0.0003157310197064176
-0.4975018048200582,-0.4975018048200582,1.0002657076528463,0.0003115813193386891
-0.4974156346208474,-0.4974156346208474,1.0001324739745727,0.0002546875477957352
-0.4973123963522085,-0.4973123963522085,1.0001952615921554,0.0002588896118158755
-0.4971284121646022,-0.4971284121646022,0.9999949041393211,0.00028556902429812856
-0.4969984919633134,-0.4969984919633134,0.999763587930833,0.0002785340914528942
-0.4968988995606196,-0.4968988995606196,1.0002066708992978,0.00031114746320020693
-0.49682960764985185,-0.49682960764985185,0.9998870432023006,0.00024668252150591904
-0.4967276816016238,-0.4967276816016238,0.9998987491171759,0.0003103346084945784
-0.49662643508345355,-0.49662643508345355,0.9999958137082878,0.00031711219238206843
-0.4965015763926203,-0.4965015763926203,1.0003666284733215,0.00024145217673397166
-0.49640199885325276,-0.49640199885325276,0.9999982505009946,0.0002617181697055852
-0.4963017790389131,-0.4963017790389131,0.9997893243125698,0.00025376741545986124
-0.49616425306448947,-0.49616425306448947,1.0002973812054972,0.00025121952344896116
-0.496070260606939,-0.496070260606939,1.0000669957334412,0.00031426999514775754
-0.4959270022918645,-0.4959270022918645,0.9998013667904028,0.00028866069091768715
-0.49585932242989655,-0.49585932242989655,1.0001057853593533,0.00030885488060754045
-0.49579034119888094,-0.49579034119888094,1.0000809271912154,0.00028042117445169397
-0.4956570834336162,-0.4956570834336162,1.0003646567331368,0.0002830350448067578
-0.4955265253658581,-0.4955265253658581,1.000034982131118,0.0002459940343897462
-0.4953647943737451,-0.4953647943737451,0.9998717004099305,0.0002552039833116337
-0.4952622879798582,-0.4952622879798582,0.9997824944466075,0.00028164051092249766
-0.49519168043989337,-0.49519168043989337,1.0003749960042627,0.00026592103492889936
-0.49499928714576524,-0.49499928714576524,0.9999473367658389,0.0003375604652577662
-0.49490445873234423,-0.49490445873234423,0.9999466932124561,0.0002949648189057847
-0.4947298977705941,-0.4947298977705941,1.0002648809786856,0.00028749048466923964
-0.4946451350559073,-0.4946451350559073,0.9999017124318094,0.00026081396251731117
-0.4945632951312291,-0.4945632951312291,0.9998382622188723,0.00025575824300670636
-0.4943834222707665,-0.4943834222707665,0.9997506844063194,0.0002865997299203843
-0.49427182952931614,-0.49427182952931614,0.9999873580877934,0.0002743289248968774
-0.4941393007124134,-0.4941393007124134,1.000206648051503,0.0003059475589366905
-0.4940370217860618,-0.4940370217860618,1.0000049518166498,0.0003147688772626076
-0.4939508960109379,-0.4939508960109379,1.0002163884536408,0.0002842979891608477
-0.4937828158654156,-0.4937828158654156,0.9999922986717926,0.0002515282585073442
-0.49362311406657683,-0.49362311406657683,1.0001646938827111,0.0002539120790310741
-0.4934682594030164,-0.4934682594030164,1.000108769637839,0.00028167758494521296
-0.4933439053093025,-0.4933439053093025,0.9998421585891004,0.00028004073449123927
-0.49323804266168736,-0.49323804266168736,1.0005365512321778,0.00028145392642021423
-0.4931508624948037,-0.4931508624948037,1.0001401549407194,0.0002936662315744412
-0.49302283644938144,-0.49302283644938144,1.000009305290226,0.00028475978762605855
-0.49288756511450627,-0.49288756511450627,1.00033888594364,0.00025251803130105417
-0.49264403843772014,-0.49264403843772014,1.0001920435721008,0.00029144939720063197
-0.49248325534572357,-0.49248325534572357,1.000201684668156,0.0002753759402502692
-0.49237081763567403,-0.49237081763567403,0.9996902192439107,0.0002905949019626511
-0.4922720952628879,-0.4922720952628879,0.9998685551749624,0.0002853371211260235
-0.49222528147365663,-0.49222528147365663,0.9999415261347501,0.0002516157508629964
-0.4920764715068799,-0.4920764715068799,1.000101797469695,0.00025976479742434986
-0.49190105709421916,-0.49190105709421916,1.0000540661607098,0.0002559562325844371
-0.4916011116860318,-0.4916011116860318,0.9998429918553932,0.000260954880866507
-0.49149241546547273,-0.49149241546547273,0.9999299864528334,0.00024784549396162693
-0.4913959036799497,-0.4913959036799497,1.0002302527444638,0.00028916459008897287
-0.4913435050162661,-0.4913435050162661,0.999896695967984,0.0002564775596590116
-0.4912867806153372,-0.4912867806153372,0.9997027090147034,0.00024717119654237967
-0.49116606734969537,-0.49116606734969537,1.0000788093207937,0.00027871414628370916
-0.4909185306278232,-0.4909185306278232,1.0002141008312873,0.0002621063909117911
-0.4906994676864997,-0.4906994676864997,0.999832613326269,0.00024481995843028524
-0.4906070010853,-0.4906070010853,0.9997034074870959,0.0002413359877881674
-0.4905227810086217,-0.4905227810086217,1.000079491034304,0.0002714598519477485
-0.49040374132528086,-0.49040374132528086,0.9999537079578618,0.00025623341848258693
-0.49021947984219877,-0.49021947984219877,1.0001686750453864,0.0002560596320530449
-0.4899751726370596,-0.4899751726370596,0.999440169184694,0.0002586263722608236
-0.48984928775680603,-0.48984928775680603,0.9997859522248895,0.0002469514426636602
-0.48970371170071303,-0.48970371170071303,1.0001082315822347,0.0002553093724566696
-0.489606341887702,-0.489606341887702,1.00012131299599,0.00025470608431238335
-0.48955441343496203,-0.48955441343496203,1.0001083554684682,0.0002566671840503228
-0.4894455783862213,-0.4894455783862213,1.0000197795056969,0.0002513261571991083
-0.48928689768581535,-0.48928689768581535,1.0004899697375982,0.0002539283615792045
-0.489175727271504,-0.489175727271504,0.9998994228912943,0.00035976816384105975
-0.48901802474210854,-0.48901802474210854,1.0003464974216911,0.00024330110105644204
-0.4889139096114377,-0.4889139096114377,0.9997531694966405,0.00026738896096804144
-0.48876948005054144,-0.48876948005054144,1.000172079248192,0.0002528168990982057
-0.4886791859658842,-0.4886791859658842,0.9999509445915121,0.00027693687197543704
-0.48856758162146435,-0.48856758162146435,0.9999567687915768,0.0002595881619082533
-0.4884732667786011,-0.4884732667786011,1.0001483989367579,0.00024490276747201906
-0.48835159445370663,-0.48835159445370663,1.0003146172727497,0.00024053817873728386
-0.48826122434038555,-0.48826122434038555,0.9996811316131705,0.000295423155876879
-0.4881255434404011,-0.4881255434404011,0.9999526542560266,0.00025365778662037915
-0.48804376753396356,-0.48804376753396356,1.000047960932323,0.00024833338699549413
-0.4879246405485901,-0.4879246405485901,1.0000830109853882,0.0002462287818410991
-0.4877334440840059,-0.4877334440840059,0.9998883359442943,0.0002468764923883245
-0.4875937163393246,-0.4875937163393246,1.0000245204529983,0.0002589360685932778
-0.48743337188498115,-0.48743337188498115,1.000467634713527,0.00027716311628913064
-0.4872561003714509,-0.4872561003714509,0.9998356297124376,0.0002565527709300575
-0.4871046381806082,-0.4871046381806082,0.9997931684646651,0.00025130215194960564
-0.48698545111183195,-0.48698545111183195,0.999652005406843,0.0002528186868046347
-0.4868629863100068,-0.4868629863100068,0.9998926922656605,0.000251494909043035
-0.4867075113485043,-0.4867075113485043,0.999967500588826,0.00025831424408544066
-0.4865333991983789,-0.4865333991983789,1.0000874960149388,0.0002911406897826253
-0.4863568732733256,-0.4863568732733256,1.0002189818126053,0.0002483784793528257
-0.48629441144585145,-0.48629441144585145,1.0006013059063537,0.0002497885946953119
-0.48622685007721883,-0.48622685007721883,1.0001420907456648,0.00025769419495716027
-0.48609823703955046,-0.48609823703955046,1.000093249516158,0.00027890715794172654
-0.48594200442239527,-0.48594200442239527,1.0001366511305076,0.00025377614237741356
-0.48577196346159324,-0.48577196346159324,0.9996240735754794,0.00025039166157339577
-0.4856499864101352,-0.4856499864101352,0.9999751433932786,0.00029175509549415733
-0.4855351450300077,-0.4855351450300077,1.0003069520777759,0.0002476192183404017
-0.4854259603715036,-0.4854259603715036,1.0003327830904827,0.00024094212182246407
-0.4853278665883408,-0.4853278665883408,0.9996795514032101,0.00024296830690725122
-0.48526933322791593,-0.48526933322791593,1.000360012477453,0.0002568879408239571
-0.4851495216062176,-0.4851495216062176,1.0002179984721997,0.0002563756619664421
-0.4849713175375655,-0.4849713175375655,0.9999332739164999,0.00025718864253380355
-0.4847932654120086,-0.4847932654120086,1.0003630834055137,0.0002472401681183675
-0.4846771587319381,-0.4846771587319381,1.0003051106990335,0.0002592842079075306
-0.4845883404210326,-0.4845883404210326,1.0002570820179522,0.0002562226262017932
-0.48450240819875035,-0.48450240819875035,1.000012618320682,0.00024245064962905255
-0.48439375807720353,-0.48439375807720353,0.999862967022301,0.00023992420362933686
-0.48426943903396025,-0.48426943903396025,1.0000531984482737,0.000249981684139743
-0.4841566481110931,-0.4841566481110931,0.9999815858260203,0.00024849090235092226
-0.4840500453123241,-0.4840500453123241,1.0000178914373685,0.00024006899505843666
-0.4839114082511514,-0.4839114082511514,1.0002350131084992,0.0002385171929327878
-0.4837128123581351,-0.4837128123581351,1.0000576907384593,0.00025405956231597135
-0.4836307993231458,-0.4836307993231458,0.999644821825607,0.00026516131708819075
-0.4835108029212279,-0.4835108029212279,1.0000187051709486,0.00025899615038983426
-0.4833823126471543,-0.4833823126471543,1.0002009171686987,0.00024967981557822924
-0.4832961597268877,-0.4832961597268877,0.999842161135863,0.0002529727334822219
-0.48318680908487294,-0.48318680908487294,0.9996452807359409,0.0002527064735695286
-0.48306487191002817,-0.48306487191002817,0.9997764456998983,0.0002714406484179754
-0.4829308825203043,-0.4829308825203043,0.9999106957853832,0.0002574763719875033
-0.4827916218513565,-0.4827916218513565,1.0001917023483629,0.0002828970951484461
-0.4827173244593723,-0.4827173244593723,1.000053801228257,0.00024652373241187844
-0.4826407388376538,-0.4826407388376538,0.9999806503682853,0.000274364812396625
-0.4825431745586684,-0.4825431745586684,0.9997123090137643,0.0002429462927326273
-0.4823734374876949,-0.4823734374876949,1.0001329572067077,0.000249700381659136
-0.48222493174907866,-0.48222493174907866,0.9997313912238109,0.0002731966536102939
-0.4821500531725178,-0.4821500531725178,0.9999409698161518,0.00028118616978872556
-0.48190560136717975,-0.48190560136717975,0.9998713036105951,0.00028827252281570556
-0.4818587897192629,-0.4818587897192629,0.9998205035872807,0.00028067999425509334
-0.48178056142278364,-0.48178056142278364,0.9998761305432747,0.00025106004701595894
-0.48169500665171655,-0.48169500665171655,1.0001891723627103,0.0002535790961891783
-0.48153709167818304,-0.48153709167818304,1.000042747108467,0.00025049457940656535
-0.4813853042302071,-0.4813853042302071,1.0000935529839754,0.0002782314877727026
-0.48127769033017104,-0.48127769033017104,0.9998738365682648,0.00027498082538963655
-0.48118686732341304,-0.48118686732341304,0.9999461754931538,0.0002809718523289639
-0.4811124255495088,-0.4811124255495088,1.0000297763872832,0.00031154228924593243
-0.4809773781140393,-0.4809773781140393,0.9996199680997219,0.0003222903525578414
-0.4808974485989893,-0.4808974485989893,1.0000635076268467,0.0002553567360523844
-0.4807981899888546,-0.4807981899888546,1.000178094877592,0.00025116479995972954
-0.48065638056141324,-0.48065638056141324,1.0001373966366471,0.0002609322349251415
-0.48055855350758064,-0.48055855350758064,1.0002831544462993,0.00024668987726490126
-0.48045567195440525,-0.48045567195440525,1.0004962619444275,0.000310901674638732
-0.48036850631106065,-0.48036850631106065,1.0002169927172784,0.00025294157522453593
-0.4803022262916784,-0.4803022262916784,0.9996571616409831,0.0002799096885040337
-0.48020915820743537,-0.48020915820743537,1.000205402880813,0.0003037668569530645
-0.4801254151199828,-0.4801254151199828,0.9995659689630644,0.0002857961743284009
-0.4800009815466183,-0.4800009815466183,1.0003103611344446,0.00028104397010900173
-0.4798763651757326,-0.4798763651757326,0.9999506872402764,0.0002587013238119317
-0.47976006316966957,-0.47976006316966957,1.0000706616535395,0.0002568107635589011
-0.4796604331721028,-0.4796604331721028,1.0001407493855992,0.000246158691010583
-0.4795940977644932,-0.4795940977644932,0.9994123306036634,0.0002865521175436736
-0.4795093539461959,-0.4795093539461959,1.0005300058065996,0.00031391440244880924
-0.47934851905229153,-0.47934851905229153,1.0000613763823023,0.0002897916193308071
-0.479280638354976,-0.479280638354976,0.9999684892687487,0.0002898306672588328
-0.4792084277891263,-0.4792084277891263,1.0003199118934814,0.0003054636512270835
-0.47905450713951725,-0.47905450713951725,1.0000090160843975,0.00024807874914150853
-0.4789221651786647,-0.4789221651786647,1.0000727464912527,0.00024876518958529865
-0.4787477088284504,-0.4787477088284504,1.0002236698969067,0.00028314982185437796
-0.47869373394205467,-0.47869373394205467,0.9995872487035566,0.0002405200550767837
-0.47855180695914895,-0.47855180695914895,0.9998088303368201,0.000331470518646531
-0.4783867732505314,-0.4783867732505314,0.9998354613438636,0.00029449937236523434
-0.4782549922907492,-0.4782549922907492,0.9998346976520862,0.00031752515852718637
-0.47810180448068423,-0.47810180448068423,0.9999194026927537,0.00026029612795521546
-0.4779877970773668,-0.4779877970773668,1.000079257076084,0.00025319322912594036
-0.4778092088919948,-0.4778092088919948,1.0004377756218004,0.0003153065912777376
-0.47774677473207705,-0.47774677473207705,0.9995448083038172,0.00024291414680285261
-0.47765684064579544,-0.47765684064579544,0.9999811089255622,0.0003080758037940461
-0.4775234650565835,-0.4775234650565835,1.0003245425845653,0.0002804355784194764
-0.4774500618761522,-0.4774500618761522,0.999672813999226,0.0002761628271889611
-0.4773497475172917,-0.4773497475172917,1.0002855849808305,0.0002849222315142815
-0.4771521946757275,-0.4771521946757275,0.9998714038566756,0.0002570819629940498
-0.4770137360676017,-0.4770137360676017,0.9996965153614829,0.0002757519644501334
-0.4768764608365018,-0.4768764608365018,0.9996602736024478,0.0002454688133100971
-0.47681686289215575,-0.47681686289215575,1.000046343959734,0.0002778919327754934
-0.476722488534142,-0.476722488534142,0.9997983724224919,0.0002517241044977095
-0.47664177637634564,-0.47664177637634564,1.000410272523705,0.0003115850790203782
-0.4765365420120361,-0.4765365420120361,0.9999706814352385,0.00028185444679921666
-0.4764069340300921,-0.4764069340300921,0.9998815839886618,0.00026450263205704235
-0.4762112344687921,-0.4762112344687921,1.0001929572021306,0.0002821408991916172
-0.4760076272461447,-0.4760076272461447,1.0001890822513309,0.0002872822050352617
-0.475885942846071,-0.475885942846071,0.9999209530399369,0.00024039739948061517
-0.4757877851945523,-0.4757877851945523,1.0000219269082375,0.0002844378766290438
-0.475720352686767,-0.475720352686767,0.9998940784693305,0.0002844387610840613
-0.47567798629097524,-0.47567798629097524,1.0000831313469276,0.00025021379326262627
-0.4755178167091799,-0.4755178167091799,1.0000478089206972,0.00025431246515189847
-0.4753281006684119,-0.4753281006684119,0.9998105299298125,0.00024423094596339026
-0.4751029060847941,-0.4751029060847941,0.9997703230089241,0.00025758425465644116
-0.4749652602702554,-0.4749652602702554,0.9997082751952192,0.0002669058519224191
-0.4748297628313594,-0.4748297628313594,1.0008219370275127,0.0002593235339208781
-0.47478132982432725,-0.47478132982432725,1.0001640129214986,0.0002497179393074863
-0.4746944402293593,-0.4746944402293593,0.999995456511616,0.00024480563723460044
-0.474546030498459,-0.474546030498459,1.0002126182095747,0.0002801500819411624
-0.474320763979631,-0.474320763979631,0.9999436960354716,0.00025965258423148375
-0.47414290655142394,-0.47414290655142394,1.0001725409852151,0.00023944556243438593
-0.4740414367799531,-0.4740414367799531,1.0001125915433122,0.0002583070427182427
-0.4739439512202807,-0.4739439512202807,0.9998690664612147,0.00026567164417663086
-0.4738553200622846,-0.4738553200622846,0.999796992389156,0.000245692051365124
-0.4737067177236895,-0.4737067177236895,1.0000415450670732,0.00024946806643280997
-0.4734268573629379,-0.4734268573629379,0.9998935327223648,0.00025902288005133267
-0.47335255946527466,-0.47335255946527466,1.000010077680263,0.000239620852047332
-0.47319583446951585,-0.47319583446951585,1.0005522226950934,0.0002622433937454673
-0.4731056651631661,-0.4731056651631661,1.0001364878725951,0.0002593748032450607
-0.47301699887611903,-0.47301699887611903,0.9998242646594833,0.000256905143301987
-0.47292417024291356,-0.47292417024291356,1.0000880982055775,0.000255689706679662
-0.47275832790182903,-0.47275832790182903,1.0001597789070087,0.00025433944563777686
-0.4726724956490216,-0.4726724956490216,1.00077216287058,0.000326381545069855
-0.4725002564009628,-0.4725002564009628,1.000015401799465,0.0002805843207092533
-0.472341368063644,-0.472341368063644,0.9999390577910485,0.00024481783299484843
-0.47221786556910955,-0.47221786556910955,0.9997183468789694,0.00024399009619494055
-0.4720966821601905,-0.4720966821601905,0.9997336569020504,0.0002526221856639529
-0.4719901622302132,-0.4719901622302132,0.9998846155856519,0.0002522146195899931
-0.47189855779288337,-0.47189855779288337,0.9994200815331595,0.00024664359510553354
-0.4717272435198538,-0.4717272435198538,0.9999315270694173,0.0002926328069768008
-0.4715831892572169,-0.4715831892572169,0.9997863202110754,0.0002617748236485945
-0.4714778654211841,-0.4714778654211841,0.9997945771402861,0.00024799470691391426
-0.47136079985575635,-0.47136079985575635,0.9996188329525169,0.00025475047343918205
-0.4711542314900726,-0.4711542314900726,0.9996691844720988,0.00024930084822213716
-0.47099070510448654,-0.47099070510448654,0.9996144669028821,0.00025453127111982056
-0.47084061696004936,-0.47084061696004936,0.9999876122357307,0.000277976521174047
-0.47071504102495965,-0.47071504102495965,0.9997073335151292,0.0002566506388816156
-0.47063170867913867,-0.47063170867913867,0.9997040334128728,0.00024532425122891175
-0.47053852659664697,-0.47053852659664697,0.9997611083661313,0.0002455862961192512
-0.4704312554174976,-0.4704312554174976,1.0001439853174596,0.00025254538786591014
-0.47032164534830373,-0.47032164534830373,0.9999136980974228,0.00025360775713135326
-0.4701866736570082,-0.4701866736570082,1.0001881526700964,0.0002508337647319907
-0.470088481764833,-0.470088481764833,0.9997324249372304,0.0002665426070788973
