time,time,flux,flux_err
-0.4982163273871265,-0.4982163273871265,0.9999716892735839,3.685733906001433e-05
-0.4970758829113038,-0.4970758829113038,1.0000144917240643,3.685469983401207e-05
-0.4952482612619254,-0.4952482612619254,1.0000051017789837,3.686065238072859e-05
-0.49369738879977376,-0.49369738879977376,0.9999790965240244,3.364621039544233e-05
-0.49266503656763233,-0.49266503656763233,1.0000570618511333,3.364808878880215e-05
-0.4920531268027844,-0.4920531268027844,0.9999996877793776,3.363849093089928e-05
-0.49043596266928946,-0.49043596266928946,1.0000768361230903,3.3643745146234466e-05
-0.48886587796732783,-0.48886587796732783,1.000052972945523,3.363434911430105e-05
-0.4872914857478463,-0.4872914857478463,0.9999456670065087,3.3650645930751206e-05
-0.4859323424592731,-0.4859323424592731,0.9999679038625324,3.364662053344053e-05
-0.4847617964238452,-0.4847617964238452,1.0000226571869244,3.3629961592610055e-05
-0.48400221069678084,-0.48400221069678084,0.9999024550377685,3.363836562880113e-05
-0.48342496014665814,-0.48342496014665814,1.000013538637773,3.364894225322582e-05
-0.4825021079690487,-0.4825021079690487,0.9999404268133418,3.363588784669707e-05
-0.4803115058399271,-0.4803115058399271,1.000027429139251,3.3637693729859775e-05
-0.47824460229458055,-0.47824460229458055,1.0000089530043161,3.365369210815668e-05
-0.47624697593128074,-0.47624697593128074,0.9999973830329709,3.3630373304920235e-05
-0.47516992032687994,-0.47516992032687994,1.000018990653932,3.365138787248261e-05
-0.4746405370875436,-0.4746405370875436,1.0000352526157477,3.365895616325357e-05
-0.4739016913277737,-0.4739016913277737,1.0000306578504141,3.363658490548735e-05
-0.4727697319307481,-0.4727697319307481,1.0000012289109919,3.36411534357724e-05
-0.47068833641023955,-0.47068833641023955,1.000013272464063,3.363217486368067e-05
-0.46891750010763644,-0.46891750010763644,1.0000229890290753,3.365401203081864e-05
-0.4674251814103627,-0.4674251814103627,1.0000489100746406,3.363737196698609e-05
-0.4661682423713501,-0.4661682423713501,1.0000024981401059,3.3632284184207626e-05
-0.4654674676909053,-0.4654674676909053,1.0000468708307724,3.363995282801376e-05
-0.46429974756974846,-0.46429974756974846,1.000001882243324,3.36394217295542e-05
-0.46200821729944436,-0.46200821729944436,0.9999839097790468,3.364639201238269e-05
-0.46089796814194417,-0.46089796814194417,0.9999702426128977,3.364776034730379e-05
-0.45969433434074747,-0.45969433434074747,0.9999737176011413,3.364437365722201e-05
-0.4584943832902354,-0.4584943832902354,1.0000217385368189,3.363742643381715e-05
-0.4574573824436811,-0.4574573824436811,0.9999994570767505,3.3634994979113135e-05
-0.4567269010884047,-0.4567269010884047,1.000027076025093,3.363629986118291e-05
-0.4559204415680142,-0.4559204415680142,1.000044874579137,3.363533589832191e-05
-0.4549778222135501,-0.4549778222135501,1.0000147225867473,3.363686195075433e-05
-0.45227573928204945,-0.45227573928204945,1.0000383269030726,3.365083879244558e-05
-0.4507255676886416,-0.4507255676886416,1.0000221094041055,3.365346700580504e-05
-0.4490188211908389,-0.4490188211908389,0.9999819758594247,3.3641018166436575e-05
-0.4480291875093826,-0.4480291875093826,1.0000188889410184,3.3650478487995324e-05
-0.4472930740521406,-0.4472930740521406,0.9999991666204489,3.3647739998530306e-05
-0.44607811583409784,-0.44607811583409784,1.0000399870088443,3.363676934965263e-05
-0.4441735722066369,-0.4441735722066369,1.0000110306789036,3.364740487067488e-05
-0.4426141146941518,-0.4426141146941518,0.9999825793399921,3.3641083178410406e-05
-0.44084230490771004,-0.44084230490771004,0.9999902809879101,3.363947951931451e-05
-0.43924655748269287,-0.43924655748269287,0.9999674980464419,3.3642768024831504e-05
-0.4382571203961561,-0.4382571203961561,1.000012253732065,3.365158986032707e-05
-0.43666074293869317,-0.43666074293869317,1.0000117046256336,3.36363802674195e-05
-0.4334818281742628,-0.4334818281742628,0.9999951562693663,3.3642259423542545e-05
-0.4315809068786621,-0.4315809068786621,1.0000078655624203,3.365185172481614e-05
-0.4301720358605962,-0.4301720358605962,1.000081867667904,3.3647510961972445e-05
-0.42899591334789877,-0.42899591334789877,0.9999283070845676,3.365539013273795e-05
-0.4280210465847631,-0.4280210465847631,1.000047101397324,3.36296256995381e-05
-0.4251139764157415,-0.4251139764157415,0.9999777284301519,3.364205255212161e-05
-0.4238440065033501,-0.4238440065033501,1.000009884329796,3.3653574856100985e-05
-0.42240334584057565,-0.42240334584057565,1.0000112769910523,3.364607511862243e-05
-0.42141364129493014,-0.42141364129493014,0.9999462157568175,3.363538407293419e-05
-0.4204026762381545,-0.4204026762381545,0.9999766514093184,3.36545629900182e-05
-0.41985366629814963,-0.41985366629814963,1.0000193555146564,3.363851258096219e-05
-0.4180973293252464,-0.4180973293252464,1.0000054565668415,3.365037767210199e-05
-0.4161925465392414,-0.4161925465392414,1.0000421874470473,3.3633890833315746e-05
-0.41515588893016686,-0.41515588893016686,1.0000592074338557,3.36579231566243e-05
-0.4136739987945475,-0.4136739987945475,1.0000240238872364,3.363687930230209e-05
-0.41229843849359893,-0.41229843849359893,0.9999913773909581,3.364244333381299e-05
-0.41115949626037035,-0.41115949626037035,0.9999869981066766,3.363825997119696e-05
-0.4103180569807591,-0.4103180569807591,1.0000881585342207,3.3634396661584475e-05
-0.408262134152028,-0.408262134152028,1.0000134335498712,3.363711855261914e-05
-0.40716565259863274,-0.40716565259863274,0.9999917501263663,3.3639533216351906e-05
-0.40647572155139644,-0.40647572155139644,0.9999895310561454,3.4332801029753286e-05
-0.40534808437369063,-0.40534808437369063,0.9999458027059276,3.364196919041064e-05
-0.4037025533412816,-0.4037025533412816,1.0000495212674276,3.362956565894896e-05
-0.40274925710546083,-0.40274925710546083,0.9999788355215706,3.364449659275553e-05
-0.4018516707546951,-0.4018516707546951,0.9999696088046302,3.363920054940457e-05
-0.40015529695010627,-0.40015529695010627,1.000030589428357,3.36408953139585e-05
-0.3985477700625779,-0.3985477700625779,1.0000490582125678,3.3646950643891415e-05
-0.3978463245977764,-0.3978463245977764,1.0000213157358,3.3657361485181665e-05
-0.39620904691983017,-0.39620904691983017,1.0000258484063047,3.364077481489498e-05
-0.3945883540895011,-0.3945883540895011,1.000039750231824,3.3647139293127805e-05
-0.3935565912019229,-0.3935565912019229,1.0000433747141537,3.364847765080446e-05
-0.392882403715339,-0.392882403715339,0.9999475369962212,3.363752711231626e-05
-0.3915399077588518,-0.3915399077588518,0.9999928100313218,3.363698557832967e-05
-0.39008895889055567,-0.39008895889055567,1.0001036273582709,3.363875660969856e-05
-0.38921226576494516,-0.38921226576494516,1.0000436102545407,3.364683484603026e-05
-0.3875514713690791,-0.3875514713690791,0.9999928041929096,3.3641241221102946e-05
-0.3859607306847465,-0.3859607306847465,1.0000045227004304,3.364166482017242e-05
-0.38522915599751284,-0.38522915599751284,0.9999863689649049,3.3635002380248775e-05
-0.3845255434673163,-0.3845255434673163,1.0001042277979388,3.36530814572081e-05
-0.3838159921433544,-0.3838159921433544,1.0000088578385977,3.363892482434529e-05
-0.38217260510791673,-0.38217260510791673,1.0000279329854151,3.363387952266282e-05
-0.3799934718073928,-0.3799934718073928,0.9999945875237707,3.365181013559108e-05
-0.3783543119650858,-0.3783543119650858,1.0000207091677846,3.363824771561504e-05
-0.37661476106222835,-0.37661476106222835,0.9999523286232247,3.3649504936530084e-05
-0.37576578938605965,-0.37576578938605965,0.999991478413637,3.3635855884504355e-05
-0.37509054170222955,-0.37509054170222955,1.0000165474729859,3.363792539403423e-05
-0.37431007166524066,-0.37431007166524066,1.0000166278603997,3.363713120430938e-05
-0.372652904309507,-0.372652904309507,0.9999569336254723,3.363845035940561e-05
-0.37119314121300706,-0.37119314121300706,1.000034485764063,3.365032588676738e-05
-0.3694310522630985,-0.3694310522630985,0.9999800045363136,3.36400181608514e-05
-0.368109145687049,-0.368109145687049,1.000030508764072,3.363222192901949e-05
-0.36703532877727413,-0.36703532877727413,1.0000002377161163,3.36497258375097e-05
-0.36635829182632734,-0.36635829182632734,1.0000178857285817,3.363993548542562e-05
-0.36519127322972056,-0.36519127322972056,0.9999994068643344,3.363934327564162e-05
-0.3628995600687631,-0.3628995600687631,1.0000747822185354,3.3647014895808624e-05
-0.3615129321216955,-0.3615129321216955,1.000073822528938,3.366072216452105e-05
-0.3600663180659467,-0.3600663180659467,0.9999704291473803,3.3639080135108084e-05
-0.3587709850115061,-0.3587709850115061,1.000029213647781,3.363188045904396e-05
-0.3578340520100028,-0.3578340520100028,1.0000400183464173,3.3639076522204894e-05
-0.35717772953721577,-0.35717772953721577,0.9999967831377503,3.363513346738483e-05
-0.35608145008955033,-0.35608145008955033,0.9999898042156108,3.363759148134588e-05
-0.3531674103505793,-0.3531674103505793,1.0000431922702122,3.365106078149345e-05
-0.3516167913629033,-0.3516167913629033,0.9999951398080864,3.365207310622526e-05
-0.35005414063634815,-0.35005414063634815,0.999996022457518,3.363198698167655e-05
-0.34900000645720863,-0.34900000645720863,1.0000475388319134,3.36419830879182e-05
-0.3479700604133541,-0.3479700604133541,1.0000555205926585,3.363935241303904e-05
-0.346535642962408,-0.346535642962408,1.0000470187583015,3.365176110351561e-05
-0.3442446571170876,-0.3442446571170876,0.9999751360795202,3.3628570789445206e-05
-0.34290742656521617,-0.34290742656521617,0.9999919604768068,3.364721183223093e-05
-0.3409438431619492,-0.3409438431619492,1.000002162005651,3.3643948417679024e-05
-0.33980728618334977,-0.33980728618334977,1.0000556774222609,3.364763583251293e-05
-0.3388715591871005,-0.3388715591871005,1.000009917249205,3.364216329521587e-05
-0.337434986072185,-0.337434986072185,1.0000295087745932,3.364497529894721e-05
-0.33467567773695917,-0.33467567773695917,1.0000337623423672,3.364062320486596e-05
-0.3328231911662442,-0.3328231911662442,0.9999660300225139,3.363986910255906e-05
-0.33126059873975466,-0.33126059873975466,0.9999474276522082,3.364878821285771e-05
-0.33007884759645095,-0.33007884759645095,0.9999420280091915,3.366257741034935e-05
-0.3293115044565639,-0.3293115044565639,0.9999366843237729,3.3633445585181465e-05
-0.3270735997968586,-0.3270735997968586,1.0000519199073443,3.3632345861584305e-05
-0.3255420695197245,-0.3255420695197245,0.9999873737292267,3.364107650725597e-05
-0.3240905479207868,-0.3240905479207868,1.0000173890623447,3.365892676490874e-05
-0.32273397983954055,-0.32273397983954055,0.9999538719201417,3.3633276946843234e-05
-0.32161617779129303,-0.32161617779129303,0.9999688737539818,3.365527675978118e-05
-0.32085538093961075,-0.32085538093961075,0.9999642726668838,3.3638053374615856e-05
-0.31955879674642346,-0.31955879674642346,1.0000283988373042,3.3639236882158645e-05
-0.3170835256547434,-0.3170835256547434,0.9999531532557402,3.363346240184528e-05
-0.3160474977994454,-0.3160474977994454,1.0000105824023158,3.365697973543558e-05
-0.3147613797329541,-0.3147613797329541,0.9999518782758983,3.364886695357533e-05
-0.31350492549026965,-0.31350492549026965,1.000024393579725,3.3649305424858205e-05
-0.31249069415571284,-0.31249069415571284,0.9999283039874886,3.3646791040606014e-05
-0.3115989774414629,-0.3115989774414629,1.0000175887936211,3.3636026511458354e-05
-0.310134169927187,-0.310134169927187,0.9999871612228736,3.363026551340532e-05
-0.3084339284148882,-0.3084339284148882,1.0000510804980796,3.3638848458212914e-05
-0.3073752781994699,-0.3073752781994699,1.0000402363458052,3.365545282430973e-05
-0.3060082307812991,-0.3060082307812991,0.9999867874097774,3.365319817087471e-05
-0.30459376851213166,-0.30459376851213166,0.9999450816803455,3.362969990622649e-05
-0.30376455534933483,-0.30376455534933483,1.0000447268200978,3.3647409934421584e-05
-0.3029196407973359,-0.3029196407973359,0.9999806231559161,3.364278259356233e-05
-0.3015702527205576,-0.3015702527205576,0.9999748680198707,3.364119187101342e-05
-0.299463388199365,-0.299463388199365,0.999970460885887,3.36462523081559e-05
-0.29873768304751136,-0.29873768304751136,0.9999661691909658,3.365760145581156e-05
-0.29743844075419473,-0.29743844075419473,0.9999916039545681,3.36409006089595e-05
-0.2957500730008178,-0.2957500730008178,1.0000369709418009,3.36416575918215e-05
-0.29460171188547973,-0.29460171188547973,1.000018752650626,3.364261166661634e-05
-0.29412214547774057,-0.29412214547774057,1.0000066378767196,3.365107996412695e-05
-0.2930563403569977,-0.2930563403569977,1.0000008472626516,3.36378291598093e-05
-0.29085935835610144,-0.29085935835610144,1.0000127859513515,3.363793805777213e-05
-0.28976143301842966,-0.28976143301842966,1.0000101184700056,3.364518818601987e-05
-0.28846434066290383,-0.28846434066290383,0.9999810983364258,3.3638149537355553e-05
-0.2870787525862397,-0.2870787525862397,1.0000644732809512,3.3645024383517395e-05
-0.28622092892182993,-0.28622092892182993,1.00001746356598,3.3635377545697775e-05
-0.2854167490666441,-0.2854167490666441,0.9999676996828842,3.36505557019055e-05
-0.28470765205056525,-0.28470765205056525,1.0000344337014484,3.3638667873818064e-05
-0.28271239675523246,-0.28271239675523246,0.9999907806251054,3.363240387690647e-05
-0.28073087661832685,-0.28073087661832685,1.000037733275875,3.4322178760479e-05
-0.2792455441493075,-0.2792455441493075,0.9999706161538395,3.3638105360911936e-05
-0.2777007213924662,-0.2777007213924662,1.000082219011616,3.364710132126691e-05
-0.27677186323780917,-0.27677186323780917,1.0000046326960386,3.363984722672144e-05
-0.2761573958530789,-0.2761573958530789,0.9999449751395659,3.363904046250358e-05
-0.27520220528531353,-0.27520220528531353,1.000044937483316,3.3637781848195246e-05
-0.27331332170797396,-0.27331332170797396,1.0000531134273234,3.364014059033176e-05
-0.2718768886887119,-0.2718768886887119,1.0000396005385066,3.36488635898159e-05
-0.27032211910482146,-0.27032211910482146,1.0000554023252026,3.36412383692835e-05
-0.2690001971059246,-0.2690001971059246,1.0000000298948026,3.36319937363319e-05
-0.26792775216381415,-0.26792775216381415,0.9999762453644182,3.3643925805931256e-05
-0.2674209863558644,-0.2674209863558644,0.9999719653726095,3.3642001302083306e-05
-0.26640620048128766,-0.26640620048128766,1.0000746060169636,3.36402605791775e-05
-0.2643584218501928,-0.2643584218501928,1.000095536209767,3.3644752881559266e-05
-0.2627835249142663,-0.2627835249142663,0.9999998684255296,3.3655437676992334e-05
-0.2612437722578761,-0.2612437722578761,0.9999753668905432,3.364133706199644e-05
-0.2601663231012935,-0.2601663231012935,0.999967968790582,3.3629336180569405e-05
-0.25903496179525975,-0.25903496179525975,1.0000003405968962,3.363242872179333e-05
-0.258359539086814,-0.258359539086814,1.0000738171252979,3.363853260461958e-05
-0.257490624874481,-0.257490624874481,1.0000481224348876,3.363902419206783e-05
-0.2553413417859701,-0.2553413417859701,1.000014232675986,3.364953555734916e-05
-0.2530281853534689,-0.2530281853534689,0.999992583441976,3.364230487357774e-05
-0.25153864765379697,-0.25153864765379697,0.9999980334930856,3.364319890414388e-05
-0.2498912747927534,-0.2498912747927534,0.9999603406840155,3.364037252579281e-05
-0.24886056953764638,-0.24886056953764638,1.0000332822549196,3.3639356753297044e-05
-0.24724097048747354,-0.24724097048747354,0.9999814095935802,3.365033985772575e-05
-0.24462007544425432,-0.24462007544425432,1.0000089309430897,3.364114293275529e-05
-0.24327236164317584,-0.24327236164317584,0.9999709831231531,3.363432634351795e-05
-0.24183453730511245,-0.24183453730511245,0.9999244219544547,3.364297252276955e-05
-0.24069809729408007,-0.24069809729408007,0.9999797682900423,3.3645432662076495e-05
-0.23976226396334824,-0.23976226396334824,0.9999885606504639,3.364065217460901e-05
-0.23778494631114883,-0.23778494631114883,0.9999873521327991,3.3631497984384046e-05
-0.2348874111317855,-0.2348874111317855,0.999994219361548,3.364828389754463e-05
-0.23331701025890653,-0.23331701025890653,1.0000194320791809,3.363373779229934e-05
-0.23215141995315208,-0.23215141995315208,0.9999807339429057,3.3651194855356155e-05
-0.2309702557635319,-0.2309702557635319,1.0000102024893265,3.366296797820545e-05
-0.23036786845550522,-0.23036786845550522,1.0000139919666695,3.3636639384861335e-05
-0.22792787206199136,-0.22792787206199136,1.0000398932475425,3.364102343581366e-05
-0.22614603716065176,-0.22614603716065176,0.9999647052179526,3.3643760463887706e-05
-0.2246699903786066,-0.2246699903786066,1.0000200698253003,3.365781779618224e-05
-0.2233035841862147,-0.2233035841862147,0.999954636366849,3.3634696196027724e-05
-0.22210298932768638,-0.22210298932768638,1.0000503691044933,3.365473104544527e-05
-0.22149254983160063,-0.22149254983160063,0.9999823389776932,3.363871240038512e-05
-0.2199599198582291,-0.2199599198582291,0.9999848547623762,3.364196148044322e-05
-0.21797450689409742,-0.21797450689409742,0.9999842872462772,3.363397108451171e-05
-0.2169391082577931,-0.2169391082577931,0.9999558921637168,3.365475767771933e-05
-0.21545540542283562,-0.21545540542283562,0.9999782068512978,3.363495016136513e-05
-0.2143249185552122,-0.2143249185552122,0.9999949001205231,3.3652688637996184e-05
-0.21338202123879454,-0.21338202123879454,1.0000559551862362,3.3647556820076326e-05
-0.21250137631432153,-0.21250137631432153,0.9999973072822999,3.3632517311831426e-05
-0.21138173746730898,-0.21138173746730898,1.000043042344236,3.3632983980413404e-05
-0.2093254197818169,-0.2093254197818169,0.9999693165158823,3.363871770571375e-05
-0.20826707234591596,-0.20826707234591596,1.0000194263290492,3.365596448355699e-05
-0.2067852729393053,-0.2067852729393053,1.0000226990849514,3.364200696975278e-05
-0.20526151160083828,-0.20526151160083828,1.0000500031520392,3.363466383041641e-05
-0.20430617073579924,-0.20430617073579924,1.0000730866379288,3.3649590492485274e-05
-0.20346602464851457,-0.20346602464851457,0.9999586772270872,3.363954488008457e-05
-0.20146302141947672,-0.20146302141947672,1.0000141072428792,3.3635940885572225e-05
-0.20010659028703232,-0.20010659028703232,0.9999757603618742,3.364843215029848e-05
-0.1991834630665835,-0.1991834630665835,1.0000098439671379,3.366747279213033e-05
-0.19761351674751496,-0.19761351674751496,1.0000163334709367,3.364979238338682e-05
-0.19613282067875842,-0.19613282067875842,0.9999972656664454,3.363709540526703e-05
-0.1953001461319218,-0.1953001461319218,1.0000172240147536,3.364953813482945e-05
-0.19467659663714584,-0.19467659663714584,0.9999875575784148,3.3637376881131e-05
-0.19349914951453684,-0.19349914951453684,1.000033737801775,3.36446895313854e-05
-0.19154306326745427,-0.19154306326745427,0.9999894370660236,3.363089670634738e-05
-0.18999518465061555,-0.18999518465061555,1.0000301473060937,3.3651445685180907e-05
-0.1886796001206676,-0.1886796001206676,1.0000102411777758,3.3646294061073813e-05
-0.18743543289747322,-0.18743543289747322,1.0000067515622426,3.3629375680171555e-05
-0.18656227599421982,-0.18656227599421982,0.9999605026562678,3.3640708058733874e-05
-0.18593486142635812,-0.18593486142635812,0.9999790599632435,3.365006992741866e-05
-0.18492902105717804,-0.18492902105717804,0.9999459220568113,3.364569582699494e-05
-0.18241949111470604,-0.18241949111470604,0.9999766144695391,3.3634773578294775e-05
-0.18082600543712032,-0.18082600543712032,1.0000434529025592,3.3655556381276394e-05
-0.1789780432889529,-0.1789780432889529,1.000060307487941,3.363410315136454e-05
-0.17804566413979045,-0.17804566413979045,1.0000454727113834,3.365255361952111e-05
-0.1773357514939562,-0.1773357514939562,0.9999944074647985,3.364198777070221e-05
-0.17661826940529862,-0.17661826940529862,1.0000004832279266,3.363738395078552e-05
-0.17544501708543975,-0.17544501708543975,0.9999219627778071,3.363597978643625e-05
-0.17346191177421133,-0.17346191177421133,0.9999101008168987,3.363433383776183e-05
-0.17209455096090095,-0.17209455096090095,0.9999797461836138,3.365318737847202e-05
-0.17064496230668738,-0.17064496230668738,1.0000154333985374,3.3641358491919295e-05
