time,time,flux,flux_err
-0.49967886875965634,-0.49967886875965634,1.0002057888599576,0.00016399143473223008
-0.49920374758075925,-0.49920374758075925,1.0001286241129093,0.00016635144500343156
-0.4989968344947556,-0.4989968344947556,0.999612450127142,0.0001623141722463188
-0.4985574372287374,-0.4985574372287374,1.0001412354440693,0.0001658055362107422
-0.49798866785422435,-0.49798866785422435,1.0000196085902995,0.00016373402963362416
-0.49762488724372816,-0.49762488724372816,1.0000142395204772,0.0001618404087249032
-0.4973021402314771,-0.4973021402314771,1.000014885453948,0.00016421009437087868
-0.4968015129561536,-0.4968015129561536,1.000178391272077,0.00016378358686264626
-0.4963259396899957,-0.4963259396899957,1.0001532213458593,0.00016345904497201498
-0.49604988994105953,-0.49604988994105953,0.9999099139610301,0.00016416787969722202
-0.49571273403125815,-0.49571273403125815,0.9999766504892923,0.00016060132681889672
-0.49512479394907133,-0.49512479394907133,0.9998041858272961,0.00016482111709740388
-0.49469652708794454,-0.49469652708794454,1.000088767673907,0.00016391199923268134
-0.49434740189608417,-0.49434740189608417,0.999812966441165,0.00016258610162895101
-0.4939001299178926,-0.4939001299178926,0.9999484394362229,0.00016537063456400694
-0.49343076526711227,-0.49343076526711227,0.9997973068501997,0.0001636176986335723
-0.4929331823062967,-0.4929331823062967,0.9999440974698593,0.00016024741396616465
-0.4924807529256213,-0.4924807529256213,0.9998853621045501,0.00016349988722738065
-0.4918389857310103,-0.4918389857310103,1.000042534616401,0.0001671827207211704
-0.49142099055461586,-0.49142099055461586,1.000095482073915,0.00016108303623143082
-0.49098565435851926,-0.49098565435851926,1.0000553328927715,0.00016411913210671896
-0.4905703584838193,-0.4905703584838193,0.999922495753553,0.0001631301782463271
-0.49000527151220014,-0.49000527151220014,1.000155684634116,0.0001612993283992335
-0.4894357584606041,-0.4894357584606041,1.000067197875949,0.0001657383873850642
-0.48885280137474185,-0.48885280137474185,1.0000972118250977,0.00016506716173774854
-0.4883818220609101,-0.4883818220609101,1.0000147796874708,0.00016559721528260047
-0.487813539506169,-0.487813539506169,0.9999218696214989,0.0001670845304176846
-0.48728738446661735,-0.48728738446661735,1.0000160930434174,0.00016205914342373937
-0.4865473280660808,-0.4865473280660808,1.0003600691276335,0.00016215620303101566
-0.48591957794706103,-0.48591957794706103,1.0000605759561838,0.00016415157879239847
-0.4853839047049405,-0.4853839047049405,0.9998659258253794,0.00016334737800795138
-0.4846842367114732,-0.4846842367114732,1.0000768684902452,0.00016164124596801187
-0.4841281267668819,-0.4841281267668819,0.9998074122003737,0.00016521779128457096
-0.48374678902036977,-0.48374678902036977,1.0001772184470616,0.00016207053968859912
-0.48296775615017395,-0.48296775615017395,0.9998575046936343,0.00016351831230422797
-0.4823576094117016,-0.4823576094117016,0.9998086586414804,0.0001630018024787411
-0.481730362874805,-0.481730362874805,1.0000609642940126,0.00016138679210584992
-0.4810267510998528,-0.4810267510998528,1.0001213278432526,0.0001673328888069239
-0.4806286932885996,-0.4806286932885996,1.0000500311242528,0.0001601661227153725
-0.4798992511612596,-0.4798992511612596,1.0000521506324354,0.00016342109869957837
-0.47928331123839596,-0.47928331123839596,0.9997992940623849,0.0001627900170055843
-0.47871785606839695,-0.47871785606839695,0.9998732745323518,0.00016115874544279848
-0.47791348170721903,-0.47791348170721903,1.0000814394901991,0.00016489159115192897
-0.4774379760521697,-0.4774379760521697,0.999938136278369,0.00016165036909014102
-0.4766765570180723,-0.4766765570180723,1.0001412814344117,0.00016416241664903806
-0.4760721568978624,-0.4760721568978624,0.9999393767727197,0.00016022640715547998
-0.4754933128890116,-0.4754933128890116,0.9999233037249156,0.00016321359229409032
-0.47463533248810563,-0.47463533248810563,1.0000025657975857,0.00016245438387093404
-0.4741592959064292,-0.4741592959064292,1.0000984957163697,0.00016163839762060915
-0.4732338209694717,-0.4732338209694717,1.0000646582270278,0.000163970786781945
-0.4728671465185471,-0.4728671465185471,1.0002495705431107,0.00016221814699549019
-0.472138617845485,-0.472138617845485,1.000245089174027,0.00016112371023942865
-0.47144035168166737,-0.47144035168166737,0.9999364811465181,0.00016667652656937742
-0.470844953431515,-0.470844953431515,1.0000796582851752,0.00015943705025203803
-0.4700455863436218,-0.4700455863436218,1.000004854738541,0.00016403835730972993
-0.4696839411102701,-0.4696839411102701,0.999972321102527,0.00016150556409946407
-0.468935438155313,-0.468935438155313,1.0000913616363523,0.00016320164496019907
-0.4683346659585368,-0.4683346659585368,1.0002092441442367,0.0001704209016348139
-0.4681120912224287,-0.4681120912224287,1.00018178993937,0.00015977619765236345
-0.46740247033012566,-0.46740247033012566,0.9999790581529375,0.0001593172866586523
-0.46676022206665946,-0.46676022206665946,1.0000317976896997,0.0001658213925496889
-0.46639411204960196,-0.46639411204960196,1.000347085687619,0.00017274830223710025
-0.46556956097483637,-0.46556956097483637,0.9998587109303069,0.00017676981619476804
-0.4650963770924136,-0.4650963770924136,1.0000940784735635,0.0001663670277370105
-0.46480203449027613,-0.46480203449027613,1.0001040765396074,0.00017130890172413956
-0.4640544921683613,-0.4640544921683613,1.0001387689288472,0.00018149638626158767
-0.46364171447057745,-0.46364171447057745,0.9997474667707194,0.00016918339762412
-0.46339208773279095,-0.46339208773279095,1.0002276351229358,0.00018600386509317322
-0.4630951800965704,-0.4630951800965704,1.0001207147706332,0.00016467155523813156
-0.4620825222140411,-0.4620825222140411,1.000179309390074,0.00017110655235064843
-0.4618308337201597,-0.4618308337201597,1.0001831930816152,0.00017584317232285064
-0.4614447216095868,-0.4614447216095868,1.0001236123768313,0.00017776990576813534
-0.4607616897206753,-0.4607616897206753,1.00018144679232,0.000164942929655074
-0.4603420878876932,-0.4603420878876932,0.9998959719744338,0.00018032441189578798
-0.46010376627818916,-0.46010376627818916,0.9999973273293644,0.00016307876681114175
-0.4595764277008129,-0.4595764277008129,0.9997160973257261,0.0001635269657052545
-0.4589653453178471,-0.4589653453178471,0.9997079850452145,0.00017576323042566765
-0.45876549280656037,-0.45876549280656037,1.0000715037428318,0.00016402288175249765
-0.4584034614235861,-0.4584034614235861,1.000071830316429,0.00016456217564860773
-0.45771620169107335,-0.45771620169107335,0.9998799573320258,0.0001838787468791757
-0.45723523653578013,-0.45723523653578013,1.000098625522718,0.00016283812957119
-0.45699873119592666,-0.45699873119592666,0.9997278368031646,0.0001655696862293867
-0.4565013467596145,-0.4565013467596145,1.0002589202537673,0.00017047707009949312
-0.4557981339385151,-0.4557981339385151,0.9999286505466637,0.00017292343827433128
-0.4555833558260929,-0.4555833558260929,0.9999874675621425,0.00016415882281213673
-0.4552832758112345,-0.4552832758112345,0.9998636480922546,0.00016252205141654177
-0.45458956926886457,-0.45458956926886457,0.9999797486347669,0.0001775210553192395
-0.45407462877628857,-0.45407462877628857,1.0001406334721357,0.00016387103117062774
-0.4538471189502161,-0.4538471189502161,0.9999419670681202,0.00016467989062880585
-0.4535101686604321,-0.4535101686604321,1.0003178035668587,0.00016859223349143313
-0.4527807251259219,-0.4527807251259219,1.0000477587804286,0.00016858759015155126
-0.45239823498995974,-0.45239823498995974,0.9998948442267374,0.00016492078154937956
-0.4521990096400259,-0.4521990096400259,0.9998716127518374,0.00016393273564354726
-0.4517137592600193,-0.4517137592600193,1.0000435613064673,0.00017758856036082256
-0.45106287411326773,-0.45106287411326773,1.0000725289987262,0.0001609978763214699
-0.4507506549765822,-0.4507506549765822,0.9999911131132289,0.0001634490696970513
-0.4506147207081085,-0.4506147207081085,1.0001141959868205,0.00016690293649769512
-0.4500416589260567,-0.4500416589260567,1.0000188323643746,0.00017478722728974733
-0.44942985139787195,-0.44942985139787195,0.999889320158441,0.0001602019526503569
-0.4491692134150071,-0.4491692134150071,0.9999823889782793,0.0001634566533993378
-0.4489049975149101,-0.4489049975149101,1.000169582868288,0.00016942238931208506
-0.4483675279945601,-0.4483675279945601,0.9998634647348499,0.00016720997983697312
-0.44776848336332475,-0.44776848336332475,1.0001145238076716,0.00016352300132729448
-0.4474675845209276,-0.4474675845209276,1.0000196556994712,0.00016853172316720388
-0.4471381736395415,-0.4471381736395415,0.9999313012915326,0.0001676547378664525
-0.4464130701584509,-0.4464130701584509,0.9997693151357889,0.0001593038505349334
-0.4460801738910959,-0.4460801738910959,0.9998965469627124,0.00016409818784594035
-0.44579312233545354,-0.44579312233545354,1.0000458059957196,0.00017207927768327173
-0.44539732817793265,-0.44539732817793265,1.0001166972651245,0.0001618646933715824
-0.4447008563030977,-0.4447008563030977,0.9999660305815123,0.0001614575014950829
-0.44435661883908323,-0.44435661883908323,0.999861185579493,0.0001673671451949745
-0.4441081286873668,-0.4441081286873668,1.0000483753270963,0.00016235251965781992
-0.44343742886558174,-0.44343742886558174,0.9999330872755212,0.00016453530315917953
-0.44301186602388043,-0.44301186602388043,1.0000087380515361,0.0001618183093973591
-0.4427462694497081,-0.4427462694497081,1.0002043631130764,0.0001756838019927848
-0.44248592634685335,-0.44248592634685335,0.9999845067498689,0.0001623425089048802
-0.4418361305637518,-0.4418361305637518,0.9999149629272761,0.00016565706313393505
-0.4413837817017338,-0.4413837817017338,0.9999028834879571,0.00016403889368198462
-0.4411194406624418,-0.4411194406624418,1.000172285997221,0.00016423596116045414
-0.44074182335461953,-0.44074182335461953,1.0001854616314365,0.00016164195808520375
-0.4401159765810007,-0.4401159765810007,1.000081447267322,0.00016231246421354124
-0.4397076565946918,-0.4397076565946918,0.9999917304036317,0.0001664442514023975
-0.439421532623237,-0.439421532623237,0.9996778545523572,0.00016166932814817722
-0.43887672170531006,-0.43887672170531006,1.0000106232375994,0.00016567732776071555
-0.4383637666935101,-0.4383637666935101,0.9998652950272552,0.00016425353249806246
-0.4380703261384042,-0.4380703261384042,0.9999242990692725,0.00016420139481204799
-0.4375872895907378,-0.4375872895907378,1.0001226149124673,0.0001643647548297031
-0.4370422483916627,-0.4370422483916627,1.000018164480919,0.0001613335209304369
-0.43668604757112917,-0.43668604757112917,1.0003759295039987,0.0001633261940388046
-0.4363386533324956,-0.4363386533324956,0.9999244548591877,0.00016287588879550138
-0.43581935904803687,-0.43581935904803687,1.0001476293675613,0.00016348538042197674
-0.4352814533369383,-0.4352814533369383,1.0000053946060528,0.00016132008922614756
-0.4348838094083476,-0.4348838094083476,0.9999876136874946,0.000162558218622635
-0.4344796537217917,-0.4344796537217917,0.999936897687481,0.00016688550850496478
-0.4340801714657573,-0.4340801714657573,1.0001788185001401,0.0001635825495293811
-0.43362257110129576,-0.43362257110129576,1.000337840607172,0.00015757108978460758
-0.43321026385237926,-0.43321026385237926,0.9999163607263271,0.00016506822695982015
-0.43282347755884987,-0.43282347755884987,1.0001279087256174,0.00016643736898842477
-0.43227617478114555,-0.43227617478114555,0.9996483263884043,0.00016542447273072767
-0.43184839526657015,-0.43184839526657015,0.9998183000228243,0.0001596128141139766
-0.4313291042926721,-0.4313291042926721,0.9998039147047766,0.0001642505516977579
-0.4306905237521278,-0.4306905237521278,1.0001898672625522,0.00016556305740217777
-0.43017932342772836,-0.43017932342772836,0.9998391745426373,0.00016201544860222094
-0.4295316687275772,-0.4295316687275772,1.0001949952276645,0.00016497520080345103
-0.4289740153180901,-0.4289740153180901,1.0000201134108704,0.00016049767565776382
-0.4283549047424458,-0.4283549047424458,0.9999398708334739,0.0001670791975364727
-0.42788723453413696,-0.42788723453413696,0.9999944913023342,0.00016448222175647617
-0.4273423424980137,-0.4273423424980137,0.9998779398471903,0.00016092208932027996
-0.4266562331758905,-0.4266562331758905,1.000064400603452,0.00016381441067763578
-0.4261014655581675,-0.4261014655581675,0.9999558658548316,0.00016529990518364588
-0.42540125532541423,-0.42540125532541423,1.0001195832097936,0.00015899798306950728
-0.42466460918367377,-0.42466460918367377,0.9997039498765842,0.00016516207570598836
-0.42417178277682976,-0.42417178277682976,0.9998825914185723,0.0001619814499571127
-0.42334703695669307,-0.42334703695669307,1.000212397007519,0.00016420829920139773
-0.42282461386348585,-0.42282461386348585,0.9998392760598185,0.00016062400526873255
-0.4219780688930769,-0.4219780688930769,0.9999538320300003,0.00016347869692575907
-0.4213638210756471,-0.4213638210756471,0.9999242705717256,0.00016283859379653782
-0.42078020749322603,-0.42078020749322603,1.0000286143662336,0.00016119045681596905
-0.4200035293091787,-0.4200035293091787,1.0000447256728298,0.00016496986810413136
-0.4195152826199774,-0.4195152826199774,0.9999906211904855,0.0001617234897842812
-0.4187530997791328,-0.4187530997791328,1.0002317406849797,0.0001642309189762214
-0.41816263934015296,-0.41816263934015296,0.9998967865740053,0.0001602350437277952
-0.4175447256362531,-0.4175447256362531,1.0000044093764926,0.00016328147312297028
-0.4167336274520494,-0.4167336274520494,0.9999401938642183,0.00016245252155145133
-0.41633517534355635,-0.41633517534355635,1.0000596841593423,0.00016313711369475337
-0.41547692080494014,-0.41547692080494014,0.9999932130103526,0.0001640289650165244
-0.41500079878023827,-0.41500079878023827,0.9999924190010867,0.0001622076435834438
-0.41433027185557875,-0.41433027185557875,0.9999093442052456,0.00016178238816230809
-0.4135674870107323,-0.4135674870107323,0.9999857664704084,0.0001641313865540265
-0.41305081540485844,-0.41305081540485844,0.9999028659501095,0.00016145472061669143
-0.41228286069817843,-0.41228286069817843,1.0002985905011852,0.00016181060604682573
-0.41179129120137076,-0.41179129120137076,0.9997141860119985,0.00016386217543886807
-0.41091999607742763,-0.41091999607742763,1.000178723633494,0.0001616852721838463
-0.41033239486569073,-0.41033239486569073,1.0001846087906003,0.00016437932278212786
-0.4098339932068484,-0.4098339932068484,0.9999973564830056,0.0001610507186231112
-0.40893595179950354,-0.40893595179950354,0.9994248434348257,0.00016422874973989738
-0.4086072910169605,-0.4086072910169605,1.000157256175798,0.0001616142053434909
-0.4077794257987989,-0.4077794257987989,1.000130949138783,0.00017431271027096377
-0.4072482416726416,-0.4072482416726416,0.9999650042183417,0.0001658930884170569
-0.40693626952415796,-0.40693626952415796,1.0000038753443776,0.0001729399854981003
-0.4061245487740962,-0.4061245487740962,1.0000232941210403,0.0001769654762880947
-0.40563269586418754,-0.40563269586418754,0.9998612632923015,0.0001641231061354289
-0.405357214101241,-0.405357214101241,0.9999227731105773,0.00017402820373974508
-0.4045840169710573,-0.4045840169710573,0.9999757786233042,0.00018215969136326472
-0.40408118746127003,-0.40408118746127003,1.0000504908008605,0.0001737183672568861
-0.40390011272684206,-0.40390011272684206,1.0000447775584782,0.00017571202200774834
-0.4033030687569408,-0.4033030687569408,0.9999627647580592,0.00017612110431987989
-0.40253121880523396,-0.40253121880523396,1.000022578223048,0.00017909313384041582
-0.4023169123363914,-0.4023169123363914,1.0001489017038074,0.00016473391371580123
-0.4019162996468367,-0.4019162996468367,0.9998884690818644,0.00017619695268472022
-0.4013895876327297,-0.4013895876327297,0.9999767285678892,0.00016491040499915776
-0.40089282117260155,-0.40089282117260155,0.9998399717639763,0.00017716258955830964
-0.40075640244176614,-0.40075640244176614,0.9999313930889719,0.00017363776411225866
-0.4003454319317825,-0.4003454319317825,1.0003003396037033,0.00016843265282029588
-0.39976155551266856,-0.39976155551266856,1.000213437732787,0.00018566879585632615
-0.399341348168673,-0.399341348168673,1.0000503935325495,0.00016358659091430885
-0.3991606471099658,-0.3991606471099658,0.9999726854399846,0.00016340167652526368
-0.3986952154926257,-0.3986952154926257,1.000110961761362,0.00017451989995664833
-0.3980376816572971,-0.3980376816572971,1.0000280646240878,0.00017335206704131896
-0.3977555983699858,-0.3977555983699858,0.999949155457673,0.00016412743731289826
-0.39752782524737995,-0.39752782524737995,1.0002281989297817,0.00016549156122269986
-0.3970644353685202,-0.3970644353685202,0.9998925830655242,0.00016974772210865698
-0.3963472240997362,-0.3963472240997362,0.9998771794543359,0.00017265270513838727
-0.39611538353783543,-0.39611538353783543,1.0001316331837078,0.00016148724439479364
-0.395827592376736,-0.395827592376736,1.00000862126304,0.0001647652038695548
-0.39526233585202136,-0.39526233585202136,0.9999391002690355,0.00017745123009111008
-0.39464658847427925,-0.39464658847427925,1.000006515726045,0.00016478939052022638
-0.3943809984368272,-0.3943809984368272,0.9999352034443938,0.0001652615560208327
-0.3940900242596399,-0.3940900242596399,1.0001815904725142,0.0001684034562799356
-0.39333720281720164,-0.39333720281720164,0.9999336038161386,0.00016828615314056007
-0.3929265316488454,-0.3929265316488454,0.9997650012415576,0.00016427243785455917
-0.3927455133292824,-0.3927455133292824,0.9999253629604258,0.00016450361516095015
-0.3922944623831427,-0.3922944623831427,1.0001324313710058,0.00018004173062893683
-0.391702873504255,-0.391702873504255,0.9998799189563282,0.0001603117666686332
-0.3913298683881294,-0.3913298683881294,0.9997796608206647,0.0001634183140083367
-0.3911160143907182,-0.3911160143907182,1.0000134364100615,0.00016979715678047019
-0.39055241933092477,-0.39055241933092477,0.9998864312696594,0.00016908845512819015
-0.3898868457152275,-0.3898868457152275,0.9999153260193623,0.0001624707260297672
-0.38964435788802804,-0.38964435788802804,1.0000040052074681,0.00016440721876028358
-0.38928703690180555,-0.38928703690180555,0.9998936224082835,0.00017284610953345803
-0.3887648571515456,-0.3887648571515456,0.9999682226164095,0.00016104040261593562
-0.3882658408940188,-0.3882658408940188,1.0000576393237346,0.00016341844402094588
-0.38800338325672784,-0.38800338325672784,1.000203512183451,0.00016820363532201918
-0.38768940246955025,-0.38768940246955025,1.0000248775639604,0.0001672944092637352
-0.386971561278915,-0.386971561278915,1.0001083180954424,0.00015924360869384014
-0.38661562284396495,-0.38661562284396495,1.0001722468484628,0.00016413311509113845
-0.38633827745215965,-0.38633827745215965,0.9999302026179144,0.00017155359169732608
-0.3859532854345161,-0.3859532854345161,0.9999932187789898,0.00016179718573665626
-0.38530591674207243,-0.38530591674207243,0.9997746134184302,0.00016503003607991261
-0.3849476556890295,-0.3849476556890295,1.0000247046862416,0.0001669153755490337
-0.38469292217923795,-0.38469292217923795,1.0000791821558601,0.0001624626613390639
-0.38416313075867947,-0.38416313075867947,1.000027976303515,0.00016620313150291248
-0.3836209510758636,-0.3836209510758636,0.9999546747611134,0.00015972285110746088
-0.3832980051025515,-0.3832980051025515,0.999967733132346,0.00016653861777204306
-0.3830310360848671,-0.3830310360848671,0.9998689007084423,0.0001623152728293306
-0.3824473957036389,-0.3824473957036389,1.0003443490043984,0.00016547096059757625
-0.3819947255891748,-0.3819947255891748,1.0000189149678813,0.00016212007250483715
-0.38170832798496124,-0.38170832798496124,0.999853648016814,0.00016418305411441869
-0.3814233807846904,-0.3814233807846904,0.9999409422807783,0.00016222736420882825
-0.38079708014556674,-0.38079708014556674,0.9997681136169863,0.00016585714908214452
-0.38036672200105387,-0.38036672200105387,1.0001576748963656,0.00016432870144067954
-0.3800816604896681,-0.3800816604896681,0.9997179852952855,0.00016360369145030195
