time,time,flux,flux_err
-0.49918282903793926,-0.49918282903793926,1.0004326237023131,0.0013334167423931255
-0.49720561822250603,-0.49720561822250603,1.0008236973337232,0.0012081701371256526
-0.49621316427401324,-0.49621316427401324,0.9980371442926506,0.0011924832480797597
-0.49471829813701335,-0.49471829813701335,0.9973694212741133,0.0011862539632319278
-0.493670573379859,-0.493670573379859,1.0009039700259674,0.0011939379866500984
-0.49272973473525783,-0.49272973473525783,1.0004046990080908,0.0011894879104141017
-0.49114558916699025,-0.49114558916699025,0.9977786139804617,0.0012232827458525147
-0.49019680146302563,-0.49019680146302563,1.0002737359630416,0.0012073248927210768
-0.4891621738064714,-0.4891621738064714,0.9987630840351439,0.0011907223210264302
-0.48747956894694655,-0.48747956894694655,0.9989602181096527,0.0012012035600863365
-0.48659984417317903,-0.48659984417317903,0.9996982875495728,0.0012013205564816787
-0.48583238914216054,-0.48583238914216054,1.0005179606630261,0.0011975311209570666
-0.4844793099826347,-0.4844793099826347,0.9980827753624892,0.0012251488800955443
-0.4834490544588334,-0.4834490544588334,1.0011533587759116,0.0012099351553234105
-0.4810862017013278,-0.4810862017013278,0.998297260115517,0.00120508251052235
-0.47985208077880087,-0.47985208077880087,0.9981385525987101,0.0011958479741435652
-0.47893295350513654,-0.47893295350513654,0.99768667959378,0.0012029303494137833
-0.4777486185023008,-0.4777486185023008,0.998215290030015,0.0012321047852673092
-0.47662041734038213,-0.47662041734038213,1.0000189344027486,0.0011881375367436466
-0.4753401277463126,-0.4753401277463126,0.9996070456509922,0.001185209977560405
-0.47364264348725554,-0.47364264348725554,0.9981942291266787,0.0011990645357284687
-0.4728667715917254,-0.4728667715917254,1.0011934031916567,0.0012110626115029825
-0.4714405238359177,-0.4714405238359177,0.9995144914281523,0.0012251198047492167
-0.4702349060378765,-0.4702349060378765,0.9992986164681718,0.001205106446214112
-0.46943812167992294,-0.46943812167992294,1.0002159216510669,0.001189854775469915
-0.4676434705510474,-0.4676434705510474,0.9979066981322555,0.0012184475928249505
-0.46671864340860336,-0.46671864340860336,0.9980853841293047,0.0011928047568245754
-0.4657745056418207,-0.4657745056418207,0.9983045066763466,0.0012194102528585232
-0.4642215494077391,-0.4642215494077391,0.9995365339001561,0.0012078182661755615
-0.4631670617342024,-0.4631670617342024,1.0010407558609147,0.0011942077591177397
-0.4607098403648706,-0.4607098403648706,0.9986008066033968,0.0012184745575042953
-0.459751843021877,-0.459751843021877,0.9998360664057232,0.0011929818739961876
-0.4586928794906271,-0.4586928794906271,0.9997983005391587,0.0011903428595005385
-0.4570785752199299,-0.4570785752199299,1.0015185122882493,0.0011987067503190813
-0.45611106086907965,-0.45611106086907965,0.9988657371576004,0.0011860812739139743
-0.45445074062008645,-0.45445074062008645,0.9990545430245735,0.0012155996411285456
-0.45321656040250674,-0.45321656040250674,1.0004030689973886,0.0011887348160931643
-0.45215467452726443,-0.45215467452726443,0.9980324758679805,0.0012114953283069805
-0.45107122330191485,-0.45107122330191485,1.000776607427189,0.0012085112355305512
-0.4499827772786375,-0.4499827772786375,0.9973154175867732,0.0011990824860713754
-0.44866485993952665,-0.44866485993952665,1.0007688629413976,0.00121122327441167
-0.4471382535473822,-0.4471382535473822,0.9999342195652542,0.0012170615574325465
-0.44644328336944455,-0.44644328336944455,0.9974671339175896,0.0012132649786327913
-0.4436499634583015,-0.4436499634583015,1.000283296614389,0.0012038174001572075
-0.442744525600574,-0.442744525600574,0.9990472349151075,0.0011912061779028244
-0.4408675751856208,-0.4408675751856208,0.9987227923691714,0.0012346378361914462
-0.4397504309472424,-0.4397504309472424,0.9983250400095894,0.0011894385511873424
-0.4382448697775544,-0.4382448697775544,0.9965673416511136,0.0011836901205645573
-0.437000805478965,-0.437000805478965,0.9997623986080864,0.0011941102746454806
-0.436060249710863,-0.436060249710863,1.0001622901619391,0.0011901382046715318
-0.4346344594621769,-0.4346344594621769,1.0002214157116385,0.0012207680029267848
-0.4336613636533002,-0.4336613636533002,0.9997975917779984,0.0012062091067658876
-0.43302018167560163,-0.43302018167560163,0.9964381940031896,0.0011931363570219428
-0.43165668076399016,-0.43165668076399016,0.9995760524841686,0.0012042270060068894
-0.4301615267209854,-0.4301615267209854,0.9979765455632865,0.0011957407470148498
-0.42961423112101327,-0.42961423112101327,0.9992555773345828,0.001195340147167626
-0.4283193353556271,-0.4283193353556271,0.999704031811819,0.0012096691819235077
-0.42707813710658227,-0.42707813710658227,0.9990934102233512,0.0012203190204389787
-0.4255983352260955,-0.4255983352260955,0.9978179743817813,0.0012109766465696124
-0.42350292482769875,-0.42350292482769875,0.9992929526028573,0.001193749948534857
-0.42261429844293164,-0.42261429844293164,0.9981957993877758,0.0011932857647751172
-0.4213427006230631,-0.4213427006230631,0.9942260166119447,0.00122562812300087
-0.420252695270392,-0.420252695270392,1.000424360225016,0.0012067414828126513
-0.4191282337920711,-0.4191282337920711,0.9976054706701418,0.0011826196457928964
-0.4171380111751205,-0.4171380111751205,0.9992026813000651,0.0012000433868507633
-0.41639463716746833,-0.41639463716746833,0.9974974027324922,0.0012116676965174657
-0.41525764909129065,-0.41525764909129065,1.0006508942709424,0.0012136500286782032
-0.4139167542773066,-0.4139167542773066,0.999724724184456,0.001220354601352893
-0.4131444486316468,-0.4131444486316468,0.9993983022635737,0.001191619533953745
-0.4117788824481977,-0.4117788824481977,0.9995564289256839,0.0012163757058350126
-0.41028530836665594,-0.41028530836665594,1.0006172847203785,0.0011967193434251158
-0.4095950595528848,-0.4095950595528848,0.9977972898472309,0.0012101842588123715
-0.40810077873975387,-0.40810077873975387,0.9972386324521597,0.0012070636720154615
-0.4069019993399706,-0.4069019993399706,0.9990684098750275,0.0011994664237977625
-0.4053502400260186,-0.4053502400260186,0.9981547000342623,0.0012131772141718389
-0.40339733237415204,-0.40339733237415204,0.9989061171878305,0.0011922084542513398
-0.4026021908870462,-0.4026021908870462,1.0000942512942401,0.0011870327900133373
-0.4008984873911686,-0.4008984873911686,0.9991898767671369,0.0012028797174216447
-0.40001680346831564,-0.40001680346831564,1.0003225937763554,0.0011919775551784187
-0.39884098221955355,-0.39884098221955355,0.999037873721971,0.0012017935628146979
-0.3972018867923907,-0.3972018867923907,1.0007535373192207,0.0011985050742461243
-0.3961684925488953,-0.3961684925488953,0.99919844899054,0.0011845291821315426
-0.39484719277679686,-0.39484719277679686,1.0002716144701214,0.001232824737623473
-0.39344197113314294,-0.39344197113314294,0.9979075573551018,0.0011967239192715085
-0.39236707688469324,-0.39236707688469324,1.0002364664583243,0.0011915655458330729
-0.3906901096524962,-0.3906901096524962,1.0007304109994588,0.001241516960826796
-0.3899414816420176,-0.3899414816420176,0.9966096748363034,0.0012049606009361439
-0.38730246967315907,-0.38730246967315907,1.0001789905536116,0.001211300257493444
-0.3862411259793589,-0.3862411259793589,0.9983391209517529,0.001191377848557624
-0.3846462721357966,-0.3846462721357966,1.000131131138,0.0012330873280877854
-0.38328767876118947,-0.38328767876118947,1.0003763620158863,0.0011868045232037196
-0.3819378275344206,-0.3819378275344206,0.9995239052483772,0.001184864397382471
-0.3804035247725551,-0.3804035247725551,1.0000876640050542,0.0012024201998443646
-0.37959907151671357,-0.37959907151671357,0.9983988350913316,0.0011878096996106337
-0.37830225819525365,-0.37830225819525365,0.9991836883769988,0.001222300148520931
-0.3771115072624525,-0.3771115072624525,0.9985780727324174,0.0012087366758462173
-0.37640143707976675,-0.37640143707976675,0.9982541690030107,0.0011901710605177484
-0.37544117916186226,-0.37544117916186226,0.9994025623685865,0.0012012636222096845
-0.3736112295406201,-0.3736112295406201,0.9989427911259853,0.001192289509403326
-0.37304029635852204,-0.37304029635852204,1.0007261398054799,0.0011938667041532026
-0.3720954655233072,-0.3720954655233072,0.9976498507239311,0.0012088471803295797
-0.37083267857451574,-0.37083267857451574,0.9986579666415633,0.001229120929858823
-0.3700468569077202,-0.3700468569077202,0.9985876666686021,0.001186402995796892
-0.3678656166979636,-0.3678656166979636,0.9981921121999617,0.0012099766827244251
-0.36669633480050834,-0.36669633480050834,0.9981523056295181,0.0011943304027692801
-0.36572927241613795,-0.36572927241613795,1.0001185335755736,0.0011980095308250537
-0.36434136123207284,-0.36434136123207284,0.9950790030510831,0.0012366419682466278
-0.3632413094128424,-0.3632413094128424,0.9987239265617355,0.001184879360848314
-0.36156636426349,-0.36156636426349,0.9990127270268214,0.001190632478128565
-0.3601350505457958,-0.3601350505457958,0.9986238512203018,0.0012233606319480826
-0.35934014520098573,-0.35934014520098573,0.9998341277513036,0.0011869046092480057
-0.358030274367411,-0.358030274367411,0.9997894141101652,0.0012268709229295135
-0.35701428369902716,-0.35701428369902716,0.9997278572870142,0.0012084079094389572
-0.3563354130506923,-0.3563354130506923,0.999436309249554,0.0011876074363369325
-0.35466685400388087,-0.35466685400388087,0.9996576387056347,0.0012192986384087776
-0.35349880641006165,-0.35349880641006165,1.0002547816680611,0.0011929157549553683
-0.3526772962610266,-0.3526772962610266,0.9985203484513981,0.0012117337879801794
-0.3511878080011229,-0.3511878080011229,0.998814179003077,0.0012154878219080589
-0.35003346912781125,-0.35003346912781125,0.9984933927939881,0.00119106290991525
-0.3480224140574137,-0.3480224140574137,0.999378956483349,0.0012020193739261807
-0.3464127676357748,-0.3464127676357748,0.9996603615797592,0.0011927755601653547
-0.345353393241021,-0.345353393241021,1.0010271820432646,0.001191086767428962
-0.34373936804913685,-0.34373936804913685,0.9993330237751049,0.0011982024891971199
-0.34277207334089327,-0.34277207334089327,0.9992907540761495,0.0011860327432169943
-0.3411115548795351,-0.3411115548795351,1.0005414747364085,0.0012156002529837217
-0.3398775366938935,-0.3398775366938935,0.9986882959708654,0.0011890939539110465
-0.33881466569109764,-0.33881466569109764,1.0005124714281721,0.0012114755633827073
-0.3372185761745641,-0.3372185761745641,0.9978831639700185,0.001221340181508538
-0.33649247289795314,-0.33649247289795314,0.9992546239113104,0.0011910466867570582
-0.33496688642771916,-0.33496688642771916,0.999209404140325,0.0012224561892882546
-0.33361156541759557,-0.33361156541759557,1.0006178166188462,0.0012137405765487992
-0.3321208988709259,-0.3321208988709259,0.9973766448904607,0.001211827060385614
-0.3298945929698675,-0.3298945929698675,1.0004128170347506,0.001190756840410203
-0.32835973895998904,-0.32835973895998904,0.9995676760028219,0.0012207965277964122
-0.32696442191918323,-0.32696442191918323,0.9990205944237509,0.0012154814864441875
-0.326035695623068,-0.326035695623068,0.9996440000524706,0.0011816140637744077
-0.3240993674178753,-0.3240993674178753,0.9976047491574771,0.0011967016021561029
-0.3231490477028274,-0.3231490477028274,0.9996388729108052,0.001185755609242251
-0.32185545330503373,-0.32185545330503373,0.9995653558753694,0.0012128363691475007
-0.32067145047694795,-0.32067145047694795,0.9983253248359416,0.001219941341521171
-0.31985474843932027,-0.31985474843932027,0.9981451750162792,0.0011966211968935533
-0.3190244499939581,-0.3190244499939581,1.0011801860946061,0.001180167844943595
-0.3172011309547088,-0.3172011309547088,0.9983258747414434,0.00121244888686627
-0.31645598846334905,-0.31645598846334905,1.0013700493761806,0.0011874049572478573
-0.3156268979477318,-0.3156268979477318,0.9990340283018598,0.0011957520781839448
-0.3144701926346897,-0.3144701926346897,0.997967739321911,0.0012232696532936173
-0.31349204727084723,-0.31349204727084723,1.0010865281787578,0.0012262949072526473
-0.31223317155236147,-0.31223317155236147,0.9985902739423945,0.0011985645191877356
-0.31016386828923714,-0.31016386828923714,0.9989770319541964,0.0011927224737126006
-0.30916780142397327,-0.30916780142397327,0.9981929347129335,0.00121130305687748
-0.3073698103933566,-0.3073698103933566,0.9976092938292727,0.001208591696148334
-0.3065271086350549,-0.3065271086350549,1.0004123346275036,0.0011941565652988629
-0.3048987916205078,-0.3048987916205078,0.9972029389447977,0.0011915882930923001
-0.30363386844910567,-0.30363386844910567,0.9988314399375288,0.00119895363364504
-0.30267067233580747,-0.30267067233580747,1.0006357351710444,0.001186441119989458
-0.3014964262736612,-0.3014964262736612,0.9995421350745683,0.001226673906828601
-0.30052688906107505,-0.30052688906107505,1.000301080928618,0.0012312688549455165
-0.2998104785092437,-0.2998104785092437,1.0017063050032962,0.0011941848174266407
-0.29878120282191956,-0.29878120282191956,1.000194579795691,0.0012060921985857758
-0.2971446186420508,-0.2971446186420508,1.000129107644939,0.001207678914010492
-0.29641054170642744,-0.29641054170642744,0.9990176010956923,0.0012099446776736738
-0.2954653506702016,-0.2954653506702016,0.9988430304967804,0.001194306892725644
-0.293956738275665,-0.293956738275665,1.000711745118295,0.0012031913534001502
-0.2930472705858847,-0.2930472705858847,0.9984144766867094,0.0011971594979813768
-0.29023131428657506,-0.29023131428657506,0.9986801716281848,0.0012098081166856283
-0.2894253490070696,-0.2894253490070696,0.9992797695621517,0.001185852141518296
-0.28796772149871686,-0.28796772149871686,0.9997017060595272,0.0011941688193204973
-0.28669273477535173,-0.28669273477535173,0.9995911891700058,0.0011906330037506328
-0.2855018214049778,-0.2855018214049778,1.0004755651404498,0.001201723396453146
-0.2839827079875249,-0.2839827079875249,0.9996200180429522,0.001206355914466741
-0.2830575245698128,-0.2830575245698128,1.000104100111582,0.0011826762439565745
-0.28185161763613,-0.28185161763613,0.9999008073852969,0.001232919850792549
-0.2802867324415274,-0.2802867324415274,0.9996332456879358,0.0012063741888452611
-0.2796070096163021,-0.2796070096163021,0.999875983248959,0.0011867275553049
-0.27774881082368663,-0.27774881082368663,1.0001390442553268,0.0012228338574825101
-0.2767774592826754,-0.2767774592826754,1.0007675757138066,0.001202611451546555
-0.2741873364586354,-0.2741873364586354,0.9990336867208376,0.0012093201607998928
-0.2728571080166148,-0.2728571080166148,0.9999781047798153,0.001179790845247845
-0.27085799757333007,-0.27085799757333007,1.0003975552520823,0.0012360738193002388
-0.26974198514435554,-0.26974198514435554,1.000186028617673,0.0011898406482825847
-0.2682357188365131,-0.2682357188365131,1.0011224500210507,0.0011833017355575512
-0.2668062836390163,-0.2668062836390163,0.9989966968161499,0.001204623234995075
-0.2657975238344079,-0.2657975238344079,1.0003847388656575,0.0011829886578184246
-0.26437779464140476,-0.26437779464140476,0.9992780001325782,0.001224021068610511
-0.2635191617195233,-0.2635191617195233,0.9976582115366606,0.0012059854152410801
-0.26272445092254204,-0.26272445092254204,0.9989243471773397,0.0011883661776925152
-0.26102445458600415,-0.26102445458600415,1.000971562817689,0.0012150038953010445
-0.2600301069211127,-0.2600301069211127,0.9987227245789596,0.0011941932625588235
-0.2593886157421366,-0.2593886157421366,1.0022702019194103,0.0011947182172990923
-0.2582877984688821,-0.2582877984688821,1.000590400184333,0.0012113906862104315
-0.25704546005508744,-0.25704546005508744,0.9979761929107814,0.0012304395682205043
-0.2555636733020947,-0.2555636733020947,1.0001570030985647,0.001200009874736789
-0.25351302356721134,-0.25351302356721134,0.9992352420408182,0.0011917005007677966
-0.2528034006030794,-0.2528034006030794,0.9996563474029925,0.001183672330970157
-0.2510010386657086,-0.2510010386657086,1.0005762201945836,0.001235741002403657
-0.24997519898242898,-0.24997519898242898,0.9997210766018221,0.0012003554399523425
-0.2486614141074824,-0.2486614141074824,1.0000382513648691,0.0011855333508196298
-0.24696427854105424,-0.24696427854105424,0.9985719620794671,0.0011979159184211789
-0.24600119977694704,-0.24600119977694704,1.0000498755047447,0.001186530353675808
-0.2447048277965223,-0.2447048277965223,0.9997321553892693,0.0012123507414425676
-0.24355556994923971,-0.24355556994923971,1.0018922385304825,0.001205242327342693
-0.24278438499932237,-0.24278438499932237,0.9988828107958817,0.0012058150289940947
-0.24135449815512403,-0.24135449815512403,1.0001554503859293,0.0012224304288505222
-0.24027654640194668,-0.24027654640194668,1.0005481802846974,0.001197821540103864
-0.23959551763837225,-0.23959551763837225,0.9996059963033682,0.001202797997939997
-0.23865937674090673,-0.23865937674090673,1.000740220546814,0.0011961241187240994
-0.23728690121170076,-0.23728690121170076,1.0018369852682638,0.0012030391084944549
-0.2363780056599353,-0.2363780056599353,0.9984184255349519,0.0011959078523377568
-0.23395648922123655,-0.23395648922123655,1.0027836996353778,0.001227861346468376
-0.23291684656323924,-0.23291684656323924,1.0009248795615913,0.0011911534654076021
-0.2318224998882215,-0.2318224998882215,1.0014271437840456,0.0011943398347681027
-0.23040016209160968,-0.23040016209160968,1.000276213339267,0.0011971927594673303
-0.22954885726248903,-0.22954885726248903,0.998935953514818,0.0011926244068372045
-0.2281589038335369,-0.2281589038335369,1.0011343380885485,0.0012017543997212264
-0.22671744051222048,-0.22671744051222048,1.0009210790140983,0.001206922227651542
-0.225720093583368,-0.225720093583368,0.9997079755191784,0.0012053556429301852
-0.2241785590762447,-0.2241785590762447,0.9996143440709598,0.0012162226302420078
-0.22327596549257578,-0.22327596549257578,1.0025483511239444,0.0011947752792435492
-0.22229097640265535,-0.22229097640265535,0.9990509407128936,0.001194670907348759
-0.22067980835490744,-0.22067980835490744,0.9999714539968068,0.001243823672333903
-0.2194209806202707,-0.2194209806202707,0.9992094732832932,0.0012017260898907652
-0.2167389175217977,-0.2167389175217977,1.0009432059576662,0.0011907395068577313
-0.21543701925365893,-0.21543701925365893,1.0003136242995607,0.0012111856141000543
-0.2136885488351254,-0.2136885488351254,1.0012867435992072,0.0012241303956602504
-0.21286561405504473,-0.21286561405504473,1.0010254823824074,0.0011915244368822348
-0.21075931115628918,-0.21075931115628918,1.0014919631823473,0.0011975918082847603
-0.20981060859630815,-0.20981060859630815,0.9998037838242746,0.0011860078159229616
-0.2085156739947706,-0.2085156739947706,1.000416057959106,0.0012131450410365154
-0.20733250718076307,-0.20733250718076307,1.0015813759551682,0.0012191519987696958
-0.20651595638373693,-0.20651595638373693,1.00015928791104,0.0011973742252784354
-0.20548045843934232,-0.20548045843934232,0.9996691706341643,0.0011914890876469097
-0.2038615139808826,-0.2038615139808826,1.001066563929979,0.0012121173369581343
-0.2031169110992778,-0.2031169110992778,0.9993392426874737,0.0011879812519974288
-0.2022876717757754,-0.2022876717757754,1.0017174888037972,0.0011956343765499944
-0.2008229323921114,-0.2008229323921114,1.0007473882175049,0.0012287548451538738
-0.1999066886564833,-0.1999066886564833,0.998514188080011,0.001205134378530831
-0.19754553939383185,-0.19754553939383185,1.0009935930086642,0.0012013356600632272
-0.19646196797948506,-0.19646196797948506,1.0002208462503606,0.0011914559127223564
-0.1951266643416602,-0.1951266643416602,1.0029433299690182,0.001220788533080452
-0.19357410505654116,-0.19357410505654116,0.9995097240322645,0.0012045722868510046
-0.1924499389184348,-0.1924499389184348,1.0008491136525248,0.001179308799108461
-0.19037417881409055,-0.19037417881409055,1.0012953940634888,0.0011944887400466158
-0.18933172766992357,-0.18933172766992357,1.0001929037691484,0.0011861926961975406
-0.18849395506331348,-0.18849395506331348,1.000747462293945,0.001227952470257944
-0.18722309352342564,-0.18722309352342564,1.0020639770491677,0.0011983815356903086
