time,time,flux,flux_err
-0.49993217838637066,-0.49993217838637066,0.9999155165683706,0.00015920171723047682
-0.49971447823336346,-0.49971447823336346,1.0000306483395542,0.00015702731578343904
-0.4994569501861406,-0.4994569501861406,1.000000275052946,0.0001552714309748802
-0.49923179648976657,-0.49923179648976657,1.0002713595852246,0.00015417019742402775
-0.4990399155969499,-0.4990399155969499,1.0001893043669532,0.00015213217118261753
-0.4988965083648509,-0.4988965083648509,0.9999069864076603,0.00016108493446273525
-0.49862681873710246,-0.49862681873710246,0.9997710586940055,0.0001593471516992232
-0.4984201120918442,-0.4984201120918442,0.9999095696621975,0.00015594466971458523
-0.49829828802976406,-0.49829828802976406,0.9999803154725637,0.00015153519405981388
-0.49809912164273557,-0.49809912164273557,0.9998166579113106,0.0001559145170713714
-0.49782521624001674,-0.49782521624001674,0.9999176556899106,0.00015513498709431066
-0.49766500468322195,-0.49766500468322195,1.0000207043758524,0.00015694814179813727
-0.4975041328725638,-0.4975041328725638,1.0001739716262597,0.00014956569190333247
-0.4973427523611463,-0.4973427523611463,1.0000350924805812,0.0001607591765245683
-0.4970778070150118,-0.4970778070150118,1.000120339715941,0.0001538089937845699
-0.4968376867887855,-0.4968376867887855,1.000012993380994,0.00015192031927993308
-0.4966067083092639,-0.4966067083092639,0.9999887090835585,0.00016044814782382178
-0.49645070275873876,-0.49645070275873876,0.9999091249774796,0.00015873086750099502
-0.49620265376070166,-0.49620265376070166,0.9999627128628463,0.00015027835809951272
-0.4959573419466324,-0.4959573419466324,1.000001443216975,0.00016341434829466288
-0.49574772054038474,-0.49574772054038474,0.9999265386238131,0.00015059716076103478
-0.4955895934828732,-0.4955895934828732,0.9997560526814724,0.00015308165694244855
-0.49548843890661376,-0.49548843890661376,0.9999308451243787,0.00015377716193532047
-0.4953691117778362,-0.4953691117778362,0.9999523228339517,0.000155953836051354
-0.49520768200818566,-0.49520768200818566,0.999878052544599,0.00015626211082788274
-0.4949926154782588,-0.4949926154782588,0.9997675755989797,0.00016348404258526686
-0.4948585978301708,-0.4948585978301708,1.0001046243186482,0.0001512771398799952
-0.49455308640244766,-0.49455308640244766,0.9999967189495788,0.000151167767716875
-0.4943386905477382,-0.4943386905477382,0.9997704488107629,0.0001579120943046627
-0.49421707574729223,-0.49421707574729223,1.0000994729211765,0.00015369748866256243
-0.4940532214845007,-0.4940532214845007,0.9998280319742712,0.00016136413619045556
-0.4938891129895637,-0.4938891129895637,1.000048577252286,0.00015633201662523317
-0.4936753773785313,-0.4936753773785313,0.9997797201876173,0.0001604323065713085
-0.49339681825294973,-0.49339681825294973,0.9997358229339455,0.00015653626377296065
-0.49316745690157404,-0.49316745690157404,1.0000523166707693,0.00015113589765588766
-0.4928703000921814,-0.4928703000921814,1.0001165794079276,0.00015759391836265392
-0.4926627148619446,-0.4926627148619446,0.9998726175530057,0.00015306042807999965
-0.49253469870018307,-0.49253469870018307,1.000201593231952,0.00016060870706379853
-0.4923584195224976,-0.4923584195224976,1.0001533487882486,0.00016281297473584035
-0.49215615340144725,-0.49215615340144725,0.9999035622855266,0.0001585889226385692
-0.49197836411185564,-0.49197836411185564,0.9997720146616567,0.0001575543512527742
-0.49179356342938263,-0.49179356342938263,1.0000511078459906,0.00015788783310091212
-0.49158118870836914,-0.49158118870836914,0.9999194961957313,0.00014698855244986076
-0.4914271823290619,-0.4914271823290619,1.0001790467700036,0.00016305417495348257
-0.4912666572185117,-0.4912666572185117,1.0001677466242782,0.00015640343372892867
-0.4911523527742247,-0.4911523527742247,0.9999504029741987,0.00015041371711412824
-0.49095824065298077,-0.49095824065298077,1.0000326637083798,0.00017468390875154265
-0.49067418760168946,-0.49067418760168946,1.0000879476211393,0.00015329179670926188
-0.4904190844979894,-0.4904190844979894,1.0002354195226362,0.00015668707617236033
-0.49018079325906,-0.49018079325906,1.0000013017330807,0.0001598679182832216
-0.4900235852524929,-0.4900235852524929,0.9998663132262857,0.00016288102976204805
-0.48984901513613294,-0.48984901513613294,1.0000763028366486,0.00015988492248333752
-0.4896560978071648,-0.4896560978071648,0.9998751410364223,0.00015520429410833574
-0.489508249622304,-0.489508249622304,1.0000011478894506,0.00015932296346654842
-0.48940275166387437,-0.48940275166387437,1.0001281418237573,0.0001498105134402318
-0.4892149100043753,-0.4892149100043753,1.0000911808856177,0.00015968602772748294
-0.4891008963539207,-0.4891008963539207,1.000180025882967,0.0001601991250826956
-0.4889968890871387,-0.4889968890871387,0.9998693764033707,0.0001540081410717811
-0.4889008828678925,-0.4889008828678925,0.9997090598903615,0.0001482408905283116
-0.48867076983078733,-0.48867076983078733,0.999993680231201,0.0001633513821924102
-0.48833772295838573,-0.48833772295838573,0.9999064490459579,0.00016028003209121763
-0.4879726065089926,-0.4879726065089926,1.0001402068090637,0.00015720830259623487
-0.48779553502463385,-0.48779553502463385,0.999946692872345,0.00014872459757531059
-0.48768267812629346,-0.48768267812629346,1.0000738337470956,0.00015922655128787947
-0.48748066580301386,-0.48748066580301386,0.999743933590618,0.00015985758181131469
-0.4871995485635125,-0.4871995485635125,0.9999056927871977,0.00015529159662706102
-0.48698713811027117,-0.48698713811027117,1.0000111819868203,0.00015417264956197154
-0.48678382183788926,-0.48678382183788926,1.00000748763645,0.00015465364587566928
-0.48664370487676933,-0.48664370487676933,1.0001068075393884,0.00016234554446524203
-0.4863846472915611,-0.4863846472915611,0.9996579495202894,0.00016295552903875286
-0.4861737331040786,-0.4861737331040786,1.0001644938230208,0.00015321927150154814
-0.4860256611515069,-0.4860256611515069,0.9996445670012861,0.00015661385758844213
-0.48569622273353164,-0.48569622273353164,1.0000158169489841,0.00015668614319612942
-0.4855151445248339,-0.4855151445248339,0.9997893810591402,0.00015275706367447233
-0.48537289554005836,-0.48537289554005836,1.000274687881155,0.00015998388893522327
-0.4851653024845291,-0.4851653024845291,1.0000732584942775,0.00015743568776557817
-0.4848600466044445,-0.4848600466044445,1.0002422783218037,0.00015379705443311118
-0.48468730889217115,-0.48468730889217115,0.9999555862577469,0.0001480253145312095
-0.4845154463444487,-0.4845154463444487,1.000061000095623,0.00015916527783397443
-0.48430372465227267,-0.48430372465227267,0.9999167643056017,0.0001544547272195039
-0.4841382671511383,-0.4841382671511383,1.0001637824073197,0.00016339284892019054
-0.4838983558845939,-0.4838983558845939,1.0000044780897306,0.00015849887673038949
-0.48367368382459974,-0.48367368382459974,0.9999425468727676,0.000156499349444052
-0.48344956136861583,-0.48344956136861583,0.9998340132681658,0.00015913087646040854
-0.4833000516831817,-0.4833000516831817,0.9999060724531231,0.00015361504548545485
-0.48319931038859065,-0.48319931038859065,0.9997493553860435,0.00015964118778311753
-0.48301654697497726,-0.48301654697497726,1.0000137015444879,0.00015062500083093416
-0.4828453641035594,-0.4828453641035594,1.000055937386832,0.00016033281257112511
-0.482681009730004,-0.482681009730004,1.0001087018158699,0.00015709930801666885
-0.4823722615081351,-0.4823722615081351,1.0000202982149102,0.00015332320122694415
-0.48211869612787267,-0.48211869612787267,1.000062455301116,0.0001559521210416703
-0.4819820789969526,-0.4819820789969526,1.0000501581481658,0.00015150517511876863
-0.4817744775267784,-0.4817744775267784,1.0000769062586943,0.00015225243150819196
-0.481621737738169,-0.481621737738169,0.9999945640958459,0.00016005362127633271
-0.4813712201503222,-0.4813712201503222,0.9998635254792527,0.00016036954174422337
-0.48108720732925575,-0.48108720732925575,1.0000623424643862,0.0001553555335712603
-0.48079701597816893,-0.48079701597816893,1.000325723976426,0.00015629650588879735
-0.48054853292996996,-0.48054853292996996,0.9999209687814707,0.00015177867863430179
-0.48034090288856535,-0.48034090288856535,0.9999048371810115,0.00015666286344720651
-0.4802185648579325,-0.4802185648579325,0.9998032392842383,0.00015921142514496364
-0.4800380857777782,-0.4800380857777782,1.0001445730872287,0.00016258242671180877
-0.4798402588065073,-0.4798402588065073,1.000357258766566,0.00015722734238317782
-0.47964553232814067,-0.47964553232814067,1.0000691004066324,0.0001570841642944533
-0.47942510117500203,-0.47942510117500203,1.0002085299940602,0.00015503414335564118
-0.4792350035699201,-0.4792350035699201,1.0003885831416384,0.00015912827593079148
-0.47905870753820634,-0.47905870753820634,1.0000320506988463,0.00015522961375379112
-0.4789405933195667,-0.4789405933195667,0.9999761979252441,0.000155235953396845
-0.47878910297731636,-0.47878910297731636,1.000289196352068,0.00017818336388284806
-0.4785120253931382,-0.4785120253931382,1.0000259089398615,0.000151429881451189
-0.47830509831765083,-0.47830509831765083,1.0002755984427079,0.00015643959661467801
-0.4780649925502075,-0.4780649925502075,1.000041694110142,0.00015604162701311595
-0.4779013677871262,-0.4779013677871262,1.000104540503184,0.00016350172933602645
-0.4777619222884823,-0.4777619222884823,0.9999006275721124,0.00016283658897832162
-0.47763178504974346,-0.47763178504974346,0.9998894051197121,0.0001561085281169949
-0.477453879416862,-0.477453879416862,1.0000527715969016,0.0001588776380206615
-0.4772846835963719,-0.4772846835963719,1.000066321529498,0.00015694316664740274
-0.477168316328607,-0.477168316328607,0.9998649939969597,0.00014968057638960983
-0.4769696296316397,-0.4769696296316397,0.9998614111842888,0.0001585878920158096
-0.476852863462409,-0.476852863462409,1.0002001376208551,0.00016154177285187388
-0.4767395130103978,-0.4767395130103978,0.9998344257894474,0.0001539358096483919
-0.47658036771899787,-0.47658036771899787,0.9999653036287572,0.00015703159860001897
-0.4763434164407954,-0.4763434164407954,0.9998889324008214,0.00015978082580561903
-0.47610109489905883,-0.47610109489905883,1.0001011659576915,0.00015420716555945968
-0.4757696095854044,-0.4757696095854044,0.9998194424011476,0.0001539523706776045
-0.47555229006466104,-0.47555229006466104,0.9999089959233833,0.00015480819933547815
-0.4754342829823145,-0.4754342829823145,1.0000269985381558,0.00015915136114342564
-0.4752472227315593,-0.4752472227315593,1.000143249883907,0.0001511217386628817
-0.47496933892616655,-0.47496933892616655,0.9999581596968856,0.00015176369041297334
-0.47474168521075627,-0.47474168521075627,0.9999422714905783,0.0001579751114849467
-0.47455566526623444,-0.47455566526623444,0.9999068690294,0.0001519516710797053
-0.47445591526920905,-0.47445591526920905,0.9999232647367539,0.00015695189635234837
-0.47432181718832,-0.47432181718832,1.0002261415072766,0.0001595167026199314
-0.47405793782891126,-0.47405793782891126,0.9997244379288197,0.00016020649616912494
-0.4738465779009857,-0.4738465779009857,1.0000540541271856,0.0001561797494273402
-0.4735899761370092,-0.4735899761370092,0.9998674865267155,0.00015498771342788262
-0.4732767792120285,-0.4732767792120285,1.0001532868348892,0.00015321580320626314
-0.4731183011965186,-0.4731183011965186,1.000030420534614,0.00015947681431010836
-0.47293164221919143,-0.47293164221919143,0.9999470565861739,0.00015805586454134698
-0.47266007708240065,-0.47266007708240065,0.9998860932447323,0.0001557393169895587
-0.47246765029340165,-0.47246765029340165,0.9998483341256262,0.0001478577781480351
-0.47233952205497187,-0.47233952205497187,1.0000705533736083,0.00015193518052511454
-0.4721388244899572,-0.4721388244899572,0.9999549302108433,0.00016292908736285444
-0.4719990403362317,-0.4719990403362317,0.9999419690815458,0.00015260429106273758
-0.47182851965844747,-0.47182851965844747,1.00033395786262,0.00016320453551561424
-0.4715835143077129,-0.4715835143077129,1.0001781798563625,0.0001516308812022072
-0.47137293936975766,-0.47137293936975766,0.9999588013559528,0.0001588292929630614
-0.4711652346151823,-0.4711652346151823,1.000142089572361,0.00015938107269830733
-0.4710343407547043,-0.4710343407547043,0.9998067650308128,0.0001507237195025048
-0.4709359422726266,-0.4709359422726266,1.0000517168206122,0.00015389982474082884
-0.47074476092020634,-0.47074476092020634,0.9997963981012916,0.00014869217218000367
-0.47064690255210734,-0.47064690255210734,1.0001722572503173,0.00015595464471314103
-0.4704725563809916,-0.4704725563809916,1.000034315399216,0.00015869348303870109
-0.47020104437251575,-0.47020104437251575,1.0002142739600177,0.00015526771480470336
-0.4699340289313113,-0.4699340289313113,1.0002033342015306,0.0001560101453131813
-0.46983413611887953,-0.46983413611887953,1.0001743401515575,0.00015483302834241923
-0.46966202690891806,-0.46966202690891806,0.99978338844173,0.00015027748606902993
-0.46950175815291006,-0.46950175815291006,1.000121459097705,0.00015824636113158692
-0.4693375129936612,-0.4693375129936612,0.999868539463327,0.0001518995163012511
-0.4690630006763968,-0.4690630006763968,0.999797536720284,0.0001595874157250008
-0.4688219264309737,-0.4688219264309737,1.000227357199035,0.00015237080357519644
-0.46856916096658097,-0.46856916096658097,0.9998769370043525,0.00015800964342169504
-0.46832801993441536,-0.46832801993441536,1.0001030687013466,0.00015214219049609228
-0.4681315036374144,-0.4681315036374144,1.0000802980060146,0.0001623338032416131
-0.4680364281804941,-0.4680364281804941,1.000010672482492,0.0001591256324178788
-0.46787811618924025,-0.46787811618924025,0.9996548322889165,0.00015979672419615443
-0.46764851856205497,-0.46764851856205497,1.0000541650043606,0.00015483617825935416
-0.46744508262709134,-0.46744508262709134,0.9998764397691176,0.0001563425821367265
-0.46721979028516214,-0.46721979028516214,0.9998387614653051,0.0001550957751144076
-0.4670283629478945,-0.4670283629478945,1.0000058961493792,0.00015694446794911452
-0.4669033081067028,-0.4669033081067028,1.0001121531301318,0.000157380052736444
-0.4667604795693478,-0.4667604795693478,1.0001669108970659,0.00015756808572784008
-0.4666135545441648,-0.4666135545441648,0.9999554652900778,0.00014971122796782606
-0.46641924489449593,-0.46641924489449593,0.9998731785700865,0.0001937347674807937
-0.46614598215019215,-0.46614598215019215,1.0002665479245236,0.00015069428745637193
-0.4660006417419936,-0.4660006417419936,0.9998498720412214,0.00015561428222197758
-0.46577358150752846,-0.46577358150752846,1.0001632566749143,0.0001558633695974427
-0.46563902036214133,-0.46563902036214133,1.0001423487127954,0.0001669176007303084
-0.4654904065762821,-0.4654904065762821,1.0000650429901377,0.00015605956045039042
-0.4653583930732566,-0.4653583930732566,0.9998030297296292,0.00015985845246886313
-0.46516102479581606,-0.46516102479581606,1.0000987914963013,0.00016102375465762496
-0.46502751941079623,-0.46502751941079623,0.9999649609267577,0.0001539200611493261
-0.4648878437939857,-0.4648878437939857,0.9996988161712105,0.00015166988434406835
-0.46468509391343105,-0.46468509391343105,1.0000836741951047,0.00015999560834621622
-0.4645727904928208,-0.4645727904928208,0.9997546385440857,0.00016134493231566668
-0.4644380652680411,-0.4644380652680411,1.0001406320446005,0.00014942988820271433
-0.4642533776393975,-0.4642533776393975,0.999982254335473,0.00016394896863962353
-0.4639267586324422,-0.4639267586324422,1.0000980376025288,0.00015683577907856324
-0.46360630829803995,-0.46360630829803995,0.9999298514393649,0.00014775767279236993
-0.46335844458080827,-0.46335844458080827,1.0000953943078807,0.00015874719399263678
-0.46325255283809386,-0.46325255283809386,1.000285166385755,0.0001546249636026146
-0.4630661258161126,-0.4630661258161126,0.9999769880707321,0.00016311206515015852
-0.4627819386492774,-0.4627819386492774,0.9999197957518426,0.00015167023221534314
-0.46249611324019496,-0.46249611324019496,1.000009693667783,0.00015795191304663735
-0.462309212328546,-0.462309212328546,0.9998549965518946,0.00015081664071546946
-0.4622138214574079,-0.4622138214574079,1.000189946809526,0.00016305325093170757
-0.46207130175098426,-0.46207130175098426,1.0002930941163322,0.00015466703582592829
-0.4618697495876404,-0.4618697495876404,1.000195286117647,0.0001644484322877546
-0.4615975237335078,-0.4615975237335078,1.0001393767994529,0.00015342355183120679
-0.4613188874289335,-0.4613188874289335,1.0000574090870509,0.0001564618688755718
-0.4610543651593616,-0.4610543651593616,1.000003231463763,0.00015316706687207117
-0.46091602712040186,-0.46091602712040186,1.0000904028901771,0.00015698720509963008
-0.46078736847266555,-0.46078736847266555,1.0000431455099306,0.00015639541211107723
-0.46059653182310284,-0.46059653182310284,1.0000435633130107,0.00015806774359013474
-0.46030035748626685,-0.46030035748626685,1.0001667837443107,0.00014934022412369942
-0.46013740235430306,-0.46013740235430306,1.0001906086069308,0.0001480102259518348
-0.4599867036835349,-0.4599867036835349,0.9998369938161341,0.00016177350599233173
-0.4598251542520302,-0.4598251542520302,0.9999555016356159,0.0001584413661544412
-0.4596807022164285,-0.4596807022164285,0.9999517490933585,0.0001608126151501932
-0.45947642668543265,-0.45947642668543265,0.999877634003241,0.00014864309123991813
-0.4591853410456679,-0.4591853410456679,1.0000702594986808,0.0001609953170903918
-0.4588848502120527,-0.4588848502120527,0.999927029285247,0.00015739485487713384
-0.45875456186695374,-0.45875456186695374,1.0001132552788234,0.00015387796984294406
-0.4586008268306614,-0.4586008268306614,1.000061209906717,0.00015523664437471057
-0.45840908178652173,-0.45840908178652173,1.0001744958569916,0.0001522467695691867
-0.4582942687047762,-0.4582942687047762,1.000069825667945,0.00015889019812349934
-0.45808016472146845,-0.45808016472146845,1.0001503446998545,0.0001587174122097242
-0.45782287081165124,-0.45782287081165124,0.9999292044651404,0.00015142745600362149
-0.45759991683298723,-0.45759991683298723,1.0000089728834445,0.0001577602603641319
-0.4574398159478733,-0.4574398159478733,0.999855866477293,0.0001514260403097239
-0.45722222453987343,-0.45722222453987343,0.9999040671325753,0.0001564188880896241
-0.4570444296434289,-0.4570444296434289,1.000067485554407,0.00015899628154957937
-0.45675096433478757,-0.45675096433478757,1.000038967178095,0.00015796983606140808
-0.4565435620068456,-0.4565435620068456,0.9998150476074024,0.00015607676188517783
-0.45632736926927464,-0.45632736926927464,0.9999211101838219,0.00015493900025166576
-0.4561020494009426,-0.4561020494009426,1.0003513790544167,0.00015458099391674242
-0.45593005555056154,-0.45593005555056154,1.0000512666519132,0.000155326673909741
-0.4558310784494097,-0.4558310784494097,0.9999033990522992,0.00015847209946485063
-0.4557204202465073,-0.4557204202465073,0.9998418743897568,0.0001603907917961416
-0.4555429451873351,-0.4555429451873351,1.0000124912545456,0.00016114999256394762
-0.4553468662423256,-0.4553468662423256,1.0000827999732849,0.00015212172964367687
-0.45516828949257615,-0.45516828949257615,0.9999364164180975,0.00015629987620755518
-0.45495486167346827,-0.45495486167346827,1.0001097020595564,0.00015506838153980893
-0.4547871313043288,-0.4547871313043288,0.9999872455765292,0.0001626177282055956
-0.45464755989887634,-0.45464755989887634,1.0000614601436626,0.000154152077569005
-0.4544823644646385,-0.4544823644646385,0.9999957198507351,0.00015842677812633735
-0.45429028715734604,-0.45429028715734604,0.9997434612311669,0.00019713009161909196
-0.45417165059625403,-0.45417165059625403,1.0002179540982308,0.0001487162481754273
-0.45388932396890597,-0.45388932396890597,0.999977890824795,0.00015098762981327287
-0.45372971118049465,-0.45372971118049465,1.0001325805833188,0.0001554491157963558
-0.45349912633828354,-0.45349912633828354,0.9997031069594435,0.00015769348086106213
-0.4533803865815571,-0.4533803865815571,1.0001738522205368,0.00016794666549788814
-0.4532120976888109,-0.4532120976888109,1.0002869446689082,0.00015002289212861863
