time,time,flux,flux_err
-0.4998755246548778,-0.4998755246548778,0.9999824708621103,5.409485889022199e-05
-0.4996559784594865,-0.4996559784594865,1.0000461258025346,4.924234982215684e-05
-0.4993050873672473,-0.4993050873672473,1.0000586184972766,4.903883948622518e-05
-0.49891674192476787,-0.49891674192476787,1.0000688875718542,4.9967173925204504e-05
-0.4986297171504702,-0.4986297171504702,0.9999961367825358,4.927468330861149e-05
-0.498284135589347,-0.498284135589347,1.0001156608167712,5.040345720794312e-05
-0.4976828431113972,-0.4976828431113972,1.0000398164703341,5.041595808712041e-05
-0.49738825059394004,-0.49738825059394004,1.0000219428945907,4.9338680696337845e-05
-0.49711849304439965,-0.49711849304439965,1.0000808618445056,4.941366701718448e-05
-0.4968539350389619,-0.4968539350389619,1.0000712034581503,4.9372023456838035e-05
-0.49660563062789154,-0.49660563062789154,0.9999872297167551,4.902151827420466e-05
-0.4960884937761875,-0.4960884937761875,1.0000215645301733,4.9402754847944194e-05
-0.49554775917204097,-0.49554775917204097,1.0000095209098205,5.057414404960465e-05
-0.4952947187361133,-0.4952947187361133,0.9999920640500679,5.031868227017907e-05
-0.49469564175378766,-0.49469564175378766,1.000007433103711,4.9340192867648175e-05
-0.4943139941926347,-0.4943139941926347,1.0000179739127033,4.925721058054311e-05
-0.49402244923257965,-0.49402244923257965,1.0000573644911328,4.9570091531238746e-05
-0.4937240036575531,-0.4937240036575531,1.0000460413235583,4.9109900692185616e-05
-0.49321016966787284,-0.49321016966787284,1.0000136613051107,4.9943127383484524e-05
-0.49279951185963,-0.49279951185963,0.9999957018135438,4.97677093428241e-05
-0.4924359587952495,-0.4924359587952495,1.0000231265978143,4.936682880082432e-05
-0.49192487576583516,-0.49192487576583516,1.000117919207917,4.9391145886646976e-05
-0.49165316856961,-0.49165316856961,0.9999638897976568,4.932268885955744e-05
-0.49131912938828465,-0.49131912938828465,1.0000172118784516,4.9412633739169826e-05
-0.4911791464379348,-0.4911791464379348,0.9999444072325432,4.930601142026571e-05
-0.49103954555030216,-0.49103954555030216,1.0000305422424525,4.929545857666718e-05
-0.49059035650934674,-0.49059035650934674,1.0000709861471289,4.905467651155494e-05
-0.49015479096997294,-0.49015479096997294,1.0000265321293789,4.927843391584833e-05
-0.48989028398355006,-0.48989028398355006,1.0000518210253522,4.987840683651953e-05
-0.48973524130124135,-0.48973524130124135,0.9999658302659526,5.0216395048318326e-05
-0.48933732987206896,-0.48933732987206896,0.9999954299158424,4.975615737154092e-05
-0.48887088396513717,-0.48887088396513717,0.9999487904005466,4.972578321853216e-05
-0.4885169313318329,-0.4885169313318329,0.9999490351531769,4.929234400468027e-05
-0.48837850422714835,-0.48837850422714835,0.9998821124724303,4.969297178915112e-05
-0.48808255793119315,-0.48808255793119315,0.9999202427634841,4.9670212210810174e-05
-0.4877658496538061,-0.4877658496538061,0.9999287026612806,4.894704374639235e-05
-0.4873223679052899,-0.4873223679052899,0.999969741045833,4.937388220615642e-05
-0.487080783523561,-0.487080783523561,1.0000224400034856,4.96448286466723e-05
-0.48679251224457404,-0.48679251224457404,1.0000608310033505,4.9190757091799275e-05
-0.486196902764641,-0.486196902764641,0.9999848804313594,4.99967061798959e-05
-0.485683790800249,-0.485683790800249,0.9999480118132045,4.938433000607386e-05
-0.4855391024168057,-0.4855391024168057,0.9999787118900721,4.937936904409046e-05
-0.48524171340686734,-0.48524171340686734,1.0000699518380702,4.936654506513781e-05
-0.4849813725646527,-0.4849813725646527,1.0001255086493799,4.910583178013476e-05
-0.4845266479853308,-0.4845266479853308,1.0000358594508927,4.9362713011277197e-05
-0.48428371284680904,-0.48428371284680904,1.00001776405688,4.9771564523887985e-05
-0.48401481809996766,-0.48401481809996766,0.9999333455514388,4.914962718608535e-05
-0.4837071863941674,-0.4837071863941674,0.9999853226301599,5.0225872826130546e-05
-0.48345759348667344,-0.48345759348667344,0.9999624487896828,4.977902953515438e-05
-0.48289022941316945,-0.48289022941316945,0.9999987067945287,4.930716704687685e-05
-0.4826214075772441,-0.4826214075772441,1.0000566990720303,4.9341327439763496e-05
-0.4824218291847501,-0.4824218291847501,0.9999877771487764,4.964697862591139e-05
-0.4820498153429071,-0.4820498153429071,0.9999845994657853,4.941798725907363e-05
-0.4816717361405608,-0.4816717361405608,1.0000924735326535,4.9295022182540765e-05
-0.48138253640936457,-0.48138253640936457,1.0000292288104808,4.926455074090074e-05
-0.48094346063444393,-0.48094346063444393,0.9999778776405057,4.927410632388121e-05
-0.4802303805081465,-0.4802303805081465,1.000041254959633,4.946820108122251e-05
-0.47971475750309767,-0.47971475750309767,1.0000570220671612,4.9171297638546724e-05
-0.47945193396371905,-0.47945193396371905,1.0000490622921099,4.994970371087854e-05
-0.4791056128269702,-0.4791056128269702,0.9999725760609085,4.928566399622516e-05
-0.47871919693498055,-0.47871919693498055,0.9999834595092695,4.907386804451097e-05
-0.4782589733811619,-0.4782589733811619,0.9999772036094319,4.937724845780133e-05
-0.47787281803393855,-0.47787281803393855,0.9999685422395554,4.9428967471746415e-05
-0.4771953583403956,-0.4771953583403956,1.000014347774425,4.921578470549109e-05
-0.47671650576085084,-0.47671650576085084,1.0000214016249536,4.952559013786125e-05
-0.47639875892418787,-0.47639875892418787,1.0000718429674336,4.9531854476376805e-05
-0.4761767433665227,-0.4761767433665227,1.0000890904983641,4.9067389113203636e-05
-0.4759570419766533,-0.4759570419766533,1.0001985817154726,4.9398689556236726e-05
-0.47550497188276497,-0.47550497188276497,0.9999963570327945,4.9541911212785116e-05
-0.475069726617221,-0.475069726617221,1.000018119342276,4.9685062891015376e-05
-0.4746942083605973,-0.4746942083605973,0.9999813872850257,5.032581353171475e-05
-0.47421872019403966,-0.47421872019403966,0.9999238401173514,4.925035233709601e-05
-0.47374409891708635,-0.47374409891708635,1.0000076800198596,4.9349160856671026e-05
-0.47351751026071726,-0.47351751026071726,1.0000188408225483,4.9580895944195e-05
-0.47325720707158325,-0.47325720707158325,0.9999706095064369,4.938387059182974e-05
-0.47299394697110986,-0.47299394697110986,0.9999900155775681,4.914922628004799e-05
-0.4726031354781298,-0.4726031354781298,0.9999687472863407,4.957863336245143e-05
-0.4719357289854088,-0.4719357289854088,0.9999927425401575,5.04925568862369e-05
-0.4714040890219621,-0.4714040890219621,0.9999907655374901,5.059826099563546e-05
-0.47093466046862886,-0.47093466046862886,0.9999794786950107,4.9147005608570814e-05
-0.4705624212991097,-0.4705624212991097,1.000000253738079,4.94165277540599e-05
-0.4703527338242566,-0.4703527338242566,1.00001470433613,4.973168047871313e-05
-0.47011316460047964,-0.47011316460047964,1.000057859946279,4.90291087960291e-05
-0.46960630089524785,-0.46960630089524785,0.9999132441439418,4.988615662095149e-05
-0.4691365074839268,-0.4691365074839268,1.0000486280196061,4.997819037696324e-05
-0.4687155898238416,-0.4687155898238416,0.999977638060223,4.9392718446446314e-05
-0.4681309358267754,-0.4681309358267754,0.9999591192805972,4.914122779739459e-05
-0.46770360235823316,-0.46770360235823316,0.9999810608566625,4.942450909771565e-05
-0.46753131993682473,-0.46753131993682473,0.999975358028918,4.961369788323277e-05
-0.4674189618039236,-0.4674189618039236,0.9999272502704294,4.933020415341763e-05
-0.46706645786107404,-0.46706645786107404,1.0000570968861013,4.9057156674367613e-05
-0.4665509102029318,-0.4665509102029318,0.9999741756745232,4.957699344051496e-05
-0.4662030737701571,-0.4662030737701571,1.0000455700482171,4.994524629182704e-05
-0.4660258269119367,-0.4660258269119367,0.9999822300539399,4.9672173387203244e-05
-0.46558252750110113,-0.46558252750110113,1.0000395625943042,5.00081551288522e-05
-0.46524294222690515,-0.46524294222690515,1.000082547326985,4.9423298042719496e-05
-0.46491941265703646,-0.46491941265703646,0.9999877614419054,4.929514156078053e-05
-0.46472289113735316,-0.46472289113735316,1.0000194178094273,4.9620588853700436e-05
-0.464390188845573,-0.464390188845573,0.9999946110848953,4.943552240967496e-05
-0.4639771108064451,-0.4639771108064451,0.9998992160690812,4.9328289055443006e-05
-0.46348615595852605,-0.46348615595852605,1.000014355592306,4.897209105079625e-05
-0.4632864776322094,-0.4632864776322094,0.9999460588445054,4.9960116524175084e-05
-0.46294012105354343,-0.46294012105354343,0.9999581416622128,4.9019214379882566e-05
-0.4623498119181022,-0.4623498119181022,1.0000885870536969,5.0028029823367255e-05
-0.4619731417777075,-0.4619731417777075,1.0000129807132712,4.946956374732844e-05
-0.46180409606531614,-0.46180409606531614,1.000033336284889,4.923926991262107e-05
-0.4615444276038033,-0.4615444276038033,0.9999639083703716,4.9365484496226246e-05
-0.46130387614903157,-0.46130387614903157,1.0000291820346152,4.938605691822831e-05
-0.46089245695184217,-0.46089245695184217,0.9999903460390612,4.9368231006838704e-05
-0.4606222720416554,-0.4606222720416554,0.9999121944754374,4.960610225988898e-05
-0.4603879297304957,-0.4603879297304957,1.0000045446244223,4.91575599907959e-05
-0.46000204334850425,-0.46000204334850425,1.000046568643657,5.077471726209565e-05
-0.4594474754965631,-0.4594474754965631,0.9999215807167733,4.950025630383626e-05
-0.4591398512784508,-0.4591398512784508,1.000055552389491,4.9499217835872856e-05
-0.45884390116261786,-0.45884390116261786,0.999968764439852,4.932547925272218e-05
-0.4586603014038701,-0.4586603014038701,1.0001123210582579,4.966657602764442e-05
-0.4582758907810785,-0.4582758907810785,0.9999778738433877,4.965264133312881e-05
-0.457976730602968,-0.457976730602968,0.9999813216810874,4.9266771711032614e-05
-0.4576973512186669,-0.4576973512186669,1.0000226769591407,4.922159770448536e-05
-0.4573226998814789,-0.4573226998814789,1.0000425022342747,4.921066699427403e-05
-0.4568368905922398,-0.4568368905922398,0.9999709152214595,4.969627312538569e-05
-0.45637582374110935,-0.45637582374110935,0.999915690186197,4.9383585851591535e-05
-0.4560645894809568,-0.4560645894809568,1.0000405169501962,4.930903312378227e-05
-0.45580843075513255,-0.45580843075513255,1.0000545068255362,4.9930539780501293e-05
-0.4554812491602206,-0.4554812491602206,0.9999351666653998,4.930932615829747e-05
-0.455145923494274,-0.455145923494274,1.0000733300067557,4.940294003102039e-05
-0.45471004817518407,-0.45471004817518407,1.0000069284141975,4.905499675166856e-05
-0.4543096468652948,-0.4543096468652948,0.9999402119980234,4.950600953749485e-05
-0.4536767439683899,-0.4536767439683899,1.000028236178212,4.9042058919078894e-05
-0.4532302526029525,-0.4532302526029525,1.0000346301970717,4.9167861829574996e-05
-0.4528991162784223,-0.4528991162784223,0.999931797725852,4.9643730653239685e-05
-0.45260302987881007,-0.45260302987881007,0.999921602856744,4.9597621638453156e-05
-0.4523595216953254,-0.4523595216953254,1.000060381412856,4.920969847572928e-05
-0.4519775658387516,-0.4519775658387516,1.000039224687262,4.925603857302373e-05
-0.4515154803346377,-0.4515154803346377,0.9999660070805291,4.9958358634257937e-05
-0.4512303176721616,-0.4512303176721616,1.0000707072860178,4.925931533152082e-05
-0.4508121975741233,-0.4508121975741233,0.999998451752732,5.026242647376936e-05
-0.45030041901336515,-0.45030041901336515,0.9999406778458872,4.949048961828175e-05
-0.44990237062302185,-0.44990237062302185,0.9999536499450521,4.913751248661616e-05
-0.4496550351570477,-0.4496550351570477,0.9999648020706525,4.924526345585745e-05
-0.4494450496378704,-0.4494450496378704,1.0000446209187497,4.937929288560309e-05
-0.449181772704469,-0.449181772704469,1.0000534268095471,4.9023041072901334e-05
-0.44865284015832,-0.44865284015832,0.9999886904612667,4.959158831350777e-05
-0.44818582944790253,-0.44818582944790253,0.999958035649169,4.9546791454711e-05
-0.44782486104522834,-0.44782486104522834,1.0000109872886445,5.1800639605182686e-05
-0.4473455976709374,-0.4473455976709374,1.0000079497634915,5.065716649898264e-05
-0.4469825306885468,-0.4469825306885468,1.0000019660173605,4.928336225127019e-05
-0.4466746164267533,-0.4466746164267533,0.9999344485184161,4.953122131643211e-05
-0.4464646383356012,-0.4464646383356012,0.9999566330124949,4.918375805848029e-05
-0.4459801160126517,-0.4459801160126517,1.000046036041626,4.9574477943927406e-05
-0.4457526135869557,-0.4457526135869557,1.0000701076341958,4.956860516579088e-05
-0.44528206439426865,-0.44528206439426865,1.0000171127997202,5.009629800561017e-05
-0.44498093277215955,-0.44498093277215955,1.0001535062307432,4.9444796063745017e-05
-0.4444244185709977,-0.4444244185709977,0.9998996435006953,4.913548590743384e-05
-0.4440161042562977,-0.4440161042562977,1.0000153575866324,4.947573461942318e-05
-0.4438213106805051,-0.4438213106805051,1.0000608059553164,4.947723516896998e-05
-0.44367553478368793,-0.44367553478368793,1.0000739456978,4.9506320674612817e-05
-0.4432651899762277,-0.4432651899762277,1.0000684258616965,4.891628086303429e-05
-0.4429211656453845,-0.4429211656453845,0.9999191997062791,4.9726523702396287e-05
-0.44246779130626235,-0.44246779130626235,0.9999587467806628,4.9901465858770954e-05
-0.44206625297665597,-0.44206625297665597,1.000028443974861,5.008032446785921e-05
-0.441630002513557,-0.441630002513557,1.0000523051525256,4.954076744284154e-05
-0.4412807802684256,-0.4412807802684256,0.999993891534864,4.910336506486592e-05
-0.4410484169413394,-0.4410484169413394,1.0000068725767302,4.9616252712797155e-05
-0.4407550869502302,-0.4407550869502302,0.9999587766979742,4.932043261054598e-05
-0.4403315459712758,-0.4403315459712758,0.9999485557767673,4.919214692750827e-05
-0.43986951990737,-0.43986951990737,0.9999107020472507,4.948078923467913e-05
-0.43966787507670235,-0.43966787507670235,1.000053388765076,4.973622466493924e-05
-0.4394757493857469,-0.4394757493857469,0.9999529143827054,4.959260951899287e-05
-0.4390082227437233,-0.4390082227437233,0.9999825422839145,4.957231348361776e-05
-0.4384242050429748,-0.4384242050429748,1.000100731577584,4.929429261788038e-05
-0.43821123316301963,-0.43821123316301963,0.9999714055492355,4.953101663848973e-05
-0.437956232772558,-0.437956232772558,1.0000339155542446,4.95176556267695e-05
-0.4377201050861913,-0.4377201050861913,0.9999758135280065,4.9222048307682186e-05
-0.4373354177820147,-0.4373354177820147,1.0000074063863373,4.9620013114744136e-05
-0.4369602608901914,-0.4369602608901914,1.0000368917094025,4.951891060318808e-05
-0.43669229236256796,-0.43669229236256796,0.999968585793803,4.917169692530457e-05
-0.4362114909752563,-0.4362114909752563,1.0000438529931797,4.965168391826972e-05
-0.4357218933830154,-0.4357218933830154,1.0000106451908253,4.94744669204159e-05
-0.43543376210291174,-0.43543376210291174,0.9999558888796898,4.949879143038181e-05
-0.4351674060962978,-0.4351674060962978,0.9999177593886577,4.93375208187246e-05
-0.43496613653624083,-0.43496613653624083,1.000096662209233,4.9670106095555475e-05
-0.4346199219668051,-0.4346199219668051,1.0000744738858924,4.909823174926612e-05
-0.43422128070524196,-0.43422128070524196,0.999959250480979,4.926658685366679e-05
-0.4338934430044901,-0.4338934430044901,1.0000580171328946,4.9461598617449406e-05
-0.43346521664279863,-0.43346521664279863,0.9999571097765637,4.938250395028007e-05
-0.4329062920616707,-0.4329062920616707,0.9998830536259827,4.952663986279301e-05
-0.43256605901551665,-0.43256605901551665,1.0000327561092102,4.9431078423516455e-05
-0.43227073034795466,-0.43227073034795466,1.000109252971533,4.932368138836322e-05
-0.43204518236234435,-0.43204518236234435,1.0000224920469634,4.9818611882449056e-05
-0.43171129461770763,-0.43171129461770763,1.0000062575592517,4.9290228345344705e-05
-0.4313709503119753,-0.4313709503119753,1.0000215672813113,4.940203434231766e-05
-0.4309158708776522,-0.4309158708776522,1.0000408842450255,4.920110124521064e-05
-0.4305458034046751,-0.4305458034046751,1.000076760892886,4.9330967533838174e-05
-0.42984874164976644,-0.42984874164976644,0.9999246328905513,4.90828492788443e-05
-0.42946799045967055,-0.42946799045967055,0.9999577726143898,4.932181269006237e-05
-0.42915599105763247,-0.42915599105763247,0.999976207802705,4.964164349370193e-05
-0.4288025270718208,-0.4288025270718208,1.0000382751298527,4.9286303167284587e-05
-0.42850288277622894,-0.42850288277622894,1.0000785885814987,4.90769231452384e-05
-0.42804505514213814,-0.42804505514213814,1.0000297744338043,4.97382468945694e-05
-0.4277723716280889,-0.4277723716280889,0.9999388786317084,4.9450534666915216e-05
-0.42755997151325575,-0.42755997151325575,1.0000477170207995,4.961778791645679e-05
-0.42720313358440765,-0.42720313358440765,1.0000475528608577,5.018925024158436e-05
-0.4265963845049555,-0.4265963845049555,1.000049544990433,4.949603496664091e-05
-0.4262286080716876,-0.4262286080716876,0.9999626677020963,4.928179568951756e-05
-0.4259994683496188,-0.4259994683496188,0.9999769637054701,4.9368605603997464e-05
-0.42578331242111744,-0.42578331242111744,1.00002961683138,4.9378803117203065e-05
-0.425489350278076,-0.425489350278076,0.9999714291989589,4.899241453232363e-05
-0.424950342579541,-0.424950342579541,0.9999859087429398,4.97259850955588e-05
-0.42457033314494763,-0.42457033314494763,1.000078928437569,4.9414505115392755e-05
-0.4242425287971855,-0.4242425287971855,1.0000191468499688,5.0439258958897467e-05
-0.4237230108999938,-0.4237230108999938,1.000013738557335,5.0351789979323045e-05
-0.42347512247069974,-0.42347512247069974,0.9999430120943623,4.949520942393937e-05
-0.4232025255092594,-0.4232025255092594,0.9998737978840792,4.948393281969222e-05
-0.42297373217443235,-0.42297373217443235,1.000068217197955,4.921005907791192e-05
-0.4227494414371904,-0.4227494414371904,1.0000625573819855,4.918280747979614e-05
-0.42232170201532426,-0.42232170201532426,0.9999940681783119,4.9583681859759155e-05
-0.42184344390552725,-0.42184344390552725,0.9999446100727223,4.906853246439786e-05
-0.42151567805194645,-0.42151567805194645,0.9999818890768737,5.0314008155078385e-05
-0.421002111848793,-0.421002111848793,0.9999732285802472,4.9186643979377026e-05
-0.4206134275547811,-0.4206134275547811,1.000007972651755,4.949374217975569e-05
-0.42027654342164167,-0.42027654342164167,0.9999789999875484,4.9412020018806525e-05
-0.4200456951053638,-0.4200456951053638,1.0000370210746437,4.945496636488791e-05
-0.4197202176655992,-0.4197202176655992,1.0000191787227084,4.9087166295749685e-05
-0.4192799415861373,-0.4192799415861373,1.0000306316185288,4.9930087121314684e-05
-0.4188319871391286,-0.4188319871391286,1.0000162020869825,4.97660107382731e-05
-0.4184934792814602,-0.4184934792814602,0.9998971068461759,4.9368761366043e-05
-0.4179807635919133,-0.4179807635919133,1.0000298486515764,5.028470984078322e-05
-0.41764619548630433,-0.41764619548630433,0.9998933789253467,4.9285586039266905e-05
-0.4173843055716134,-0.4173843055716134,1.0000300648379525,4.9451748395763e-05
-0.41717523165498277,-0.41717523165498277,0.9999938478788017,4.9296710026363344e-05
-0.41683981498281353,-0.41683981498281353,0.9999287788893485,4.9225741869921815e-05
-0.41632543959494794,-0.41632543959494794,0.9999611591422907,4.926750824668778e-05
-0.41598672596228425,-0.41598672596228425,1.000114195167069,4.9703417203049934e-05
-0.41584773748109,-0.41584773748109,1.0000859895842589,4.9532473035573486e-05
-0.41555779381887986,-0.41555779381887986,0.9999701345234108,4.936843264623272e-05
-0.41498833441146415,-0.41498833441146415,0.9999550799913781,5.0045741360826704e-05
-0.4146281301545969,-0.4146281301545969,0.9999519750382124,4.91374188214446e-05
-0.41450104891773665,-0.41450104891773665,1.0001090210039005,4.987848172208677e-05
-0.41419797126000046,-0.41419797126000046,1.0000364832596247,4.951979982501702e-05
-0.41390857512596996,-0.41390857512596996,0.9999259436164325,5.0007572321098524e-05
-0.41347615378035696,-0.41347615378035696,1.000011783657619,4.919379373348208e-05
-0.41315796494018286,-0.41315796494018286,0.9999585007522089,4.9585215638555874e-05
-0.4127864262503863,-0.4127864262503863,0.9999500537185158,4.924991545441028e-05
