time,time,flux,flux_err
-0.49989674817819224,-0.49989674817819224,1.000171810719822,0.00014021128909877696
-0.4998186688341472,-0.4998186688341472,1.0001958616654902,0.00013996248279842736
-0.4996949622606432,-0.4996949622606432,1.000116361553631,0.0001415229989591694
-0.49957585097290574,-0.49957585097290574,0.9999212856586196,0.0001261215072514347
-0.4994687927712221,-0.4994687927712221,0.999896097286862,0.00012359807891256335
-0.49935750361473763,-0.49935750361473763,0.9998175488262084,0.00012642914601826823
-0.4992330884735566,-0.4992330884735566,1.0000942194768772,0.0001386266440872519
-0.49913866448041516,-0.49913866448041516,1.0000348804152523,0.00012351254191757122
-0.498976522081648,-0.498976522081648,0.9998240419060946,0.0001292726956892619
-0.49882210851937997,-0.49882210851937997,0.9999092575255399,0.00012661434340972177
-0.49870306117227303,-0.49870306117227303,0.9999325083569076,0.00012252927846924985
-0.49860482218209656,-0.49860482218209656,0.9998898399885142,0.00012925918060184834
-0.4985123484657379,-0.4985123484657379,0.9999282321587908,0.00013190579787987478
-0.4984157619124744,-0.4984157619124744,0.9999337527882638,0.0001271563763883052
-0.4981623064581072,-0.4981623064581072,0.9998828035066616,0.00012754316838067722
-0.4980306458513951,-0.4980306458513951,0.9999040520257939,0.00012899950557618568
-0.49790841827343685,-0.49790841827343685,0.9999887330216074,0.0001255988053420071
-0.49780512722500136,-0.49780512722500136,0.9999074454561478,0.00013383282233675594
-0.4976800163887674,-0.4976800163887674,0.9998886290714453,0.0001288946709795402
-0.4975168627948733,-0.4975168627948733,1.000087091212398,0.00012221101858136073
-0.49738927049329507,-0.49738927049329507,1.0001626834756232,0.0001332246497557264
-0.49729778849869033,-0.49729778849869033,1.0002049915515054,0.00012579887112272326
-0.49722885047085585,-0.49722885047085585,1.0001255954508221,0.00013412278823201243
-0.4971233455231413,-0.4971233455231413,0.999974363064922,0.00012330412497668107
-0.4969307742343517,-0.4969307742343517,0.9997440643978693,0.00013052552728880581
-0.4968082385923481,-0.4968082385923481,0.9999454869293457,0.0001336986385316711
-0.4967062447452918,-0.4967062447452918,0.9999469782408962,0.00013702093672951932
-0.4965706940216478,-0.4965706940216478,0.9999455364808393,0.00013419977902105152
-0.49645825510669966,-0.49645825510669966,0.9999324308988868,0.000127603220278734
-0.49627527603879573,-0.49627527603879573,1.0001079700439726,0.00012514237635224658
-0.4961935991683276,-0.4961935991683276,0.9999411132483725,0.00013148652220955538
-0.49604901382990646,-0.49604901382990646,1.0000677621882808,0.00013429152014535545
-0.4958698825299507,-0.4958698825299507,1.0000288236033985,0.00013515791222440385
-0.4957515143731143,-0.4957515143731143,1.0000015958604949,0.00013138903574901002
-0.49559668417205105,-0.49559668417205105,1.0000840757846832,0.00012604233379497567
-0.4954998202709248,-0.4954998202709248,1.000005780900604,0.00013701375509061805
-0.4953990864160005,-0.4953990864160005,1.000327624494132,0.0001227223410786954
-0.4953034459060291,-0.4953034459060291,0.9998811019293985,0.0001260650504489208
-0.49523795998247805,-0.49523795998247805,0.9999032221102253,0.0001258108201994678
-0.4951184589037439,-0.4951184589037439,1.000171433985253,0.00013305554110084876
-0.4949210555496393,-0.4949210555496393,0.9999835842071285,0.0001256284100575017
-0.4947554992133519,-0.4947554992133519,1.0000803832165004,0.0001320521235992565
-0.49464610033901407,-0.49464610033901407,1.0000572132618848,0.00013210158484405532
-0.4944933539169142,-0.4944933539169142,0.9999661107805438,0.0001335505256390034
-0.49434692951326725,-0.49434692951326725,1.000073068374011,0.0001244810124308734
-0.49426220153691247,-0.49426220153691247,1.000078904545354,0.00013384126045220193
-0.4941487306175986,-0.4941487306175986,1.0002913453352436,0.00012147680540854368
-0.494027894618921,-0.494027894618921,0.9998456062297667,0.00012729555586068697
-0.493961173176649,-0.493961173176649,1.0003938949623694,0.00013509535107686968
-0.49388640976394527,-0.49388640976394527,0.9999532995677812,0.0001249615617974694
-0.4936765287129674,-0.4936765287129674,0.9999763505785417,0.00013196952918063568
-0.49353533673274796,-0.49353533673274796,1.0000905576734107,0.00012549347525392065
-0.49336174624913837,-0.49336174624913837,0.9999969710143821,0.00012251292976730473
-0.4932386252505239,-0.4932386252505239,1.0001920754939873,0.00013167789711154845
-0.4931044101569569,-0.4931044101569569,1.0000810396124535,0.00013047319124337726
-0.49289437697152605,-0.49289437697152605,0.9998233874868934,0.00012718470840186348
-0.49273777501948646,-0.49273777501948646,1.0000609444685131,0.00012690939295549583
-0.49266680478467606,-0.49266680478467606,1.0002021923789415,0.00012571611811534414
-0.492593323381152,-0.492593323381152,1.0000107096891373,0.00012418642153247592
-0.492460900178412,-0.492460900178412,1.0000440720873094,0.0001368189684493754
-0.4923053415812319,-0.4923053415812319,1.000159347200804,0.00012397315998160927
-0.49218372835894114,-0.49218372835894114,1.0001595890764905,0.00013423326699301267
-0.4920116966968635,-0.4920116966968635,1.0000141285163624,0.0001237629987361591
-0.4918927120335866,-0.4918927120335866,1.0001441084442522,0.00013317818433346214
-0.4917158440570347,-0.4917158440570347,1.0000334701414095,0.0001223951513254536
-0.49163803983828985,-0.49163803983828985,0.9998964033247436,0.00012241399193299961
-0.4915656947850948,-0.4915656947850948,0.999916376579435,0.00014300213582892985
-0.491377486375859,-0.491377486375859,1.000019255006886,0.0001334633835954577
-0.49122006713587324,-0.49122006713587324,0.9999670070175259,0.00012371800172565725
-0.49105029437632763,-0.49105029437632763,1.000019830971358,0.00013298220092536052
-0.4909410432621371,-0.4909410432621371,1.000273670932961,0.0001400561087263663
-0.49081750281038694,-0.49081750281038694,0.9999643741963686,0.00013025532233768315
-0.49062317053612786,-0.49062317053612786,0.9997942207803066,0.00013540422578656045
-0.4904719645215664,-0.4904719645215664,1.0000354428228933,0.00015261566254266062
-0.49029634103353603,-0.49029634103353603,1.0000097314396355,0.00014013788653808576
-0.49020986546529455,-0.49020986546529455,1.000061031482919,0.00012565303566879782
-0.49014872607367577,-0.49014872607367577,1.0000301928639415,0.0001243975988211304
-0.4899747271614615,-0.4899747271614615,0.9998708470201787,0.00012525535560238473
-0.48980338174151256,-0.48980338174151256,1.000177883311866,0.00013167218399701106
-0.48970293304009826,-0.48970293304009826,1.0000936507530649,0.00013650698800124922
-0.48957753147115,-0.48957753147115,1.0000927534648678,0.00012215289491180378
-0.48947590606403535,-0.48947590606403535,0.9998625220522894,0.00013170029381612492
-0.4893590493797092,-0.4893590493797092,0.9999656774680034,0.00012882073811843354
-0.4891390499571571,-0.4891390499571571,1.0000562289350146,0.00013011333190168954
-0.4890493995480938,-0.4890493995480938,1.0000171250794325,0.00014260918047212653
-0.4888529082178138,-0.4888529082178138,1.0002276040333284,0.00012772111660662685
-0.48875067946792117,-0.48875067946792117,0.9999975190591275,0.00012618789836520792
-0.48862290052638857,-0.48862290052638857,0.9999621536459579,0.00012997539417492203
-0.48844745994429106,-0.48844745994429106,1.0000624041459676,0.0001422913080874986
-0.48827992560109124,-0.48827992560109124,0.9999559982842818,0.00012716985963001772
-0.4881396913842764,-0.4881396913842764,0.9999531291736956,0.00012838044375354431
-0.48807156951515934,-0.48807156951515934,0.9999419084021047,0.00012462006440274045
-0.487896861761692,-0.487896861761692,0.9999571572185303,0.00013387537561667203
-0.4877830579469446,-0.4877830579469446,1.0001236366753377,0.00013801370174884809
-0.48760222749551757,-0.48760222749551757,0.9998516524633547,0.00012903206610865447
-0.48745371437980795,-0.48745371437980795,0.9999025688105039,0.000125171783051205
-0.4873128034116235,-0.4873128034116235,1.0000577403777615,0.00012943200576566054
-0.4871978017152287,-0.4871978017152287,1.0000483254225754,0.00013816236963159136
-0.4870773054281017,-0.4870773054281017,1.0000244061191497,0.0001244301256548884
-0.4869552750926232,-0.4869552750926232,1.0000582227096777,0.00012603505095247004
-0.4868562307470711,-0.4868562307470711,1.0000178260294033,0.00012555138799180942
-0.48671065249072853,-0.48671065249072853,1.0000268916163015,0.00012374953855122
-0.48651225280191285,-0.48651225280191285,0.9999119354400348,0.00013941193883640438
-0.48636427087476475,-0.48636427087476475,1.000032974083363,0.0001289911365134195
-0.48627640374179465,-0.48627640374179465,0.9999919506603201,0.0001282097447962478
-0.48617756022431424,-0.48617756022431424,0.999841674295595,0.00012419714637998733
-0.4859548829088453,-0.4859548829088453,0.999975687459699,0.0001328655646034886
-0.48577756938757377,-0.48577756938757377,0.999986658242175,0.00012916543523470476
-0.48567475833697243,-0.48567475833697243,0.9998819711537854,0.0001287508321266047
-0.4855514317867346,-0.4855514317867346,1.0001147154518268,0.00012857102979729976
-0.48536550598510075,-0.48536550598510075,1.0000448793251286,0.00013521690386083718
-0.48518889664846937,-0.48518889664846937,0.999833845242776,0.00013300428789064258
-0.4851013979816344,-0.4851013979816344,0.9999812983792191,0.00012358713521442628
-0.4849956236896105,-0.4849956236896105,1.0000284402953266,0.00012337928715714253
-0.4848709508049069,-0.4848709508049069,0.9999843539540197,0.00012625342071902095
-0.4847224395227386,-0.4847224395227386,1.0000464574194048,0.00012945494035702243
-0.48458330310240855,-0.48458330310240855,0.9998956256801724,0.00012607504575082564
-0.4844719730259385,-0.4844719730259385,1.0000339924005375,0.00013710642643098892
-0.4843537654232932,-0.4843537654232932,0.9998609991690766,0.00012584051717471468
-0.4842437879735371,-0.4842437879735371,1.0000639225274024,0.0001308892692698403
-0.4841075417876709,-0.4841075417876709,1.0001262434711586,0.00012381535544605035
-0.48398440492455846,-0.48398440492455846,1.0000338492121803,0.00012456416773040692
-0.4838595701556187,-0.4838595701556187,0.9998044958081789,0.00013284143361652625
-0.48376193529984446,-0.48376193529984446,0.9999490959881709,0.0001240040859468816
-0.4836513389862375,-0.4836513389862375,0.9999083972413058,0.00014433378929645829
-0.4834508806670783,-0.4834508806670783,0.9999068966218279,0.00012297203893668477
-0.48329199544386936,-0.48329199544386936,1.000145550170119,0.00012691048484994146
-0.48319086143455936,-0.48319086143455936,0.999971850415038,0.00013660646070018915
-0.4830994534044294,-0.4830994534044294,0.9998013076466913,0.0001337646753528125
-0.48298136370140127,-0.48298136370140127,0.9997420528424386,0.00014082429567011914
-0.482882139828871,-0.482882139828871,0.9999663526774502,0.00012479367085074425
-0.48276380785682704,-0.48276380785682704,0.9998777783210875,0.00012480083022607194
-0.48264368148811626,-0.48264368148811626,0.9998984547711668,0.00012472824050008253
-0.4825501805462409,-0.4825501805462409,1.0000353254905092,0.00013436436916430767
-0.482425040169619,-0.482425040169619,1.0000712526628626,0.00013536501904779318
-0.4823472520511132,-0.4823472520511132,0.9999647415746994,0.00013157380090247776
-0.4821295082103461,-0.4821295082103461,1.000026599610535,0.00012464758747596786
-0.4820277101156535,-0.4820277101156535,1.0000852940805995,0.00012778514040299598
-0.4819178088248009,-0.4819178088248009,0.9999292919015714,0.0001322437197665853
-0.48185558422410396,-0.48185558422410396,1.0001860726147982,0.00012898503306258172
-0.4818083135585766,-0.4818083135585766,0.9999520977390658,0.00012294999768073397
-0.48172373686393255,-0.48172373686393255,1.0000242837667135,0.00012588185919293592
-0.48163724343176,-0.48163724343176,0.9996988517772563,0.00013631500385469374
-0.48157239323772955,-0.48157239323772955,0.9998420892730812,0.00012759344576152376
-0.4814421352988575,-0.4814421352988575,1.0001495112186263,0.00012344192265954605
-0.48130539971461983,-0.48130539971461983,0.9999355471153397,0.0001355776532825347
-0.4811790221108822,-0.4811790221108822,0.9997627946991468,0.00012347910135441272
-0.48105732358817477,-0.48105732358817477,0.999916444609229,0.0001232881125592303
-0.48092405318748205,-0.48092405318748205,1.000033779069847,0.00013957702186989104
-0.4808436818624614,-0.4808436818624614,0.9999704996607447,0.00013143920231049153
-0.48078011455072556,-0.48078011455072556,1.0001045666426187,0.00012202649947598743
-0.48071336110879204,-0.48071336110879204,1.0000603903979948,0.00012534892427597925
-0.48061917211161925,-0.48061917211161925,0.999918019099411,0.00013539549462791354
-0.48054418379906566,-0.48054418379906566,1.0001104089230817,0.00012933497965569797
-0.48046425937791354,-0.48046425937791354,1.0000702435083997,0.00012954195334548895
-0.48036301201791504,-0.48036301201791504,1.0001240478770494,0.00013344614187687202
-0.4801863801549189,-0.4801863801549189,1.0000479204212807,0.00012438955555609766
-0.48004777052265124,-0.48004777052265124,0.999969682586479,0.00013084910262469758
-0.47991842195333445,-0.47991842195333445,1.0000506502202515,0.0001240195822884767
-0.4797646904975409,-0.4797646904975409,0.9999555135216763,0.00012319737136809965
-0.47964678921562154,-0.47964678921562154,1.0000046178218014,0.00013280937603071455
-0.47954639118979686,-0.47954639118979686,0.9999029023423647,0.00013251822510220031
-0.479385769541841,-0.479385769541841,1.0001000968404,0.00013414269324284187
-0.47928104893362616,-0.47928104893362616,1.000167866125254,0.0001294684731069487
-0.47915725807251874,-0.47915725807251874,1.0000040436056352,0.00012854478163733333
-0.47893884259974584,-0.47893884259974584,1.0000118594264642,0.00013202702883478807
-0.47880634507746433,-0.47880634507746433,0.9998358407217329,0.0001236551923458107
-0.4786672931513749,-0.4786672931513749,1.0000470855357249,0.00013360810390399184
-0.4785598553396994,-0.4785598553396994,1.0001118449582638,0.00012503003876428056
-0.4784921818616567,-0.4784921818616567,1.0001775668165573,0.00012759794654783874
-0.47841050205170177,-0.47841050205170177,0.999910049638095,0.00013396320978796537
-0.4783311634615529,-0.4783311634615529,1.000040448811727,0.00013180675831653068
-0.47816798047570047,-0.47816798047570047,0.9998000850969021,0.00012984219185881667
-0.478029170530499,-0.478029170530499,0.9998973795393178,0.00012740098108846574
-0.4779546347475844,-0.4779546347475844,1.0000828067490546,0.00013675533850223445
-0.4778454725979827,-0.4778454725979827,0.9999389967381337,0.00012901395572497126
-0.47775307698757385,-0.47775307698757385,1.0000517470504982,0.00012363096598325056
-0.4776394446846098,-0.4776394446846098,1.000059697217379,0.00012700738910627042
-0.47738928823091553,-0.47738928823091553,0.9999007757048541,0.0001238202546110291
-0.4772858623997308,-0.4772858623997308,0.9999747168894177,0.00012794679075114513
-0.47720618059684056,-0.47720618059684056,1.0001131213088543,0.00012471014275539005
-0.4771146082697669,-0.4771146082697669,1.0000384223362588,0.00012922137768356826
-0.4770386056479765,-0.4770386056479765,1.0003379792284657,0.00013120098138416945
-0.4768541404599091,-0.4768541404599091,0.9999581618434,0.0001225920718218881
-0.476718618767336,-0.476718618767336,1.0002111169549723,0.00012901736917791544
-0.4765967317332979,-0.4765967317332979,0.9999657298464619,0.00012607392425004435
-0.4764487886801362,-0.4764487886801362,0.9999257314052729,0.00012755510838709423
-0.4763285767461639,-0.4763285767461639,1.0001126855044098,0.00013056171526717674
-0.4761626222956693,-0.4761626222956693,0.9999498669827964,0.0001249508325678332
-0.4760228078899672,-0.4760228078899672,1.0000467374087445,0.00012927957875329097
-0.47590807201340796,-0.47590807201340796,0.9999276095893134,0.00013159413552448152
-0.475772929523373,-0.475772929523373,1.0000321446445308,0.00012896345817484624
-0.4756484337063739,-0.4756484337063739,1.0001940006847545,0.00013069774682605224
-0.47551575039105953,-0.47551575039105953,1.0002366288567082,0.00012622634988705515
-0.475428770162398,-0.475428770162398,0.9998043224953841,0.0001256452520791949
-0.47533993488177656,-0.47533993488177656,1.0000159838570868,0.0001356818264667847
-0.4752065482432954,-0.4752065482432954,0.9999199964818809,0.00012967773452129914
-0.4750139665120514,-0.4750139665120514,1.0000609792003445,0.00013139936988949935
-0.4749250545079121,-0.4749250545079121,0.9999827394624164,0.00012341623468976857
-0.47482740434934384,-0.47482740434934384,1.0000289311669257,0.00012526564117016048
-0.4747249645588454,-0.4747249645588454,1.0000532556596355,0.00013976666984619638
-0.47449608193710446,-0.47449608193710446,0.9999306260689924,0.00013418033979455525
-0.4743440788734006,-0.4743440788734006,0.9998837541994142,0.00013645199687491259
-0.47420617040479557,-0.47420617040479557,0.9999644733451685,0.00012790928173019497
-0.4740494593861513,-0.4740494593861513,0.9999945622578486,0.00012539246848490782
-0.4739861710724654,-0.4739861710724654,1.0001134525372612,0.0001321387022540924
-0.4738688589655794,-0.4738688589655794,0.9999876703151267,0.0001301448575939069
-0.473734911144129,-0.473734911144129,1.0000257120431493,0.00013733823777686453
-0.4736492824187735,-0.4736492824187735,1.000249017068382,0.00012432060169350335
-0.47344797385449056,-0.47344797385449056,0.9999093079111893,0.00012365849307538062
-0.4732793893112103,-0.4732793893112103,1.0000147965214448,0.00013344593273082462
-0.47317137086356525,-0.47317137086356525,1.000036264607522,0.00013236295312553517
-0.47305245411698704,-0.47305245411698704,0.9999505515779538,0.00013222727805394424
-0.47296485274855515,-0.47296485274855515,1.0000833647363543,0.0001265903219910674
-0.4728412430442404,-0.4728412430442404,1.0001625163264176,0.00012429241876553394
-0.47273382221465,-0.47273382221465,1.000242315233033,0.00013546501897922274
-0.472534326656023,-0.472534326656023,1.0001437807218412,0.00013305639834476795
-0.47238054827030285,-0.47238054827030285,1.0000370695102183,0.00012559196533877727
-0.4721923777717166,-0.4721923777717166,1.0001683513359008,0.00012874884706450205
-0.47204403500072656,-0.47204403500072656,1.0000178695011508,0.00012252477088522262
-0.47190362128603736,-0.47190362128603736,1.0002105315208527,0.00012018577354786831
-0.47179312075895724,-0.47179312075895724,1.0000578942191567,0.00012397378927108972
-0.4717207138688536,-0.4717207138688536,0.999981040411089,0.0001350494736922068
-0.47158725766057613,-0.47158725766057613,1.0002104563242546,0.0001347639138770097
-0.4714635500771692,-0.4714635500771692,0.9999591808504251,0.000131001626002067
-0.4713125681009842,-0.4713125681009842,0.9999983658883537,0.00012429302062573805
-0.47111056158319115,-0.47111056158319115,0.9999200911076714,0.0001286581760398386
-0.4710063897044165,-0.4710063897044165,0.9999743892446705,0.0001291198628421148
-0.470918525318848,-0.470918525318848,1.0002449155956963,0.00012888103793196357
-0.47075848186213987,-0.47075848186213987,1.0000096319845402,0.0001259535534207375
-0.47063010873680466,-0.47063010873680466,1.0000119341227074,0.00012383882217984371
-0.47040252783335745,-0.47040252783335745,1.0000597046868955,0.00012536311178321845
-0.4703373378404649,-0.4703373378404649,0.9999598928713433,0.0001380666203380607
-0.4702624666853808,-0.4702624666853808,1.0000724354946773,0.00012659220222421448
-0.4701912917691516,-0.4701912917691516,1.0000532263368882,0.00012429875277228543
-0.47005490913288667,-0.47005490913288667,1.0001332212534773,0.00013146815543742203
-0.46982519518351185,-0.46982519518351185,1.0002613580544157,0.00013570647064691058
-0.4696572382701561,-0.4696572382701561,1.0000335449186128,0.0001256152598728829
-0.4695185916731134,-0.4695185916731134,0.9998167249001826,0.00013195845770192397
-0.46940485780360175,-0.46940485780360175,0.9998453183472646,0.00014174676017023695
-0.46928984950645825,-0.46928984950645825,1.0000887909513294,0.00012622951355557044
-0.46917666192457547,-0.46917666192457547,1.0000180070291418,0.00013593430524417137
