time,time,flux,flux_err
-0.49990318344619783,-0.49990318344619783,1.0000570266366957,0.00013209346060028871
-0.4997465484787729,-0.4997465484787729,0.9999265750147571,0.00013370465367504018
-0.4996489808851038,-0.4996489808851038,1.0000753215741522,0.00012275847279036992
-0.4995343971080729,-0.4995343971080729,1.0000319727366616,0.00012274883713789855
-0.49944145005720203,-0.49944145005720203,0.9999676253336949,0.00012069437675121591
-0.4993434247167897,-0.4993434247167897,0.9999415324123989,0.00012011865578207136
-0.49923749068329926,-0.49923749068329926,1.0000049883487077,0.00012384495091644722
-0.499133947968221,-0.499133947968221,1.0000941988543555,0.00011888333558012878
-0.49904238143135443,-0.49904238143135443,1.0000333033369586,0.00012081659774065765
-0.498942199969315,-0.498942199969315,1.0001275934967724,0.0001216609288653671
-0.49884935494555976,-0.49884935494555976,0.9999152831937341,0.00012127117772706441
-0.4987969354231609,-0.4987969354231609,1.0000119241768042,0.00012037697451005611
-0.4986843103448336,-0.4986843103448336,0.999900971405616,0.00012190129602142963
-0.49856433466629824,-0.49856433466629824,0.9999380045221319,0.00012194599094292002
-0.49846208455855956,-0.49846208455855956,0.9999439421938605,0.00012183611309203414
-0.4983819253196998,-0.4983819253196998,1.0000492967815078,0.0001203785198562274
-0.4982484559775912,-0.4982484559775912,0.999950113521173,0.00012179635748964138
-0.4981333198782522,-0.4981333198782522,0.9999033984465988,0.00012000904303426593
-0.49801110265616444,-0.49801110265616444,0.9999356533828762,0.00011867121839022476
-0.497915920446394,-0.497915920446394,0.9999091240810449,0.00011978733704884475
-0.49777557861307287,-0.49777557861307287,1.0002449357831025,0.00012108268664492763
-0.4976436496588576,-0.4976436496588576,1.0000249996788577,0.000119736028676909
-0.49754890472686386,-0.49754890472686386,1.0000080518919376,0.00011981925007546351
-0.49741764171994873,-0.49741764171994873,1.0000429519536262,0.00012306089842783924
-0.4973143782321131,-0.4973143782321131,0.9999470387676344,0.00012282975983144188
-0.4972034648555564,-0.4972034648555564,0.9999796629412929,0.00012206698672597569
-0.4971063076860446,-0.4971063076860446,0.9998473256826597,0.00012084180121017659
-0.49701729429871194,-0.49701729429871194,1.0000382429028802,0.00012170988770244173
-0.49690039248453105,-0.49690039248453105,0.9998451266935817,0.00012090475152027181
-0.4967910392966587,-0.4967910392966587,0.9998834692647682,0.00011952324076883173
-0.49668163143869604,-0.49668163143869604,1.0000737436921274,0.00012108609621807524
-0.4965400105138542,-0.4965400105138542,0.9999822104242881,0.00011700926945551295
-0.49645097407337746,-0.49645097407337746,0.9998632947851348,0.0001265592501032043
-0.49635840678602106,-0.49635840678602106,0.999932059023686,0.00012522565789293362
-0.49624049550548077,-0.49624049550548077,1.0000392666402358,0.00012108285350380189
-0.4961079229709867,-0.4961079229709867,0.9999528707008428,0.00011910353065278137
-0.4960085569815419,-0.4960085569815419,0.9998088948601026,0.00012029753185817998
-0.49589274010504597,-0.49589274010504597,0.9999904372996216,0.00012017326498794995
-0.4957788547384553,-0.4957788547384553,0.9999371451916472,0.00012015322775039599
-0.49568551366610336,-0.49568551366610336,1.0000756259744903,0.00011890016699931641
-0.49559187996637777,-0.49559187996637777,1.0000121266261928,0.0001206274781744058
-0.49548676939230063,-0.49548676939230063,1.000024247322271,0.00012271403862794666
-0.4953746132370725,-0.4953746132370725,1.0000063199238753,0.0001197664478887683
-0.49524877042713344,-0.49524877042713344,1.0000784069699782,0.00012009280036371373
-0.4950976424268447,-0.4950976424268447,0.9999566007979286,0.00012047082092527745
-0.49497242601864855,-0.49497242601864855,1.000096134530335,0.00012072795220365747
-0.49482577909730024,-0.49482577909730024,1.000075028573066,0.0001208578440902846
-0.49472500670162844,-0.49472500670162844,1.0001288578965526,0.00011942232759616438
-0.4946094957354944,-0.4946094957354944,0.9999873495257037,0.00012068791252915663
-0.494487590942299,-0.494487590942299,1.00011385427356,0.00012059553803842758
-0.4943695298708917,-0.4943695298708917,1.0000344770913843,0.00011952520130466425
-0.49424313410927423,-0.49424313410927423,0.9998703568989324,0.00012013831749403174
-0.494144027508446,-0.494144027508446,1.0000854480575032,0.00011956297368990341
-0.4940167140244739,-0.4940167140244739,1.0000066720092153,0.00012097917151128099
-0.49390631160931664,-0.49390631160931664,0.9999335417422041,0.00011870673107850592
-0.4937658391085279,-0.4937658391085279,1.0001119627978963,0.00011981820447058269
-0.4936652971802687,-0.4936652971802687,1.0001074520339273,0.0001200651494908479
-0.4935114549152786,-0.4935114549152786,0.9998887120014534,0.00012664503945789208
-0.49325528462868534,-0.49325528462868534,0.9999921619165921,0.00011858824824321868
-0.4929769531947386,-0.4929769531947386,0.9997916413276418,0.0001188492329198079
-0.492805042580585,-0.492805042580585,0.9999559212560254,0.00011927328231155119
-0.4926270314470457,-0.4926270314470457,1.0000208029743374,0.00012014293457127528
-0.49249216515672745,-0.49249216515672745,1.000039230775394,0.00012332878597787937
-0.4923062527581351,-0.4923062527581351,0.9999597506238873,0.00012255113112872532
-0.49218815931963034,-0.49218815931963034,1.000336512152281,0.00012142522551153669
-0.49204946010795536,-0.49204946010795536,0.9999457643275281,0.00012243442294471895
-0.4919378075210261,-0.4919378075210261,0.9997885056955196,0.00012013716420449956
-0.4918462322886626,-0.4918462322886626,0.9997769648597978,0.00012036455245417898
-0.49168216945035964,-0.49168216945035964,1.0001025911799493,0.00012258521792248288
-0.49158466148510344,-0.49158466148510344,1.0001566652986793,0.00011816862790219641
-0.49145939983500286,-0.49145939983500286,1.0000758097571292,0.00012228748323081957
-0.49136852958909005,-0.49136852958909005,1.0000449753310234,0.00011726191429366247
-0.4913156048329256,-0.4913156048329256,1.0000130399728533,0.00012359961523099322
-0.4911601288440579,-0.4911601288440579,1.000056949557441,0.0001192697469578998
-0.49108630289993016,-0.49108630289993016,1.0001023831183016,0.00012017433453701233
-0.4910043470175879,-0.4910043470175879,1.0000737123949919,0.00012065285904826805
-0.49089100485653037,-0.49089100485653037,1.000006560673027,0.00011914278241615956
-0.4907839574974787,-0.4907839574974787,1.0000156787172327,0.00011871982434643244
-0.4906063679452927,-0.4906063679452927,1.0002293239172482,0.00011926113521453394
-0.49046464269122225,-0.49046464269122225,1.000187506715582,0.0001195353390512336
-0.49033753845142203,-0.49033753845142203,0.9999446943782855,0.00011842016605024142
-0.4902515118352312,-0.4902515118352312,1.0000205170219707,0.00011988890834957264
-0.4901451808742422,-0.4901451808742422,0.999877861569251,0.00012104349428834189
-0.4900541173941747,-0.4900541173941747,0.9999684334138988,0.00012154707251672345
-0.48992340424156283,-0.48992340424156283,0.9998661587651252,0.00012280673913852262
-0.4898013636178803,-0.4898013636178803,0.999939031413458,0.0001229126495189295
-0.4897028407365724,-0.4897028407365724,1.0001889613455568,0.00012113347758264087
-0.48962435326029663,-0.48962435326029663,0.9998767555910956,0.0001233285702122552
-0.48950677611355786,-0.48950677611355786,1.0001266491240837,0.000120827810065659
-0.4894019814375497,-0.4894019814375497,0.9999066728420051,0.00012261632816347858
-0.48930123541722426,-0.48930123541722426,0.999959489785984,0.0001230287632417048
-0.48919719179903043,-0.48919719179903043,1.0001296785524683,0.00012245075980539855
-0.4890811740027857,-0.4890811740027857,1.000061106160804,0.0001243106505416111
-0.4889847001344606,-0.4889847001344606,1.0000341323474258,0.00012271818482889596
-0.48886206347306144,-0.48886206347306144,0.9998508554745602,0.0001225549913192218
-0.4887481100100558,-0.4887481100100558,0.9999577920390003,0.00012395481004609006
-0.4886319547207677,-0.4886319547207677,1.0001866820482803,0.00012129400714601339
-0.4885537233189098,-0.4885537233189098,1.0002905553026753,0.00012025382669672967
-0.4884696019566036,-0.4884696019566036,0.9999790914126863,0.00012542860802241778
-0.48835445360018637,-0.48835445360018637,0.9998031179531333,0.00012359083115900078
-0.4882380798808299,-0.4882380798808299,1.0000851173497949,0.0001210713141345495
-0.4881558514367498,-0.4881558514367498,0.9999976132401442,0.00012385671160052456
-0.4880620325369819,-0.4880620325369819,1.0001475175580143,0.00012126251993239872
-0.48798995731631295,-0.48798995731631295,0.9999447970640679,0.00012456423907755555
-0.48787416241830217,-0.48787416241830217,0.9999540425410085,0.00011928529755835169
-0.4876862344244728,-0.4876862344244728,1.0001595428881829,0.00011838405585978258
-0.4874491700640647,-0.4874491700640647,0.9999747602574566,0.00011818745671798236
-0.4873549879186612,-0.4873549879186612,1.0000010756099418,0.00012027050390319986
-0.48724187866100693,-0.48724187866100693,1.0000765646659886,0.00012077019787801032
-0.48712077545860666,-0.48712077545860666,1.0002260078690262,0.00012531216789894267
-0.487020066826517,-0.487020066826517,0.9999229404361165,0.00012124951105901845
-0.48693085952399995,-0.48693085952399995,1.0000816617077226,0.00012785219456492168
-0.48680047927337,-0.48680047927337,0.9998467168546297,0.00012387010474149173
-0.4866840674127161,-0.4866840674127161,0.9998799916468476,0.00012557464638250746
-0.48653909795903016,-0.48653909795903016,0.9999980640411763,0.00012301558457043703
-0.48643499445024646,-0.48643499445024646,1.0001084887584832,0.0001240956229786584
-0.48633115021148116,-0.48633115021148116,1.000101260134159,0.00012400450861565983
-0.48622274735826065,-0.48622274735826065,1.0000483249501202,0.0001254606375997936
-0.4860950179005158,-0.4860950179005158,1.0001859954333212,0.00012369600154222445
-0.48598177855747055,-0.48598177855747055,1.0001361182027473,0.0001240300196921571
-0.48588230840396135,-0.48588230840396135,0.9998118296199848,0.00012381284990443245
-0.48578044414462057,-0.48578044414462057,0.9998633941420385,0.00012406526600990039
-0.4856479476897221,-0.4856479476897221,0.9997678585139118,0.00012343345551672674
-0.4855639938992681,-0.4855639938992681,1.0000092060851946,0.0001233031386083312
-0.4854398661700543,-0.4854398661700543,1.0002326267155743,0.0001251322450226243
-0.48533127000628157,-0.48533127000628157,0.9998953708956686,0.00012320991785379963
-0.485266112699901,-0.485266112699901,0.9998283270984667,0.0001229025268530515
-0.48517913332398166,-0.48517913332398166,0.999854927343747,0.0001232744027795379
-0.4850851248695108,-0.4850851248695108,0.999981115149529,0.00012565526388151298
-0.4849535450739495,-0.4849535450739495,0.9997620315719639,0.00012358746948269226
-0.4847862829366932,-0.4847862829366932,1.0000910597418158,0.00012085166717277946
-0.484643349149701,-0.484643349149701,0.9998278017126779,0.00012008198950997986
-0.48446036238601664,-0.48446036238601664,0.9998513575537556,0.00012153949404706758
-0.4843106808802986,-0.4843106808802986,1.0001012747168958,0.000121930435982981
-0.48415430433451545,-0.48415430433451545,1.0000651691168387,0.00012532465652605063
-0.4840460838444415,-0.4840460838444415,1.0001803565234864,0.00012282165356496583
-0.48393647255361427,-0.48393647255361427,1.0001761738421597,0.00012243638312331906
-0.4838320979717537,-0.4838320979717537,0.9999438034823351,0.0001220618045475358
-0.4837358431548637,-0.4837358431548637,1.0001375694122114,0.00012151401403493814
-0.48361974882209324,-0.48361974882209324,0.9998926653114861,0.00012333465869562697
-0.4834901853260817,-0.4834901853260817,0.9999885000583519,0.00012140362008581233
-0.4834074742488156,-0.4834074742488156,0.9999226599322606,0.0001208408304228697
-0.4832834170396382,-0.4832834170396382,1.000205460989765,0.00012232769826619672
-0.483148158131371,-0.483148158131371,0.9999994670969785,0.00012260131797470564
-0.4829723201219167,-0.4829723201219167,0.9999703056152782,0.00012195151873496118
-0.4828805648292473,-0.4828805648292473,1.0000373602848875,0.00012136179085542269
-0.48277121040664495,-0.48277121040664495,0.9998265501776107,0.00012193139875969286
-0.48263955357833765,-0.48263955357833765,1.0002350596882383,0.00012206240325164243
-0.4825135653729376,-0.4825135653729376,1.0000595311182008,0.00012133082823743174
-0.4824112529560807,-0.4824112529560807,1.0001639493428722,0.00012144014517669406
-0.4823048605649092,-0.4823048605649092,1.0000962548905932,0.00012102763143429068
-0.48222472063425814,-0.48222472063425814,0.999966381832974,0.00012278935123147822
-0.48211651772799086,-0.48211651772799086,1.000064127022695,0.00012154142309726837
-0.4820350203743146,-0.4820350203743146,0.9999624828661527,0.0001212893717387763
-0.4819012529034808,-0.4819012529034808,1.0001067466910272,0.0001231221811296693
-0.48179053777930675,-0.48179053777930675,1.0002432859576462,0.00011879324066680383
-0.48168863809623874,-0.48168863809623874,1.0001118865673784,0.0001225627395275311
-0.48156076968080014,-0.48156076968080014,1.0000678838841508,0.00012122631549065006
-0.48143440826461303,-0.48143440826461303,1.0000704030461478,0.00011909198986566298
-0.4812755368373473,-0.4812755368373473,0.9999012835056261,0.00012055403410792464
-0.48113375252505647,-0.48113375252505647,1.0000037953312781,0.00012229079712225603
-0.48095549860736353,-0.48095549860736353,1.0000329552609106,0.00012195277870374493
-0.48079305826322527,-0.48079305826322527,1.0000226806564168,0.00012185756019482519
-0.4806808772249497,-0.4806808772249497,0.9998873645647077,0.00012209864003132257
-0.4805792705345084,-0.4805792705345084,1.0000831088162854,0.0001229348163568303
-0.4804392120327975,-0.4804392120327975,1.0000785007269104,0.00012305098723894783
-0.48035394643011387,-0.48035394643011387,1.0000556930794535,0.0001199736523194143
-0.48023945637978616,-0.48023945637978616,1.000174368056897,0.00012050667973923499
-0.48014274144297814,-0.48014274144297814,0.9999991475121581,0.00012311061816954803
-0.4800158595986431,-0.4800158595986431,1.0001945462934618,0.00012205002502508218
-0.479941937586409,-0.479941937586409,1.0000589521817573,0.00012316587474011476
-0.479832887359953,-0.479832887359953,1.0002774165061847,0.00012367319265264173
-0.47976492673624305,-0.47976492673624305,1.0001420637735006,0.00011906839706623752
-0.47965297478949653,-0.47965297478949653,1.0001031066504595,0.00012092786739845622
-0.47954307407926533,-0.47954307407926533,1.0000187015007633,0.00012229435161132876
-0.47941776256047886,-0.47941776256047886,0.9999739586601104,0.00012247286001108355
-0.47931597268761833,-0.47931597268761833,0.9999566261460886,0.00012015170061448785
-0.4791314188587421,-0.4791314188587421,0.9999434790615357,0.00012302455170063
-0.4789877763665572,-0.4789877763665572,1.0001581886162374,0.00011966891498895523
-0.4788691454865329,-0.4788691454865329,1.0000082398545591,0.00012323919206492573
-0.47874645962801876,-0.47874645962801876,0.9999308617209313,0.00012389617632092446
-0.4786251529592846,-0.4786251529592846,1.0000313751806624,0.00011894473888026131
-0.4785507294160197,-0.4785507294160197,1.0000780969760505,0.00012201018454806771
-0.4784235643724969,-0.4784235643724969,1.0001758078800624,0.00012039219958355893
-0.4783521188692248,-0.4783521188692248,0.9999681977235172,0.00012065260358803968
-0.4782697243434086,-0.4782697243434086,1.0000056774512451,0.00012338569688987046
-0.47817057820793707,-0.47817057820793707,0.9999562117858147,0.00011890709282135362
-0.47808072279585756,-0.47808072279585756,1.000150358267407,0.0001224832759776725
-0.47795990257727683,-0.47795990257727683,0.9999504361434537,0.00012213581297762253
-0.4778544427965244,-0.4778544427965244,1.0000139715307126,0.00012140302088181909
-0.4777567755139899,-0.4777567755139899,0.9999891871002529,0.00012060776654428229
-0.47765781869748025,-0.47765781869748025,0.9999229708087259,0.00012156058826320086
-0.4775481736076472,-0.4775481736076472,1.0001147169769036,0.00012204473411617646
-0.4774247388842923,-0.4774247388842923,0.9998787947531522,0.00012124335757829626
-0.4773031637756503,-0.4773031637756503,0.9998395947502076,0.00011980172280892542
-0.4771742442964751,-0.4771742442964751,0.999998570619806,0.00012149085697256864
-0.47703291350917426,-0.47703291350917426,1.0001204850379322,0.00012110019641449472
-0.4769251016929047,-0.4769251016929047,0.9999331343076872,0.00011879022244552014
-0.476813810839667,-0.476813810839667,1.0000118601884678,0.00012094502335913325
-0.47666555265750504,-0.47666555265750504,1.0001430305937595,0.00012446179951982773
-0.47659341609105466,-0.47659341609105466,0.9999608689657536,0.00011876757078671158
-0.4765008341608336,-0.4765008341608336,1.0000017556390657,0.00012285397583896305
-0.4764103330700891,-0.4764103330700891,0.9998176149824035,0.00012144459683046092
-0.47633193461369955,-0.47633193461369955,0.9998640682842366,0.00012188338297701882
-0.4762371275537589,-0.4762371275537589,0.9999978359725581,0.00012170866016347463
-0.47613882599398494,-0.47613882599398494,0.999825647174033,0.00011990251438299118
-0.47604500140441813,-0.47604500140441813,0.9999662962872989,0.00012214829361619224
-0.4759775755359442,-0.4759775755359442,0.9999597989624291,0.00011899110014913631
-0.4758864336865372,-0.4758864336865372,1.0001274208807578,0.00012263872949741492
-0.4757508388232964,-0.4757508388232964,0.9999495616775945,0.00011994348930698473
-0.4756547404474986,-0.4756547404474986,0.9999517602732165,0.00012026367972865376
-0.47550683413646766,-0.47550683413646766,1.0002684290315504,0.00012360391386770573
-0.4753941278657294,-0.4753941278657294,0.9998681946207488,0.00011924785206953916
-0.47527952474483753,-0.47527952474483753,1.0001013895434654,0.00012031957007309409
-0.475157054974261,-0.475157054974261,1.0000487548056616,0.00012055152690512499
-0.4750632838156889,-0.4750632838156889,1.0000614158292802,0.00011944184221394851
-0.47492266966874014,-0.47492266966874014,1.0002256273687125,0.00012399184725790308
-0.47480748826565106,-0.47480748826565106,1.0000457235359865,0.0001224276291493588
-0.4746933712543978,-0.4746933712543978,1.0001130138732797,0.00011942653297889788
-0.474600174355146,-0.474600174355146,0.9999083682923524,0.00011900204025675255
-0.47446938632201635,-0.47446938632201635,1.0000212440705416,0.00012021978509168807
-0.4743533038403257,-0.4743533038403257,1.0000313078111973,0.00012042741427184117
-0.47425820125645257,-0.47425820125645257,0.9999485890911742,0.00011956502230996157
-0.4741062605397019,-0.4741062605397019,0.9999479539812668,0.00012050675961709195
-0.47401497585888136,-0.47401497585888136,1.0000566855954014,0.00012029188121780602
-0.4739104700827738,-0.4739104700827738,1.0001593963157158,0.00011955655611337165
-0.4737806808720052,-0.4737806808720052,1.000092776231695,0.00011976565378765019
-0.4736981354035379,-0.4736981354035379,0.9999606591302868,0.00011900374272048101
-0.47359008237472155,-0.47359008237472155,1.0000076485588496,0.00012070549180953013
-0.4734805797015724,-0.4734805797015724,0.9999052918100029,0.00011983521798271534
-0.47339769051541225,-0.47339769051541225,1.0000189303002114,0.00011900382625750557
-0.4732935476786224,-0.4732935476786224,0.9998686285951937,0.000120571546587452
-0.4731974170674221,-0.4731974170674221,0.9998980867960251,0.00011844439559887158
-0.4731250892255048,-0.4731250892255048,0.9999710095157857,0.00011985993368591793
-0.47301324338186534,-0.47301324338186534,1.000058632318849,0.00011936159488962166
-0.47292163608653937,-0.47292163608653937,1.0000857127016005,0.00011948707213183444
-0.47277694041622453,-0.47277694041622453,1.0000718576563083,0.0001254962154278975
-0.47255352458087146,-0.47255352458087146,1.0000507792775015,0.00011709777836776618
-0.47238252430033756,-0.47238252430033756,0.9999539311408734,0.00012077373012314324
-0.4722163583981455,-0.4722163583981455,1.0001060634855503,0.0001188661106639342
-0.47193594814743844,-0.47193594814743844,0.9996972649368739,0.00012017259948332102
-0.4717647319586831,-0.4717647319586831,1.0000718598780354,0.0001187523620634261
