time,time,flux,flux_err
-0.49994176619220526,-0.49994176619220526,1.0000240459558885,9.072314026568586e-05
-0.4998431334955967,-0.4998431334955967,1.0000320895326462,9.12771668729197e-05
-0.49973291989736024,-0.49973291989736024,0.9999872943847474,9.032509732163899e-05
-0.49962228962540395,-0.49962228962540395,0.9999906819083613,8.407623981404445e-05
-0.4995401401349227,-0.4995401401349227,1.0000262359541823,8.509116911059908e-05
-0.4994314822877641,-0.4994314822877641,1.0001506510666107,8.826145262025096e-05
-0.49922901863465086,-0.49922901863465086,1.0000365848909678,8.595745581621243e-05
-0.4991577107241028,-0.4991577107241028,1.000086675256282,8.415853209610092e-05
-0.4990348687191727,-0.4990348687191727,0.9999672875371066,8.49607663021077e-05
-0.49895733538578496,-0.49895733538578496,1.0000897989507456,8.677026814880519e-05
-0.4989014875871362,-0.4989014875871362,0.9999828320002837,8.71066193450842e-05
-0.4987993609436671,-0.4987993609436671,1.0000337729951179,9.068131137219986e-05
-0.4986845268504112,-0.4986845268504112,1.00010597321242,8.612546807510978e-05
-0.4985461831223802,-0.4985461831223802,0.9999307339850038,8.298705216750534e-05
-0.4983068023153464,-0.4983068023153464,1.0000733638552552,8.737042605385799e-05
-0.4980984415044077,-0.4980984415044077,1.0002203657795217,8.736674179980111e-05
-0.49791877458337697,-0.49791877458337697,0.9999562942472622,9.391701469209966e-05
-0.497726677339233,-0.497726677339233,0.999985265231067,8.433355500951424e-05
-0.4975718519053771,-0.4975718519053771,0.9999470937037938,8.668383098177567e-05
-0.4974219690528116,-0.4974219690528116,1.0000887322931207,8.759630033808365e-05
-0.4973431302132667,-0.4973431302132667,0.99994937365,8.439136429255277e-05
-0.4971849848196143,-0.4971849848196143,0.9999753486412027,8.869157249771194e-05
-0.4971042448640219,-0.4971042448640219,1.000028160766637,9.066104631886365e-05
-0.4970265786498203,-0.4970265786498203,1.0002032043827374,9.393999183148459e-05
-0.4968989500630414,-0.4968989500630414,1.0000331291129005,8.54654343660984e-05
-0.49683050107851157,-0.49683050107851157,0.9999369339626147,8.452325715656998e-05
-0.4967049857004895,-0.4967049857004895,1.0001449921562977,8.54402301872636e-05
-0.49651288051099984,-0.49651288051099984,1.0000853529833456,8.72637902460792e-05
-0.4963955305836862,-0.4963955305836862,1.0000435646564665,8.601190185373347e-05
-0.49631867717107525,-0.49631867717107525,0.9999774979495009,8.489687191185307e-05
-0.4962673372327117,-0.4962673372327117,0.9999887502384699,8.560097312119455e-05
-0.49619347630796257,-0.49619347630796257,1.0000389574087192,8.648343676909671e-05
-0.49608086096995974,-0.49608086096995974,0.9998947817506577,8.611161336826418e-05
-0.49597833444568096,-0.49597833444568096,1.000009953057585,8.801229307967134e-05
-0.495895801691222,-0.495895801691222,0.9999738395891644,8.869222422530934e-05
-0.4957541676412802,-0.4957541676412802,0.9998796484651052,8.618545331565936e-05
-0.49564715911983515,-0.49564715911983515,1.0000520327585576,8.974233876778391e-05
-0.495540448364045,-0.495540448364045,0.9999771240717547,8.97817719935282e-05
-0.49550645989365877,-0.49550645989365877,1.0000875994662153,8.993980179340616e-05
-0.4954644879791886,-0.4954644879791886,1.0000689309967057,9.511085355951398e-05
-0.49540625892113893,-0.49540625892113893,0.9999824777496673,8.387035880903687e-05
-0.49528366668964735,-0.49528366668964735,1.00002518082585,9.166088815487095e-05
-0.4951187573111383,-0.4951187573111383,0.9999892951159325,8.443891305243408e-05
-0.4949909090602887,-0.4949909090602887,1.0000835840959117,8.443114071457769e-05
-0.4949169419138343,-0.4949169419138343,1.0000699524653112,8.677088452535456e-05
-0.4948297769165947,-0.4948297769165947,1.0000102602015448,8.450761051387492e-05
-0.4947422982644639,-0.4947422982644639,0.9999270673705685,8.403446280814608e-05
-0.4946421753629693,-0.4946421753629693,1.000024747078767,8.645853368989972e-05
-0.49452812618401365,-0.49452812618401365,0.9999020888481791,9.20865062184872e-05
-0.494434539975191,-0.494434539975191,1.0001129077899142,9.54844190469107e-05
-0.4943396970484173,-0.4943396970484173,0.9999281148314074,9.061316068198305e-05
-0.49422904168168313,-0.49422904168168313,1.0001512558133592,9.089918362508755e-05
-0.4940908299686271,-0.4940908299686271,1.0000446723704925,8.556493838971952e-05
-0.49394622534018706,-0.49394622534018706,1.0000634483456319,9.08890924222535e-05
-0.49379537513304966,-0.49379537513304966,0.9998270805533279,9.560966988914925e-05
-0.49363339199626355,-0.49363339199626355,1.000033022721667,8.795597260212867e-05
-0.49351178114593497,-0.49351178114593497,1.000084565676516,8.37154822113587e-05
-0.4933929977254593,-0.4933929977254593,0.9998886882911415,8.47135705111119e-05
-0.4932839344619424,-0.4932839344619424,1.0000638384848628,8.632151182916449e-05
-0.49318171896302376,-0.49318171896302376,1.0001965210825383,8.525464463415337e-05
-0.4930402896119631,-0.4930402896119631,1.0000145803279847,8.581181031140624e-05
-0.49284130348387406,-0.49284130348387406,1.0000385747012683,8.592407344045955e-05
-0.49264906451280693,-0.49264906451280693,1.0000772206008484,8.68174234790027e-05
-0.4925240841752384,-0.4925240841752384,1.0001012523585486,9.403947255182803e-05
-0.4924135877387016,-0.4924135877387016,1.0000239100947197,9.100406149495056e-05
-0.49233325151290047,-0.49233325151290047,1.000147599367653,9.055421093680193e-05
-0.49222404581378215,-0.49222404581378215,1.000053237712171,8.938260299874958e-05
-0.4921299622990773,-0.4921299622990773,1.0000190493845327,8.519927314879587e-05
-0.4919650916592218,-0.4919650916592218,0.9999188521256478,8.979115912571875e-05
-0.4918891935332795,-0.4918891935332795,1.0000254524327454,8.391132307481708e-05
-0.4917791799263796,-0.4917791799263796,1.0000724296950032,9.136638243342914e-05
-0.4916935185858165,-0.4916935185858165,0.9999279999597004,8.89121760959076e-05
-0.4916254022362409,-0.4916254022362409,1.0000296603376644,8.40950436212984e-05
-0.4915537464155932,-0.4915537464155932,0.9999455332431566,8.715258175443606e-05
-0.49147620936273595,-0.49147620936273595,1.0000342309105164,8.78568496747917e-05
-0.4913860223896336,-0.4913860223896336,1.0000305675247356,8.939596986913354e-05
-0.4912860398515477,-0.4912860398515477,1.0001025059417983,8.443973246072166e-05
-0.49120280399656624,-0.49120280399656624,1.0000571845423545,8.967251640564462e-05
-0.4911226373835234,-0.4911226373835234,1.000052179218779,8.498002188407069e-05
-0.4909652759830351,-0.4909652759830351,0.9999929841824731,8.818426112415064e-05
-0.4908531174631207,-0.4908531174631207,0.9998703761922261,8.654264728470586e-05
-0.4907789931501611,-0.4907789931501611,0.999942266506619,8.64773010765174e-05
-0.4907008312191465,-0.4907008312191465,0.9999634675170602,9.053161817420658e-05
-0.49059219831979134,-0.49059219831979134,0.9999564720319961,8.77512233746073e-05
-0.49053717003989733,-0.49053717003989733,0.9999711820759671,8.634167053598335e-05
-0.49025674803706354,-0.49025674803706354,0.9998813515329463,8.636222306602737e-05
-0.49005996606865665,-0.49005996606865665,0.9999740652354131,8.888090328373503e-05
-0.4898580382228829,-0.4898580382228829,1.000032642452442,9.5257983795251e-05
-0.4896672540824511,-0.4896672540824511,1.0001463824284147,8.610287870189245e-05
-0.48955351153126686,-0.48955351153126686,0.9999506957162481,9.042407288090216e-05
-0.4894268489384558,-0.4894268489384558,1.0002545328629338,8.62319318918618e-05
-0.48935473268211355,-0.48935473268211355,1.0001837553595359,8.455009792553168e-05
-0.4892344405467156,-0.4892344405467156,0.9999222118972486,8.50364748297853e-05
-0.48908180799335244,-0.48908180799335244,1.0000560458225383,9.508864931023134e-05
-0.48901807121001184,-0.48901807121001184,0.9999698584351717,9.372364807441725e-05
-0.4889137862352072,-0.4889137862352072,0.9999731525273452,8.752370377223852e-05
-0.48877113508206094,-0.48877113508206094,0.9999519148938075,8.666962012731839e-05
-0.4886419429079979,-0.4886419429079979,0.9999389898186919,8.65608548625776e-05
-0.4885379672225099,-0.4885379672225099,0.9999829337928599,8.398775102103537e-05
-0.48841764090611833,-0.48841764090611833,1.000063677598272,8.550355461130127e-05
-0.48831850468122867,-0.48831850468122867,1.0000614396680292,8.488099684724796e-05
-0.4882255766409799,-0.4882255766409799,0.9998324881418167,8.582869193864099e-05
-0.4881626552349189,-0.4881626552349189,1.0000444330655793,9.007930961318256e-05
-0.48807249299716204,-0.48807249299716204,0.9999730399075695,8.962971550898681e-05
-0.4879914846707834,-0.4879914846707834,1.000034461666716,8.582463415680562e-05
-0.48782254081597787,-0.48782254081597787,1.0000060848783234,8.442094552284837e-05
-0.48769852617260767,-0.48769852617260767,0.9999650301269565,8.898059340925463e-05
-0.4875442204327555,-0.4875442204327555,0.9998896856576142,9.263120962386475e-05
-0.48746912537753817,-0.48746912537753817,0.9998751183024078,8.595579039299392e-05
-0.48741639296640643,-0.48741639296640643,1.0001063791817042,9.445373386611367e-05
-0.4873769607715076,-0.4873769607715076,0.9998949585480185,9.00566078474148e-05
-0.48729131895524913,-0.48729131895524913,0.9999234283832109,8.472861074523133e-05
-0.48721985348965974,-0.48721985348965974,1.0000969430412545,8.999393572200555e-05
-0.4870845011915662,-0.4870845011915662,1.0002329776488992,8.817782917232507e-05
-0.48692474254639817,-0.48692474254639817,0.9999752878484823,8.556020397948403e-05
-0.4868501846984145,-0.4868501846984145,1.0000766012642575,8.688085366847394e-05
-0.48679437413957205,-0.48679437413957205,0.9999067421556586,8.916434128572848e-05
-0.48670877449185357,-0.48670877449185357,0.9999809440641076,8.490686729891281e-05
-0.48662633195199306,-0.48662633195199306,0.999917950294515,8.690576334311364e-05
-0.48654835968336557,-0.48654835968336557,1.0000241139807984,8.783204307922813e-05
-0.4863922612654278,-0.4863922612654278,1.0000359449106193,9.371583302820065e-05
-0.4862856646272121,-0.4862856646272121,1.0001206868067414,9.085875963188051e-05
-0.4860884910536697,-0.4860884910536697,0.9999944090617966,8.764453163248833e-05
-0.4859678543230984,-0.4859678543230984,0.9999497785378605,8.548042785147406e-05
-0.4858743202392361,-0.4858743202392361,1.0000613217207017,9.006355319728203e-05
-0.48576856438157845,-0.48576856438157845,1.0000866572835125,8.901126678662436e-05
-0.48564492368750506,-0.48564492368750506,0.9999801720814707,8.5120706938861e-05
-0.4853939850057941,-0.4853939850057941,0.9999819720510711,8.6869104656522e-05
-0.4851744776882697,-0.4851744776882697,1.0001690649707962,8.616278073592593e-05
-0.48511392686195903,-0.48511392686195903,1.0000365943939364,8.666494177136438e-05
-0.4850542963962653,-0.4850542963962653,1.0001903177043048,8.596295609284803e-05
-0.48492781047680183,-0.48492781047680183,1.0000743166507635,9.053969369703115e-05
-0.4847862307797186,-0.4847862307797186,0.9998623331105485,8.54930460360688e-05
-0.48447924475040055,-0.48447924475040055,1.000091791183144,8.927200221370793e-05
-0.48436321311892244,-0.48436321311892244,0.9999507439963635,9.00461434486744e-05
-0.48425995449069886,-0.48425995449069886,1.000016312208009,9.065799523162962e-05
-0.4841893613469438,-0.4841893613469438,0.9999095741287277,8.568163913586814e-05
-0.48409359900688287,-0.48409359900688287,1.0001412884462126,9.030390093008937e-05
-0.4840041188406758,-0.4840041188406758,0.999900685996456,8.755763888799874e-05
-0.48392101233184803,-0.48392101233184803,0.9998853562336674,8.873077580744732e-05
-0.4838032143903547,-0.4838032143903547,1.0002161480625016,9.428542709220345e-05
-0.48365752966783476,-0.48365752966783476,0.9999967260443633,9.326637367268672e-05
-0.48357681516499723,-0.48357681516499723,1.0000143929104994,8.502493840270952e-05
-0.4835328827015474,-0.4835328827015474,1.0000900798710624,8.568815898725642e-05
-0.48342120761953994,-0.48342120761953994,1.0001883542640422,8.459530999966907e-05
-0.483324630378047,-0.483324630378047,1.0000271565701058,8.486825724669049e-05
-0.48321232845628403,-0.48321232845628403,0.9999868564212667,8.584759371292136e-05
-0.48305153811961643,-0.48305153811961643,1.0000066215065737,8.652497046549867e-05
-0.4829855235017021,-0.4829855235017021,0.9999211261284919,8.580518082798798e-05
-0.48290709390857955,-0.48290709390857955,1.000099985561676,8.436197073986001e-05
-0.48280746843811356,-0.48280746843811356,0.9999539075476273,8.501278042549307e-05
-0.48267951693123906,-0.48267951693123906,0.9999466793976055,9.079448579461181e-05
-0.4825766273017507,-0.4825766273017507,0.9998448474009513,8.581409345586463e-05
-0.48251788909838067,-0.48251788909838067,1.0001137388492496,8.983357965372153e-05
-0.4823577051749453,-0.4823577051749453,1.000034204566258,8.904242896123476e-05
-0.4821688399242703,-0.4821688399242703,1.000055925890977,8.714063021403226e-05
-0.4820326416316675,-0.4820326416316675,1.0000205684144472,9.038586378409526e-05
-0.4817813339352142,-0.4817813339352142,1.000076729175137,8.944553537967803e-05
-0.4816723454292514,-0.4816723454292514,1.0000513229636039,8.513854386642969e-05
-0.4815196027586353,-0.4815196027586353,1.000246245459925,8.748894132432716e-05
-0.4813711863011122,-0.4813711863011122,1.0000394103857078,8.664918405965672e-05
-0.4812584930434241,-0.4812584930434241,1.0000391215777251,8.708250916928889e-05
-0.48114232381049077,-0.48114232381049077,0.9999627610235837,8.720494072093728e-05
-0.4810299478966044,-0.4810299478966044,0.9999919515615272,8.777531534463767e-05
-0.4809566046023974,-0.4809566046023974,1.0001311443729832,9.30369995365026e-05
-0.48087392874876966,-0.48087392874876966,1.0000399206588413,8.793132007077787e-05
-0.48072508827317506,-0.48072508827317506,1.0002078845975757,8.507180523053301e-05
-0.4805795710810344,-0.4805795710810344,1.0001253361380849,8.669198083634835e-05
-0.48049033793795387,-0.48049033793795387,1.0000190068410804,8.596120227191066e-05
-0.4804067729084636,-0.4804067729084636,1.0000764036775591,8.689746297504901e-05
-0.48025949392758777,-0.48025949392758777,0.9998255753910616,8.64032547851779e-05
-0.4801800704561174,-0.4801800704561174,1.0000250938094384,8.584691819081669e-05
-0.48011862957646373,-0.48011862957646373,1.0000355219438732,8.618010192635062e-05
-0.4800636431493331,-0.4800636431493331,0.9999774949851418,8.522583129137859e-05
-0.4799930258101085,-0.4799930258101085,0.999939910337357,9.125243749807504e-05
-0.47991265036689584,-0.47991265036689584,0.9999771216174554,9.064397333363803e-05
-0.47968762009986676,-0.47968762009986676,1.0001012510600025,8.67372446433454e-05
-0.4795743593553198,-0.4795743593553198,1.000188592095385,9.042853168080231e-05
-0.47942804882331985,-0.47942804882331985,1.0001357895845857,9.00160006019185e-05
-0.4793694536012481,-0.4793694536012481,1.0000568952654227,8.732769852487272e-05
-0.4793332914894563,-0.4793332914894563,0.9998700249460116,9.37033879043383e-05
-0.4792889894844848,-0.4792889894844848,0.999959023696206,9.737206923116552e-05
-0.47918646468169757,-0.47918646468169757,1.0000072313143702,8.504094421614888e-05
-0.47907626946980597,-0.47907626946980597,1.0000369039705528,8.474175963943772e-05
-0.4789372477127472,-0.4789372477127472,1.0001052117457356,8.617859714127148e-05
-0.47879280559718607,-0.47879280559718607,1.000099937596413,8.618747959507521e-05
-0.4787018573057139,-0.4787018573057139,0.9999510430306708,8.499427790960588e-05
-0.4786509339712211,-0.4786509339712211,1.0000323363859414,8.769135367250407e-05
-0.478574273151753,-0.478574273151753,0.9999043823505745,8.582127120759295e-05
-0.47843085561908083,-0.47843085561908083,1.0000963312299949,8.693899561978634e-05
-0.47836273540888213,-0.47836273540888213,1.0000034643924505,9.44099146108639e-05
-0.47824278013722504,-0.47824278013722504,1.0000629308707498,9.069124728531716e-05
-0.4780469408025965,-0.4780469408025965,1.000025207592465,8.886925119994038e-05
-0.47781109599018234,-0.47781109599018234,0.9999275817775392,9.138042621344545e-05
-0.47768767894885966,-0.47768767894885966,0.9999525650650579,9.474824744132521e-05
-0.47753844950784696,-0.47753844950784696,1.0000642718361141,8.382358201755778e-05
-0.47739583706716077,-0.47739583706716077,0.9998714575304868,8.567485720564785e-05
-0.4773187029728433,-0.4773187029728433,1.0001206970767182,8.698419290358741e-05
-0.47716531417827357,-0.47716531417827357,0.9999012994541792,8.4819294007775e-05
-0.4769996053481009,-0.4769996053481009,1.0000995617132729,8.445260657564838e-05
-0.4768417790008243,-0.4768417790008243,1.0000096607978728,8.891833633005009e-05
-0.47668713294988263,-0.47668713294988263,1.000059588952628,8.737237776625249e-05
-0.4765874427132076,-0.4765874427132076,1.00002918014483,8.990634524303657e-05
-0.47646402307000246,-0.47646402307000246,1.0000979755924795,8.697769623058317e-05
-0.47630338500603103,-0.47630338500603103,1.0001237519051778,9.351264861815323e-05
-0.4761348857588018,-0.4761348857588018,1.000100626733319,8.94618826968758e-05
-0.4759840145576163,-0.4759840145576163,0.9999193048638725,8.507980526056792e-05
-0.4758950460862252,-0.4758950460862252,1.0000678324022128,8.412913540823949e-05
-0.47583142408839196,-0.47583142408839196,1.0000974232502258,9.120526562325147e-05
-0.47574008192314066,-0.47574008192314066,1.000026548159777,8.890401257435776e-05
-0.4756205968122231,-0.4756205968122231,1.0000011315158897,9.210825023113043e-05
-0.47552629697602244,-0.47552629697602244,1.000162624057857,8.627829701858962e-05
-0.47547349832893815,-0.47547349832893815,0.9999172518201547,9.063864458935125e-05
-0.4753417635569349,-0.4753417635569349,0.9999829330263512,8.574712229392339e-05
-0.475194138516963,-0.475194138516963,0.9999816843260632,8.786610203442075e-05
-0.4750453900443972,-0.4750453900443972,0.9999587989776616,0.00010120467282254742
-0.4749209718414932,-0.4749209718414932,0.9999881320588233,8.452528657255038e-05
-0.4748487629913143,-0.4748487629913143,1.0000952268861878,8.664827053932335e-05
-0.47469500682200305,-0.47469500682200305,0.9998232844749422,8.76749309032452e-05
-0.47461663055000824,-0.47461663055000824,0.9999897508289581,8.700621985319282e-05
-0.47452254129893845,-0.47452254129893845,1.000012862273102,9.147083937343744e-05
-0.47443720960145586,-0.47443720960145586,1.0000789747297032,8.934755713111741e-05
-0.47415582576650195,-0.47415582576650195,0.9999632611917303,8.612989918421782e-05
-0.4739249348596786,-0.4739249348596786,0.9999986932300597,8.582217464292112e-05
-0.47376094760693377,-0.47376094760693377,0.9998537892269065,9.486180174643061e-05
-0.4735557243475341,-0.4735557243475341,0.9998889973748584,9.081519502479195e-05
-0.47336263686593155,-0.47336263686593155,0.9998037478500803,8.577336064774383e-05
-0.4732637739609345,-0.4732637739609345,1.0000552126791569,8.75903318984644e-05
-0.4731349342429894,-0.4731349342429894,1.0000347251951953,8.34757059619396e-05
-0.47303777654014995,-0.47303777654014995,0.9999770589114905,8.557701398076698e-05
-0.47294079759012675,-0.47294079759012675,0.9999697697293325,9.772934130324879e-05
-0.4728582386422204,-0.4728582386422204,1.0000816348648236,9.437694796000352e-05
-0.47279675264144316,-0.47279675264144316,1.0000462713062626,8.817534771008741e-05
-0.47265908647095783,-0.47265908647095783,1.0000080073022808,8.614431474200914e-05
-0.4725674746223376,-0.4725674746223376,0.9999438220823957,8.342869314756077e-05
-0.472500406501058,-0.472500406501058,1.0000962879968582,8.44376036938787e-05
-0.47236008788459005,-0.47236008788459005,1.000018702041511,8.50550079291675e-05
-0.4722310366618331,-0.4722310366618331,1.000097640524332,8.59948510571895e-05
-0.47213304750912355,-0.47213304750912355,0.99998757147387,8.494405664263923e-05
-0.47209730812028283,-0.47209730812028283,1.0002099530248179,8.580927055024057e-05
-0.4720519435577444,-0.4720519435577444,0.9999391635410161,8.673062556970748e-05
-0.47192550405743533,-0.47192550405743533,1.0001674620326442,8.531387892140879e-05
-0.4718521479589981,-0.4718521479589981,0.999847580711234,8.667688489270351e-05
-0.47176448970567436,-0.47176448970567436,1.0000358380270824,8.71323494914865e-05
-0.47163025103800466,-0.47163025103800466,0.9999839305487812,8.858010038717571e-05
