time,time,flux,flux_err
-0.499865387907145,-0.499865387907145,1.0000473148710816,0.00018249585331124956
-0.49974618746455235,-0.49974618746455235,1.0001739127604283,0.00018082328491171796
-0.4995675103976585,-0.4995675103976585,1.0001080930522586,0.0001849996273762567
-0.49947264372228045,-0.49947264372228045,1.0000146732114574,0.00018642114761155827
-0.49940201927456657,-0.49940201927456657,1.0002872073302085,0.00016771793408585365
-0.49927916433225616,-0.49927916433225616,0.9999133720934141,0.00016289984375770814
-0.49921474592192683,-0.49921474592192683,1.000130713745201,0.00016729562454477096
-0.49913486655568706,-0.49913486655568706,1.0001107395146058,0.00016876653513753993
-0.499025619958411,-0.499025619958411,0.9999768517756126,0.00016726491365769692
-0.4989170523316716,-0.4989170523316716,1.0002617633289148,0.0001663659808330675
-0.4988352096741437,-0.4988352096741437,1.000176712755297,0.00017017112158864767
-0.49875630003080007,-0.49875630003080007,0.9999357832100543,0.000161313343434717
-0.4986854392918758,-0.4986854392918758,1.000093077994327,0.000161575294296757
-0.49862758180534,-0.49862758180534,0.9998678346441933,0.00017225591509743282
-0.49848670532301187,-0.49848670532301187,1.0002026362067344,0.00016722867491863872
-0.4982000358417281,-0.4982000358417281,1.000194452952888,0.00016769155054349318
-0.497817407984985,-0.497817407984985,1.0001760945412657,0.00016784675247131278
-0.49776509865914703,-0.49776509865914703,1.0001348096398146,0.00016282747018360775
-0.49766070609766755,-0.49766070609766755,0.9997858253880919,0.0001632898755014102
-0.49750050006477975,-0.49750050006477975,1.0001900519425482,0.00017346088610412043
-0.49734559623611857,-0.49734559623611857,0.9999559664694339,0.00016781012243120545
-0.4971814097421884,-0.4971814097421884,1.0000783116406324,0.00016489856849098141
-0.4969689615507377,-0.4969689615507377,1.0000906081920728,0.00017630535220502009
-0.49687362550466785,-0.49687362550466785,0.9999641876378306,0.00016007365670527176
-0.4967378902176279,-0.4967378902176279,0.9999285834330749,0.00016956396700958267
-0.4966622548708983,-0.4966622548708983,1.0000775769527754,0.000165116591261566
-0.4965242233651225,-0.4965242233651225,1.0002093384897972,0.00016623470988240562
-0.4963479086887673,-0.4963479086887673,1.000118216220344,0.00016850872435537553
-0.4962233263097005,-0.4962233263097005,0.9999844970151909,0.00016052329566317662
-0.4961660754488548,-0.4961660754488548,0.9998097551884427,0.00016742390292368315
-0.49603085612252473,-0.49603085612252473,1.000147183206433,0.00016888740248425998
-0.4959437213015917,-0.4959437213015917,1.0000880922342215,0.00017774609446122067
-0.49590665800642453,-0.49590665800642453,0.9999688478819859,0.0001732858103174766
-0.4958452074417437,-0.4958452074417437,0.9998420469687485,0.00016419610754505026
-0.49578789356019115,-0.49578789356019115,1.00017175613993,0.00016673992662166582
-0.4957052816178475,-0.4957052816178475,0.9998016767733183,0.000162581149663495
-0.4956081811382319,-0.4956081811382319,1.0002325506149754,0.00016783596709202823
-0.4954935788751754,-0.4954935788751754,0.9997924950476639,0.00016376552042179
-0.49534774697822287,-0.49534774697822287,0.9998449070194712,0.00016830891319030754
-0.49525533396590615,-0.49525533396590615,0.9998532449367203,0.00017315658870598903
-0.4951484412114951,-0.4951484412114951,1.000027088037438,0.00016721583896342796
-0.4950573665140837,-0.4950573665140837,0.9998788482208804,0.00016819933118532798
-0.49494447056204083,-0.49494447056204083,0.9997741047697527,0.00016801437815007041
-0.49479880663056974,-0.49479880663056974,0.9998822178682818,0.00016807256761859255
-0.49459663508605445,-0.49459663508605445,1.0001085903452167,0.00017119958496430754
-0.4943508668606228,-0.4943508668606228,0.9999341441297045,0.00016390578619020676
-0.494230222835904,-0.494230222835904,1.0002433760760403,0.00016586535213961707
-0.4941281812141824,-0.4941281812141824,0.9999537315833047,0.00016123696848368828
-0.4940007844736101,-0.4940007844736101,1.0001159017436922,0.00016644215218394304
-0.4938785028483835,-0.4938785028483835,0.9998003671867275,0.00017678081801377458
-0.49379535482294157,-0.49379535482294157,1.00014760332243,0.00016937768325615967
-0.4936334322905168,-0.4936334322905168,1.0000702552909306,0.00017080102073661302
-0.49348564153187907,-0.49348564153187907,0.999933704136659,0.00017084511200437152
-0.49335478572465946,-0.49335478572465946,1.0002168549010546,0.00016398029255468993
-0.49321882187359734,-0.49321882187359734,0.9998541180228575,0.00016605278913932843
-0.49314122205687455,-0.49314122205687455,1.0001493898264366,0.0001678471766884566
-0.4930087305569032,-0.4930087305569032,1.0001320680885426,0.00017303652394956692
-0.4928808578988537,-0.4928808578988537,1.0001793759915167,0.00017047594076667535
-0.49271292998382704,-0.49271292998382704,0.9996648948514757,0.00016896278630302571
-0.4925813284746255,-0.4925813284746255,1.0000758169803623,0.0001602410784350463
-0.49243151650734945,-0.49243151650734945,1.0003518845313255,0.00016881658174395655
-0.4923613460334309,-0.4923613460334309,1.000164695568445,0.00016563587704923548
-0.49226130309689325,-0.49226130309689325,1.0000961059338676,0.00016672778785459952
-0.49219009066728175,-0.49219009066728175,1.0001084521174621,0.0001643091003878242
-0.4920873663628299,-0.4920873663628299,0.9998340270264373,0.00016654789582240683
-0.4919865162803035,-0.4919865162803035,0.9997440804986375,0.00016349420070929226
-0.49181524282248573,-0.49181524282248573,1.0000508256891207,0.0001622483771750487
-0.4917544677024125,-0.4917544677024125,0.9996428982682218,0.0001682296506404478
-0.49164929921316797,-0.49164929921316797,0.9998753478707483,0.0001709071847845699
-0.49154537804133724,-0.49154537804133724,0.9998998456347195,0.00016295254477424447
-0.4914321496144112,-0.4914321496144112,0.9999639004497519,0.00017333209056319345
-0.4912635549335391,-0.4912635549335391,1.0003067053040726,0.00016921876647582156
-0.49114524525866726,-0.49114524525866726,0.9999767040384018,0.00016755558077928413
-0.4908618672838202,-0.4908618672838202,1.000146906948523,0.00016669225306535225
-0.4907161241710128,-0.4907161241710128,1.0000224335596108,0.00016793979979595305
-0.49057579644504584,-0.49057579644504584,1.0000826521838337,0.00016158053698576036
-0.49051110015425364,-0.49051110015425364,0.999974989397205,0.0001606334469093739
-0.49041676946508234,-0.49041676946508234,0.999918410325099,0.00016576918580764774
-0.49025718722550665,-0.49025718722550665,1.0001058275872226,0.00017236415447640724
-0.4901448260170582,-0.4901448260170582,1.000181628707812,0.00016707377695285942
-0.48996408358580085,-0.48996408358580085,1.0000286265049945,0.00016675535707855123
-0.4898698712873738,-0.4898698712873738,0.9996867583430131,0.00016293863911326308
-0.489723854832846,-0.489723854832846,1.0001699417220133,0.0001691256521959571
-0.4896398224438599,-0.4896398224438599,0.9999239416508843,0.0001643808117201849
-0.489554015873,-0.489554015873,1.0000274871209922,0.0001741812672992484
-0.4894431936911133,-0.4894431936911133,1.0000393886086865,0.00017247766435740528
-0.48934097033125,-0.48934097033125,0.9997259444992403,0.00016672367589811961
-0.48922638735966756,-0.48922638735966756,1.0000308972713863,0.00017265240940408946
-0.4890797826388734,-0.4890797826388734,0.999886444890565,0.00016166103367938796
-0.4889497648407996,-0.4889497648407996,1.0001243699469842,0.00016537657681543226
-0.48882534299918917,-0.48882534299918917,1.000323314082825,0.0001677766269804223
-0.4887628294651222,-0.4887628294651222,1.0001596750174804,0.00016975075655298514
-0.4886749731769669,-0.4886749731769669,1.0000003210311144,0.00016730176994995415
-0.4885590556928946,-0.4885590556928946,1.000105807522709,0.0001675354203402014
-0.48849252350337335,-0.48849252350337335,1.000018218922132,0.00016512333690736833
-0.48835525687172776,-0.48835525687172776,0.9999569539986378,0.00016690198140144872
-0.4882340556876443,-0.4882340556876443,0.9997985518169503,0.00016224541199890327
-0.4881209596067492,-0.4881209596067492,1.0001866560293216,0.0001678576523095659
-0.4879869838317973,-0.4879869838317973,0.999814164580678,0.00016752292488136274
-0.4878967231437855,-0.4878967231437855,0.999908921295001,0.0001628352320937482
-0.4877777158471872,-0.4877777158471872,1.0001497099814665,0.00017830545343030743
-0.4877132183450158,-0.4877132183450158,1.0001095223519614,0.00019028037401124876
-0.48763516936523954,-0.48763516936523954,0.9999935635781586,0.00016194165474503442
-0.48751680538189246,-0.48751680538189246,0.9999446422983933,0.0001672653646635008
-0.487278612927912,-0.487278612927912,1.000047010408472,0.00017115590810946752
-0.4871879879392509,-0.4871879879392509,1.0001051939636945,0.00016368009545481303
-0.4871029674970487,-0.4871029674970487,1.0000690957349458,0.00016490651970615944
-0.4869688269282051,-0.4869688269282051,0.999963987989495,0.00016091459575559377
-0.4868690561997937,-0.4868690561997937,1.0001288720311303,0.00016928737409030014
-0.48672370925705766,-0.48672370925705766,1.0002620234934534,0.0001754870056820483
-0.48658732078183675,-0.48658732078183675,1.0000766110024084,0.00016913170534592158
-0.48648033625795506,-0.48648033625795506,1.000193799104381,0.0001696276357295236
-0.4863279634548235,-0.4863279634548235,0.9994726881439847,0.0001889168465056857
-0.4862225821147149,-0.4862225821147149,1.0001637763370634,0.00016506199147163088
-0.48616268719852085,-0.48616268719852085,1.000198540585488,0.00016403128490283256
-0.48606391588909903,-0.48606391588909903,1.0001571858948939,0.00016279699931585507
-0.48595852920770993,-0.48595852920770993,1.0002508419408072,0.00017023734207892785
-0.48583987975798665,-0.48583987975798665,0.9999303260660536,0.00017298379133316648
-0.4856877580801665,-0.4856877580801665,1.0000128798938572,0.00017404998523310166
-0.4855486262844352,-0.4855486262844352,1.0001259430409086,0.000166838154607798
-0.48534798268592566,-0.48534798268592566,1.0003290796115163,0.00016694583871768961
-0.48522513335919937,-0.48522513335919937,0.9997950196627509,0.0001712851974060889
-0.4850971508218208,-0.4850971508218208,1.000183305736615,0.00016320311308629416
-0.4849919046697323,-0.4849919046697323,1.0002829126744643,0.0001679049247010021
-0.4847471691929968,-0.4847471691929968,0.9999824655853693,0.00016961042094586746
-0.48460511192170086,-0.48460511192170086,1.0002033627563987,0.0001659977712496322
-0.4844404113733617,-0.4844404113733617,0.9999489259171392,0.0001648797495638929
-0.48436506566067694,-0.48436506566067694,0.9999870569164718,0.00016655226240994408
-0.48432433805282926,-0.48432433805282926,1.0002314564173855,0.00016562890449425396
-0.48419419852798457,-0.48419419852798457,1.0000282912193543,0.00016476544743956217
-0.48413172242362634,-0.48413172242362634,0.9999596328189458,0.00016750232996202128
-0.4840174711753207,-0.4840174711753207,1.0000410598092655,0.0001679006847878876
-0.48390211109726805,-0.48390211109726805,0.9997670638814904,0.00016466986009524648
-0.4837738188718504,-0.4837738188718504,0.9999170387609393,0.00016524308194077662
-0.4837095192364359,-0.4837095192364359,0.9998304551635945,0.00017164224692263954
-0.4836037305103673,-0.4836037305103673,0.9998803710796373,0.0001593514198586135
-0.4834719197868253,-0.4834719197868253,1.0001247087822602,0.00016624986772181233
-0.48337571055672013,-0.48337571055672013,0.9999661836177138,0.00016695918719135126
-0.48323764412634773,-0.48323764412634773,0.9999170027289435,0.00016990779455684676
-0.48304550100510824,-0.48304550100510824,1.0001936890380336,0.0001761517248042771
-0.4828703023427806,-0.4828703023427806,1.0002761637684234,0.00016625945222956018
-0.4827184600311739,-0.4827184600311739,1.0001051975849837,0.00017149292965015973
-0.4826265587063972,-0.4826265587063972,1.0001327029927016,0.00016330259665342783
-0.48252652857918293,-0.48252652857918293,1.0000947786933803,0.0001668201984589858
-0.482435528957285,-0.482435528957285,1.0000199757124995,0.00016514158196958775
-0.48229968358427866,-0.48229968358427866,0.9999936626789969,0.00017221875508259676
-0.4821493530609587,-0.4821493530609587,0.9998509087548395,0.0001740911741856688
-0.48201777702270193,-0.48201777702270193,0.9999335905712075,0.00016880165262240533
-0.4818637603035313,-0.4818637603035313,1.0002616483076145,0.000159229423236746
-0.48176506902382243,-0.48176506902382243,0.9999552984429894,0.00016075483049479347
-0.48163439640193245,-0.48163439640193245,1.0002585348228092,0.00017457105537921794
-0.4814993447376764,-0.4814993447376764,0.9999835500908656,0.0001637467084975234
-0.481274098171707,-0.481274098171707,1.0001202034092225,0.00017274823304621386
-0.48108067979483166,-0.48108067979483166,0.9999533366066894,0.0001653621938453229
-0.48093743315621396,-0.48093743315621396,1.0000819119644313,0.00017006055551078799
-0.4808292566885939,-0.4808292566885939,0.9998567527748788,0.00016899142391643837
-0.48078511348867325,-0.48078511348867325,1.0000056689331187,0.0001661753567183576
-0.48071339640955557,-0.48071339640955557,0.9999355188031492,0.0001693982913671056
-0.4805830388628237,-0.4805830388628237,1.0000351245243486,0.0001698504798838545
-0.4804975967716018,-0.4804975967716018,0.9999904766833436,0.0001650260319770898
-0.4803664943363401,-0.4803664943363401,1.0001708435133128,0.00017067122091492674
-0.48020686639865745,-0.48020686639865745,0.9998846683587814,0.00016529337735518535
-0.4801436466848827,-0.4801436466848827,1.0000416715347458,0.00016934063441713794
-0.48000349875364917,-0.48000349875364917,1.0001074759725241,0.00016461030074659916
-0.4799309550166072,-0.4799309550166072,0.999664912157885,0.0001631886998302979
-0.47982501273145317,-0.47982501273145317,0.9999827030195894,0.00016852686197205044
-0.47959941750450524,-0.47959941750450524,0.9999955999480428,0.00017759557600915214
-0.47921831980347634,-0.47921831980347634,1.0001710090893254,0.00016651469604426133
-0.4790989868226461,-0.4790989868226461,0.9999396499095144,0.00016413049140306235
-0.4789845481995144,-0.4789845481995144,0.9999180204768375,0.00016494333102739885
-0.47884758245127157,-0.47884758245127157,1.0000606671525127,0.000169068525802134
-0.4786800140143896,-0.4786800140143896,1.0000930345069854,0.00017172582319340937
-0.4785467279718432,-0.4785467279718432,0.9999998863247758,0.00017455955235586612
-0.478389514801529,-0.478389514801529,1.0001366894251693,0.00016268658495549533
-0.4782699342998967,-0.4782699342998967,1.0002746596992438,0.00016804396190741748
-0.4781853347485594,-0.4781853347485594,0.9997538643582928,0.0001579855073878769
-0.47803973839181707,-0.47803973839181707,0.999994406529199,0.00017394335143504174
-0.4779548444683314,-0.4779548444683314,0.9998915615779783,0.00016578900385283147
-0.47776129722915356,-0.47776129722915356,1.0002328556601878,0.00016919378952500846
-0.47758009135650353,-0.47758009135650353,0.9998500977038558,0.0001637145499975275
-0.47746397590162815,-0.47746397590162815,0.999824235296489,0.0001627602951327215
-0.4773155118120485,-0.4773155118120485,0.999939787528939,0.00017597459389249393
-0.47724453057380745,-0.47724453057380745,0.9998557406239224,0.00017229673671567106
-0.4771937046694802,-0.4771937046694802,1.0000120107143138,0.0001674242217014963
-0.4771117924778082,-0.4771117924778082,1.0000609788697916,0.00017076850196702517
-0.47699791189079405,-0.47699791189079405,0.9999170094285809,0.00016660530309269562
-0.4769044032567763,-0.4769044032567763,0.9999052044848742,0.00017116504638065136
-0.4767957290940103,-0.4767957290940103,1.0000183029923426,0.0001609152499478138
-0.47668473924713906,-0.47668473924713906,1.0000371264692294,0.0001645655452441263
-0.4765979280258762,-0.4765979280258762,1.0000338089534708,0.00016777336046514397
-0.47650358669488924,-0.47650358669488924,0.9999631342380753,0.00016839981668673203
-0.47641774933290437,-0.47641774933290437,1.0001035996460401,0.0001627195890016184
-0.476297536821221,-0.476297536821221,0.999895610757377,0.00017301322070463655
-0.47607420257118066,-0.47607420257118066,1.000088876758597,0.00017034240616248277
-0.47564699357681095,-0.47564699357681095,0.9999982263961613,0.0001657571644326507
-0.47554069253164927,-0.47554069253164927,0.9999970928271369,0.000165640675683689
-0.47547207162278937,-0.47547207162278937,0.9999585787459624,0.0001682253610203342
-0.47534388547355777,-0.47534388547355777,1.0000260299996184,0.00016669054507731032
-0.47516500279161844,-0.47516500279161844,0.9996351241483434,0.00017226924147462473
-0.4750950407331402,-0.4750950407331402,1.0000342967737055,0.0001749046635300767
-0.4748658681361121,-0.4748658681361121,0.9999903824090115,0.00016616802650058058
-0.47468324894289254,-0.47468324894289254,0.9998042606416334,0.0001663846369308681
-0.474544689556933,-0.474544689556933,1.000025177106979,0.00016312457052376615
-0.47444796686104385,-0.47444796686104385,0.999686361574694,0.0001640736172950651
-0.4743002062845335,-0.4743002062845335,0.9999396143680241,0.00016352875214254643
-0.4741556156659499,-0.4741556156659499,0.9997270922496728,0.00017122310327639752
-0.47405980465046016,-0.47405980465046016,0.999940500825409,0.0001590224275101193
-0.4739856624881213,-0.4739856624881213,0.9998799782402731,0.0001608198465745229
-0.473926246555493,-0.473926246555493,1.000231331249633,0.00016472787823852795
-0.47380687156983187,-0.47380687156983187,1.0000227212428308,0.00016823347319815696
-0.47368435186872376,-0.47368435186872376,1.0000265598278586,0.0001699511271522901
-0.4736238090263214,-0.4736238090263214,0.9996851060814667,0.00016948125767017006
-0.47353311690239935,-0.47353311690239935,0.9999758938201735,0.00016653575571925192
-0.47343946003820747,-0.47343946003820747,0.9997296384561606,0.00016417194062160799
-0.47334915429964897,-0.47334915429964897,0.9999860738235415,0.0001660910637827884
-0.4731399336960749,-0.4731399336960749,1.0000458864165631,0.0001644397359153543
-0.4730104706555721,-0.4730104706555721,0.9996959923345955,0.00017319372226591942
-0.4729130627740233,-0.4729130627740233,1.0000919793876026,0.00016271270818748275
-0.47281824055025934,-0.47281824055025934,1.0001080722203621,0.00016878961983017842
-0.472711709944997,-0.472711709944997,0.9998410270327696,0.00016785600975806502
-0.4725924624763138,-0.4725924624763138,0.9999186044036824,0.00016590528048692282
-0.4724716774668195,-0.4724716774668195,0.9998542226043907,0.00017398389191591526
-0.4721650786610553,-0.4721650786610553,0.9997429623318974,0.0001651526633730426
-0.4719673352832615,-0.4719673352832615,0.9999692244205554,0.00016584623122391473
-0.4718834552048065,-0.4718834552048065,1.0001830485933239,0.00016047962814034743
-0.47181618517497553,-0.47181618517497553,0.9999043916043208,0.0001628634736636261
-0.47167521866213064,-0.47167521866213064,1.000205114093271,0.00017059424660863698
-0.4715579268966394,-0.4715579268966394,0.9999193749841169,0.00017350255008058635
-0.4714440436706354,-0.4714440436706354,1.000317731513453,0.00016822544751791222
-0.47128331913772853,-0.47128331913772853,0.9998818470484074,0.00016642387519766934
-0.4711289915612724,-0.4711289915612724,0.9999077519883961,0.0001653040909608734
-0.4710037823664607,-0.4710037823664607,1.0000589259806543,0.00016992394422062036
-0.47090271046108684,-0.47090271046108684,0.9997816698272229,0.0001703154046645035
-0.47075352048195784,-0.47075352048195784,1.0000859016691002,0.00017032288138385082
-0.47065505746504643,-0.47065505746504643,1.000105126719693,0.00016701846416019767
-0.47051502362592146,-0.47051502362592146,0.9996368818273599,0.00016933973909597573
-0.4703700409387238,-0.4703700409387238,0.9999386540691436,0.00016486762758399795
-0.4702092857522075,-0.4702092857522075,0.9999093644625552,0.00016636814837824588
-0.47013142184441675,-0.47013142184441675,1.000240314649516,0.00016900978596900567
-0.47005035039546783,-0.47005035039546783,1.0000453165557839,0.00016842270720324323
-0.46994994979468174,-0.46994994979468174,0.9997632502783051,0.00016414121649113613
-0.4698544474435039,-0.4698544474435039,1.000079502876066,0.00016865590124348655
