time,time,flux,flux_err
-0.49996600745114467,-0.49996600745114467,1.0001022404820106,0.00018363804152391453
-0.49989623370030434,-0.49989623370030434,0.9999209261434355,0.00018364638471316826
-0.4998322744289595,-0.4998322744289595,1.0001917994936804,0.00016767369447823487
-0.49977412963710116,-0.49977412963710116,0.9998094853734802,0.00016761932613482895
-0.4997159848455042,-0.4997159848455042,1.0000727580324744,0.0001676923815369716
-0.49965784005419955,-0.49965784005419955,1.0000060166314646,0.0001676803024663502
-0.49959969526323045,-0.49959969526323045,1.0001767122274836,0.00016770737063717784
-0.499541550472581,-0.499541550472581,1.0000172021673692,0.00016764566655996945
-0.4994834056823138,-0.4994834056823138,0.9999417902777499,0.00016770136602595225
-0.4994252608924083,-0.4994252608924083,1.000067695734438,0.00016765628595858726
-0.49936711610294005,-0.49936711610294005,1.0000364850064913,0.00016767341221913347
-0.49930897131386986,-0.49930897131386986,0.9998926967385042,0.00016768770705376089
-0.4992508265252559,-0.4992508265252559,1.0000417588418231,0.00016772718771860737
-0.4991926817371014,-0.4991926817371014,0.9999629838087172,0.00016769181434509378
-0.4991345369494146,-0.4991345369494146,0.999857666055998,0.00016770900880804787
-0.4990763921622272,-0.4990763921622272,1.0000436634225935,0.00016764171637765674
-0.49901824737554684,-0.49901824737554684,1.0000089566658013,0.00016767960131547114
-0.49896010258938484,-0.49896010258938484,1.000025896281248,0.0001676561594303819
-0.4989019578037651,-0.4989019578037651,0.9998962281346546,0.00016767268172199768
-0.4988438130187106,-0.4988438130187106,1.0001899113652857,0.00016771931469467522
-0.49878566823418147,-0.49878566823418147,0.9999544447965552,0.00016771658235238733
-0.4987275234502538,-0.4987275234502538,1.0000138336380728,0.00016772202199577175
-0.4986693786669069,-0.4986693786669069,1.0001076573780772,0.0001677092485587969
-0.4986112338841524,-0.4986112338841524,0.9999353759162914,0.00016767743894209293
-0.4985530891020183,-0.4985530891020183,1.0001407914711562,0.0001676833289845406
-0.49849494432050356,-0.49849494432050356,0.99983419707061,0.0001676853383723999
-0.49843679953962416,-0.49843679953962416,1.0000897945431266,0.00016771139215713068
-0.49837865475939236,-0.49837865475939236,0.999854018454983,0.00016769535198535464
-0.4983205099797921,-0.4983205099797921,1.000157433149179,0.00016774199648466985
-0.4982623652008587,-0.4982623652008587,0.999942459476322,0.00016772614165629448
-0.49820422042259604,-0.49820422042259604,0.9999423364164086,0.00016774219218967213
-0.49814607564501534,-0.49814607564501534,1.0001687063820714,0.00016775809554498886
-0.4980879308681203,-0.4980879308681203,0.9999338101115063,0.00016775263865936564
-0.498029786091916,-0.498029786091916,1.0005402376978803,0.00016780319638468153
-0.49797164131641375,-0.49797164131641375,0.9998898501219399,0.0001677362873822037
-0.4979134965416206,-0.4979134965416206,1.000095319836773,0.00016776995954775298
-0.4978553517675567,-0.4978553517675567,0.999881554058447,0.00016766457093840502
-0.49779720699420277,-0.49779720699420277,1.000084235448623,0.0001677211567013677
-0.49773906222158526,-0.49773906222158526,0.9999835357236225,0.00016775860243053488
-0.49768091744971577,-0.49768091744971577,0.9999938656480449,0.00016779336447763358
-0.4976227726785799,-0.4976227726785799,0.9999061115718003,0.00016775711395624119
-0.4975646279082005,-0.4975646279082005,1.0000605038680155,0.00016771900768715835
-0.4975064831385775,-0.4975064831385775,1.0000016367762468,0.00016774962418525358
-0.49744833836972246,-0.49744833836972246,0.9999573091452625,0.00016773592781428319
-0.49739019360163955,-0.49739019360163955,1.000033886165498,0.00016777409944400895
-0.49733204883434023,-0.49733204883434023,1.000019587192291,0.00016783733408017143
-0.4972739040678128,-0.4972739040678128,0.9999612746727724,0.00016778547490178187
-0.49721575930208006,-0.49721575930208006,1.0000725668130848,0.0001677791796102668
-0.4971576145371238,-0.4971576145371238,0.9998998208208267,0.00016772082746694989
-0.4970994697729748,-0.4970994697729748,1.0002149836623324,0.00016775094864780084
-0.4970413250096482,-0.4970413250096482,0.9997540503365323,0.0001678342120326301
-0.49698318024709004,-0.49698318024709004,1.0000137435370149,0.00016780504849137827
-0.49691852327214586,-0.49691852327214586,1.0001429451988046,0.00016776548876320076
-0.4968487495592354,-0.4968487495592354,0.9999187928049519,0.00016771924527841014
-0.4967901396413428,-0.4967901396413428,0.999920143840173,0.00016769109882599863
-0.4967319948823555,-0.4967319948823555,1.0001774810295274,0.00016775284385308863
-0.49667385012420606,-0.49667385012420606,0.9998288099368509,0.00016774921167957583
-0.49661570536689553,-0.49661570536689553,0.9999775983454855,0.0001677842120245276
-0.49655756061042694,-0.49655756061042694,1.0000883498287387,0.00016778118054147956
-0.4964994158548087,-0.4964994158548087,1.0000054576611108,0.00016775360540602854
-0.4964412711000441,-0.4964412711000441,1.0001445142485834,0.0001677846421347016
-0.49638312634612547,-0.49638312634612547,0.9999048215789716,0.00016783949381664692
-0.49632498159308025,-0.49632498159308025,1.0000483132283062,0.00016779445625277005
-0.4962668368409007,-0.4962668368409007,0.9999087241695405,0.0001677733554481239
-0.49620869208957874,-0.49620869208957874,1.000152026313168,0.00016779308205120447
-0.4961505473391454,-0.4961505473391454,0.9998014371181139,0.00016777001210289722
-0.49609240258957754,-0.49609240258957754,1.000123723313838,0.00016778838079065437
-0.49603425784089117,-0.49603425784089117,0.9999055138323847,0.00016780357144399472
-0.4959761130930935,-0.4959761130930935,1.0000828073111712,0.0001678142305364434
-0.49591796834618906,-0.49591796834618906,1.0000038370861397,0.00016782923736176458
-0.4958598236001892,-0.4958598236001892,0.9999859462659846,0.00016781050527652565
-0.4958016788550582,-0.4958016788550582,0.9999523028576569,0.0001677816089339155
-0.49574353411083605,-0.49574353411083605,1.0000932865470016,0.00016780176447618323
-0.49568538936751844,-0.49568538936751844,0.9999995849677099,0.0001678251742162443
-0.49562724462511315,-0.49562724462511315,0.9999689395112501,0.0001677903810108641
-0.49556909988361986,-0.49556909988361986,1.000043818031402,0.00016782416437540002
-0.49551095514305105,-0.49551095514305105,0.9999053221847337,0.0001678064428091407
-0.4954528104033864,-0.4954528104033864,1.0001968269079526,0.0001678276590989349
-0.4953946656646617,-0.4953946656646617,1.000032712470433,0.00016784755686065014
-0.4953365209268452,-0.4953365209268452,0.9999774776649947,0.0001678294688775071
-0.49527837618996073,-0.49527837618996073,1.0000437233492985,0.00016781930010071003
-0.4952202314540233,-0.4952202314540233,1.0000489131531427,0.0001678415938301397
-0.4951620867190056,-0.4951620867190056,0.9998473109040825,0.00016782594340513022
-0.4951039419849321,-0.4951039419849321,1.0000805150911627,0.00016779512675011088
-0.4950457972518175,-0.4950457972518175,0.9998793465391973,0.00016783015799526907
-0.4949876525196467,-0.4949876525196467,1.0000906669558265,0.00016774891948117553
-0.494929507788419,-0.494929507788419,0.9998385220377308,0.0001677558646421417
-0.49487136305815493,-0.49487136305815493,0.9999851204368863,0.00016779350505528612
-0.4948132183288574,-0.4948132183288574,1.0000382342757752,0.00016786221150655154
-0.49475507360050336,-0.49475507360050336,1.000083842404838,0.00016786757595233114
-0.4946969288731163,-0.4946969288731163,0.9998200127581789,0.00016774470756593073
-0.49463878414671186,-0.49463878414671186,1.0001454394553173,0.0001678288139966276
-0.49458063942127006,-0.49458063942127006,0.9999447947528525,0.00016780581307803566
-0.49452249469680315,-0.49452249469680315,1.0000048074065275,0.00016779603856824604
-0.49446434997331873,-0.49446434997331873,1.0000129721577413,0.00016781064912160053
-0.4944062052508286,-0.4944062052508286,0.9999763442130518,0.00016787764469080555
-0.4943480605293096,-0.4943480605293096,1.0000729069635987,0.0001678543587709429
-0.49428991580879583,-0.49428991580879583,1.0001313888351675,0.00016779663981905484
-0.4942317710892687,-0.4942317710892687,0.9997820907641384,0.0001677755733743028
-0.4941736263707438,-0.4941736263707438,1.0001584379853414,0.000167854370456956
-0.4941154816532284,-0.4941154816532284,0.9998637290218528,0.00016782681808454695
-0.4940573369366995,-0.4940573369366995,1.0002034302475313,0.0001678168863913389
-0.49399919222118455,-0.49399919222118455,0.999959413736469,0.00016779558314543186
-0.4939410475066869,-0.4939410475066869,1.0000320325140595,0.0001678144112112801
-0.493882902793199,-0.493882902793199,0.9999755328148938,0.00016777855620436535
-0.4938247580807366,-0.4938247580807366,0.9999342476930948,0.00016777507488418322
-0.49376661336929584,-0.49376661336929584,1.0000585386121659,0.00016779607055333146
-0.4937084686588804,-0.4937084686588804,1.0000994174465438,0.00016776071236839922
-0.49365032394951386,-0.49365032394951386,1.0001062762813424,0.00016780208689031787
-0.4935921792411492,-0.4935921792411492,0.9999161576706271,0.0001677609748533711
-0.4935340345338446,-0.4935340345338446,1.0000449660743098,0.00016778082959568706
-0.4934758898275776,-0.4934758898275776,0.9999473161955821,0.00016780690885077212
-0.4934156984287631,-0.4934156984287631,0.9999830473438689,0.00016779860425360623
-0.49335727463003953,-0.49335727463003953,1.0001035643946936,0.00016777598371837547
-0.493299129926962,-0.493299129926962,0.9999253443187699,0.00016776876761555862
-0.4932409852249406,-0.4932409852249406,0.9999998267716677,0.00016778712318317625
-0.4931828405239952,-0.4931828405239952,0.9999876956452404,0.00016777292080289637
-0.49312469582410656,-0.49312469582410656,1.00011597753022,0.0001677796137484327
-0.49306655112529024,-0.49306655112529024,0.999887452371224,0.00016777503301749846
-0.49300840642753796,-0.49300840642753796,1.0000206889486587,0.00016786224217394332
-0.4929502617308737,-0.4929502617308737,0.9999967464389756,0.00016784932261439513
-0.4928921170352897,-0.4928921170352897,1.0000583907876646,0.0001678749149840889
-0.4928339723408014,-0.4928339723408014,0.9998906954464589,0.00016781296504274506
-0.4927758276473809,-0.4927758276473809,1.0001236505345166,0.00016788073090992338
-0.4927176829550673,-0.4927176829550673,0.9998406346919492,0.00016778797767935804
-0.49265953826384995,-0.49265953826384995,1.0002544924449401,0.00016783177214688418
-0.49260139357373955,-0.49260139357373955,0.999891570909534,0.0001678341721119654
-0.49254324888473633,-0.49254324888473633,1.0000948362831446,0.00016780681271557824
-0.49248510419684816,-0.49248510419684816,0.9999916060507404,0.00016791373375904018
-0.4924269595100673,-0.4924269595100673,0.9999717414370884,0.0001678334389242583
-0.49236881482441336,-0.49236881482441336,1.0000467502773713,0.0001678341091730845
-0.49231067013988206,-0.49231067013988206,0.9999723578837136,0.0001678346158396659
-0.4922525254564972,-0.4922525254564972,0.9999634453307154,0.00016784382532269922
-0.49219438077422356,-0.49219438077422356,1.0000257734405607,0.00016777828385678675
-0.492136236093088,-0.492136236093088,0.9999678552330794,0.00016776625530979622
-0.49207809141310277,-0.49207809141310277,1.0000165878664282,0.0001678280669354468
-0.4920199467342763,-0.4920199467342763,0.9999995982440024,0.00016786221807716566
-0.49196180205659934,-0.49196180205659934,0.9999200974408673,0.00016782850614722935
-0.49190365738006464,-0.49190365738006464,1.0002027218900875,0.0001678353451879249
-0.49184551270471905,-0.49184551270471905,0.999821906022228,0.00016783371565047577
-0.49178736803050793,-0.49178736803050793,1.0000925649375223,0.00016785499453645934
-0.49172922335749003,-0.49172922335749003,0.9999473496044219,0.0001678388371474286
-0.4916587054996759,-0.4916587054996759,1.0000784863374055,0.00016777294077037618
-0.49159665350741577,-0.49159665350741577,0.9998403447409752,0.0001678335132812453
-0.491538508838285,-0.491538508838285,1.0000201996724958,0.00016780142132278905
-0.4914803641703517,-0.4914803641703517,0.9999423021387794,0.0001677685394851996
-0.49142221950359916,-0.49142221950359916,1.00011986387852,0.00016780897676092315
-0.49136407483805533,-0.49136407483805533,0.9999773169612978,0.00016781121632510502
-0.49130593017373947,-0.49130593017373947,1.0000589833141489,0.0001677513352765554
-0.4912477855106441,-0.4912477855106441,0.9999178600946521,0.00016779309078477915
-0.49118964084875705,-0.49118964084875705,1.0002304795629502,0.00016779080918488047
-0.4911314961880907,-0.4911314961880907,1.0000028716325462,0.00016777205860018827
-0.49107335152867204,-0.49107335152867204,1.000145909977718,0.00016777995076018077
-0.4910152068704896,-0.4910152068704896,0.9997915560975299,0.0001677447455028615
-0.4909570622135542,-0.4909570622135542,0.9999560484553637,0.00016777263548896625
-0.49089891755787435,-0.49089891755787435,0.9999359783655152,0.00016772749056364407
-0.4908407729034499,-0.4908407729034499,0.9999916765024999,0.00016776016387589065
-0.4907826282502925,-0.4907826282502925,1.0000535658820138,0.00016779457887757717
-0.4907244835983904,-0.4907244835983904,1.0001216309796142,0.0001677375761462587
-0.49066633894779105,-0.49066633894779105,0.9998666627342547,0.00016773060406961702
-0.4906081942984513,-0.4906081942984513,1.0001515678078607,0.00016779927644448048
-0.49055004965041277,-0.49055004965041277,0.9998977079066875,0.0001677533339318594
-0.49049190500366907,-0.49049190500366907,1.0001777262493596,0.0001677816654291491
-0.4904337603582314,-0.4904337603582314,0.9998574934891868,0.00016781032854623227
-0.4903756157141038,-0.4903756157141038,1.0000622416059084,0.00016780406599199778
-0.49031747107130197,-0.49031747107130197,0.9999238336973557,0.00016775733297830662
-0.4902593264298104,-0.4902593264298104,1.0000187926631259,0.00016774037694564802
-0.49020118178964384,-0.49020118178964384,1.0000640587253942,0.00016778417888880801
-0.490143037150842,-0.490143037150842,0.9998846464847679,0.0001677680842949787
-0.49008489251335385,-0.49008489251335385,1.000125084898956,0.00016778786958374683
-0.4900267478772344,-0.4900267478772344,1.0000229268691092,0.0001678090097435538
-0.48996860324247615,-0.48996860324247615,0.9998156178460647,0.00016775073084839164
-0.489910458609094,-0.489910458609094,1.0001436173707758,0.00016773679167958217
-0.4898523139770874,-0.4898523139770874,0.9998396992831052,0.00016772685507751613
-0.4897941693464576,-0.4897941693464576,1.000191595578684,0.00016778302870058844
-0.4897360247172194,-0.4897360247172194,0.9999246283312256,0.00016776794646508906
-0.48967788008939345,-0.48967788008939345,1.000017202068929,0.00016777710650255182
-0.4896197354629665,-0.4896197354629665,1.0001097948275233,0.0001677846038476109
-0.4895615908379744,-0.4895615908379744,0.9998974720139149,0.0001677915227826119
-0.4895034462143816,-0.4895034462143816,1.0000450365124154,0.00016780294542448077
-0.48944530159225136,-0.48944530159225136,0.999887099376957,0.00016773470574204564
-0.48938715697154045,-0.48938715697154045,1.0001117142544347,0.00016777482450235643
-0.48932901235231074,-0.48932901235231074,1.0001021869485522,0.000167723522543561
-0.4892708677345194,-0.4892708677345194,0.9998586018336761,0.00016780670119116562
-0.4892127231182061,-0.4892127231182061,1.0000525726860148,0.00016776667701242092
-0.48915457850339034,-0.48915457850339034,1.000000966465055,0.0001677400504059039
-0.48909643389004787,-0.48909643389004787,1.0000724502423481,0.00016774690102078107
-0.489038289278218,-0.489038289278218,1.000039346151303,0.000167757574028996
-0.4889801446679127,-0.4889801446679127,0.9998615450776039,0.00016778961407136426
-0.4889220000591089,-0.4889220000591089,1.0000907224138278,0.0001677491330732244
-0.48886385545183303,-0.48886385545183303,0.9998661084684943,0.00016773256940232268
-0.4888057108461285,-0.4888057108461285,1.0000588339556749,0.00016773528851431605
-0.48874756624195975,-0.48874756624195975,1.000074233186936,0.00016776359169402505
-0.4886894216393591,-0.4886894216393591,1.000020787986943,0.00016777464531002876
-0.488631277038325,-0.488631277038325,0.99996041448246,0.00016781197347407912
-0.4885731324389013,-0.4885731324389013,0.999906804432704,0.00016786022928430607
-0.48851498784106473,-0.48851498784106473,1.0000514197783055,0.00016783163678844686
-0.4884568432448459,-0.4884568432448459,0.9999810646402715,0.00016778827119193055
-0.48839869865024904,-0.48839869865024904,1.000046547226757,0.00016780066181319137
-0.4883405540572857,-0.4883405540572857,0.9999442965745725,0.00016777962834306582
-0.48828240946598755,-0.48828240946598755,1.0001291401315369,0.00016778886452335225
-0.4882242648763424,-0.4882242648763424,1.0001024030121972,0.00016782079113214732
-0.48816612028837725,-0.48816612028837725,0.9998904547270516,0.00016781284937839272
-0.4881079757021004,-0.4881079757021004,0.999994119481826,0.0001678133990300951
-0.488049831117524,-0.488049831117524,1.0001506602709016,0.00016780861444509236
-0.48799168653466996,-0.48799168653466996,0.9997707038985117,0.000167774202326042
-0.4879335419535556,-0.4879335419535556,1.0000721399518615,0.00016785957875761417
-0.4878753973741917,-0.4878753973741917,1.000074209638282,0.00016781488620927078
-0.4878172527965817,-0.4878172527965817,0.999805862043123,0.00016783763335645054
-0.48775910822074564,-0.48775910822074564,1.0001487464642822,0.00016781879032729945
-0.4877009636467081,-0.4877009636467081,1.0000369662298825,0.00016781052228111292
-0.4876428190744826,-0.4876428190744826,1.0000559810732057,0.00016778474841283017
-0.4875846745040854,-0.4875846745040854,0.9999155437103543,0.00016783455746919874
-0.4875265299355213,-0.4875265299355213,1.0000072853144049,0.00016779507603776635
-0.4874683853688169,-0.4874683853688169,0.999903048879,0.0001678115215364308
-0.4874102408040105,-0.4874102408040105,1.000090995807703,0.00016783536774846817
-0.48735209624108833,-0.48735209624108833,1.0000148585363806,0.0001678799369599344
-0.4872939516800797,-0.4872939516800797,0.9999273409122441,0.00016782384829063722
-0.4872358071210088,-0.4872358071210088,1.0002019987739286,0.0001678442143615721
-0.48717766256388817,-0.48717766256388817,0.9998083503372246,0.0001678664032444893
-0.487119518008747,-0.487119518008747,1.0000892018712169,0.0001678888811142437
-0.4870613734555949,-0.4870613734555949,0.9999467761914852,0.00016787834167974436
-0.48700322890447,-0.48700322890447,0.9999609165403589,0.0001678829532273153
-0.486945084355353,-0.486945084355353,1.0001596810978837,0.00016786057019564524
-0.486886939808314,-0.486886939808314,0.9998521699124014,0.00016781143157922429
-0.48682879526336487,-0.48682879526336487,1.0001184856188534,0.0001678767776050046
-0.48677065072051323,-0.48677065072051323,0.9998929815712847,0.00016784417671022152
-0.4867125061797751,-0.4867125061797751,1.0000310569252766,0.000167925327576306
-0.48665436164120024,-0.48665436164120024,0.9999076322704724,0.00016785188654904582
-0.4865962171047974,-0.4865962171047974,1.0001348423500083,0.00016786036700813637
-0.48653807257058973,-0.48653807257058973,0.9998040471647819,0.00016788401396067672
-0.4864792768199077,-0.4864792768199077,0.9999792412255459,0.00016782854226197194
-0.4864055030410156,-0.4864055030410156,1.000096798919054,0.00016790434284657984
-0.48634735851423433,-0.48634735851423433,0.9997846462450853,0.00016788534089389826
-0.48628921398977776,-0.48628921398977776,1.0000833365864916,0.000167867511519077
-0.48623106946765227,-0.48623106946765227,0.9999888659449236,0.00016788808984503006
-0.48617292494792846,-0.48617292494792846,0.9999066508164377,0.00016788232062440954
-0.4861147804306148,-0.4861147804306148,1.0002335350112719,0.00016787767593229107
-0.4860566359157562,-0.4860566359157562,0.9998311169469678,0.0001678760157463281
-0.4859984914033627,-0.4859984914033627,1.0000532485452953,0.0001679142324891099
-0.48594034689347165,-0.48594034689347165,1.000072971821179,0.00016787254412128805
-0.4858822023861424,-0.4858822023861424,0.9999268018202031,0.0001678709698952858
