time,time,flux,flux_err
-0.4998800693807425,-0.4998800693807425,0.9998946205299992,0.000202847170496657
-0.4996460538532119,-0.4996460538532119,1.0001299042313077,0.00023179937611001025
-0.4993744359293487,-0.4993744359293487,1.0003476681896615,0.00020406396219999258
-0.49929149038216564,-0.49929149038216564,1.000130933591396,0.00021696872496353137
-0.4992055913317017,-0.4992055913317017,1.0000457907146163,0.00020840873676085755
-0.4991336019767914,-0.4991336019767914,1.000066913809396,0.000222110373656068
-0.4990444731374737,-0.4990444731374737,1.0000705804134955,0.0002350657984164127
-0.49878844199993183,-0.49878844199993183,1.0003121654679064,0.00020821689255923963
-0.49863438034954016,-0.49863438034954016,1.0001297383985697,0.00022459248100456923
-0.4985477192502003,-0.4985477192502003,1.0001024593564993,0.00021449444636979743
-0.4984631579136476,-0.4984631579136476,1.0000075601880352,0.0002183021810734206
-0.49835495331790297,-0.49835495331790297,0.9999490428280785,0.00021913890933341094
-0.4982000189687824,-0.4982000189687824,0.9993875335656774,0.00020953812230590225
-0.4980562183802249,-0.4980562183802249,1.000272361393265,0.00021999236470791138
-0.4980107839131961,-0.4980107839131961,0.9999587136776794,0.00022697779221598165
-0.497935569944093,-0.497935569944093,1.0002426801625661,0.00022129880092538627
-0.4978585399250733,-0.4978585399250733,1.0003322835493342,0.00022016409716501395
-0.4976677720755106,-0.4976677720755106,1.000075185699956,0.00022680679982285974
-0.4975440670415992,-0.4975440670415992,1.0000042752472287,0.00022134801939437294
-0.497437183916918,-0.497437183916918,1.0001192786471362,0.0002077053716625211
-0.4973372661683243,-0.4973372661683243,1.0002191910166884,0.00022891166545783585
-0.49723594063834753,-0.49723594063834753,1.0001199128685092,0.00021667870818761395
-0.4971178648323985,-0.4971178648323985,0.9998116481828901,0.00022316912492010297
-0.4969637433940079,-0.4969637433940079,1.000219118728226,0.00021754117235209115
-0.49682505617383865,-0.49682505617383865,0.9995775912436535,0.00023244045567858454
-0.49667175152571874,-0.49667175152571874,0.9998432162356821,0.00020737527550566772
-0.4964983799000038,-0.4964983799000038,1.0000126819690887,0.00022835768177945933
-0.49636357464478353,-0.49636357464478353,1.0002960491256483,0.00021504742985500356
-0.49620894075196703,-0.49620894075196703,0.9996317670256886,0.00020752974753055907
-0.49604911034693944,-0.49604911034693944,0.999881019683597,0.00023233452930517223
-0.49585854831675535,-0.49585854831675535,0.9997910143442376,0.00021265549199312199
-0.49572956060874274,-0.49572956060874274,0.9999785147791549,0.00020967674343287906
-0.49554291790118443,-0.49554291790118443,0.999900069644409,0.00021078995438281387
-0.4953759715339402,-0.4953759715339402,0.9998210059384591,0.0002211832884727848
-0.4951915764657315,-0.4951915764657315,0.9998026055178698,0.0002097609737381548
-0.4950930884602712,-0.4950930884602712,1.0001979291734517,0.0002131355084857987
-0.49486857107258403,-0.49486857107258403,1.0001350199700285,0.00022955055587796296
-0.4947452870750567,-0.4947452870750567,1.0002897323378197,0.000208479182668517
-0.49459392676944847,-0.49459392676944847,1.0001024597025467,0.00023178146095036495
-0.49447764178330544,-0.49447764178330544,1.0002479649408613,0.00021672219465455905
-0.49440661751141307,-0.49440661751141307,0.9999628883439569,0.00021208302783930617
-0.4942799095297232,-0.4942799095297232,0.9999387063435492,0.00022029995253851557
-0.4941136636014562,-0.4941136636014562,1.0000574000306388,0.00023846170478725726
-0.4940194869559491,-0.4940194869559491,0.9998817963589733,0.00020589723158000232
-0.49397201963001863,-0.49397201963001863,1.0003202182169886,0.00023015534539789752
-0.4938997923047282,-0.4938997923047282,1.0001474738341884,0.00021170931120551478
-0.4937397792324191,-0.4937397792324191,0.9999658234950324,0.00021181680453345942
-0.49356499992718456,-0.49356499992718456,0.9997969547709704,0.00022455623466443954
-0.4934284396149451,-0.4934284396149451,1.000022862399181,0.0002280348326085491
-0.49326440539152827,-0.49326440539152827,1.0002865033370028,0.00021914224340292758
-0.49308319845877124,-0.49308319845877124,1.0000802497751908,0.00022736150002778077
-0.49296640902466604,-0.49296640902466604,1.0002992495063405,0.00022318153078666546
-0.49279009840392973,-0.49279009840392973,1.0000272091407567,0.0002079374912975993
-0.4926052431459539,-0.4926052431459539,0.9998601213864156,0.00020753538209398878
-0.4924579231592361,-0.4924579231592361,1.0000496200145037,0.00025536637419262733
-0.49233545547176616,-0.49233545547176616,0.9999207353432183,0.00021675125072308
-0.49222929296374784,-0.49222929296374784,0.9998586839085055,0.00021981485414977324
-0.4919809247046942,-0.4919809247046942,1.0001373259784299,0.0002111317608672751
-0.49182740139658565,-0.49182740139658565,1.000053229036355,0.00025640807526852423
-0.4917448259686353,-0.4917448259686353,1.0000608686649035,0.00019602035586175232
-0.49159217952692413,-0.49159217952692413,0.9999146294883884,0.00020316198051757448
-0.49145089735102376,-0.49145089735102376,1.0000156779206475,0.00022010238975730964
-0.49133427447231953,-0.49133427447231953,1.0000267251619441,0.00021033139893983547
-0.4911898883525282,-0.4911898883525282,1.0000119570390562,0.00022229609995139937
-0.49109460814797784,-0.49109460814797784,0.999842119993725,0.00020187578494288062
-0.49100926303945014,-0.49100926303945014,0.9997488832907806,0.0002177004444378149
-0.4909451891115168,-0.4909451891115168,1.000258132878744,0.00020807272391470824
-0.4908619034918956,-0.4908619034918956,1.0001672172744889,0.0002269903784280298
-0.4907808488642331,-0.4907808488642331,1.0000591700749413,0.00022062649060543646
-0.490638315846445,-0.490638315846445,1.0004372191898576,0.0002101892184620687
-0.49049788505071773,-0.49049788505071773,0.9999643170064312,0.00023087143016479344
-0.49033268686616793,-0.49033268686616793,1.0003085195800474,0.00021599402046937002
-0.4902389522234444,-0.4902389522234444,1.0000537366997626,0.00023892004980053178
-0.49009374815796036,-0.49009374815796036,1.0001257903230782,0.0002257103951442033
-0.48987611748452764,-0.48987611748452764,1.0001249081902155,0.0002238629916763941
-0.4897575086535653,-0.4897575086535653,1.0001267407862773,0.00021300075562133083
-0.48965155677578875,-0.48965155677578875,1.0001081369699532,0.00021396770956042145
-0.4894760099821724,-0.4894760099821724,0.9996872410491381,0.00021080349777047536
-0.48932873879675753,-0.48932873879675753,1.0002617522127195,0.00023189437058125406
-0.48917457487550564,-0.48917457487550564,0.9999083452503961,0.0002141910743405109
-0.48898835567524657,-0.48898835567524657,0.9997862566265123,0.00020283516005262258
-0.48884997201676017,-0.48884997201676017,0.9998184247410038,0.00022281678796843006
-0.488646990142297,-0.488646990142297,1.000269103637382,0.00022332042232056315
-0.4884324846760137,-0.4884324846760137,0.9996954508252183,0.00023008243459025435
-0.4882433284947183,-0.4882433284947183,0.9997144741034438,0.00022020486862672997
-0.4881778703595046,-0.4881778703595046,0.9999501134956066,0.00023424928617647362
-0.4881140239944216,-0.4881140239944216,0.9998839845277082,0.00022107569515025598
-0.4879966660926584,-0.4879966660926584,0.9996371767058388,0.00021744029239559453
-0.487643176864367,-0.487643176864367,0.9998947985907458,0.00022108073624446488
-0.48753071429673583,-0.48753071429673583,1.0002220190167683,0.00020654342715414236
-0.4874938988010399,-0.4874938988010399,1.0001299630691292,0.0002255983084318186
-0.48737837115186267,-0.48737837115186267,1.0000957724958053,0.0002042794770133058
-0.48727331387344747,-0.48727331387344747,0.9998283374238482,0.00022278561184002803
-0.487151113251457,-0.487151113251457,0.9999931366821665,0.00023662831229140558
-0.48708081049262547,-0.48708081049262547,0.9999073901638799,0.00022676857309164952
-0.48697128558414987,-0.48697128558414987,0.9998396443798333,0.0002090562218557867
-0.48685412597842515,-0.48685412597842515,0.9998029571232656,0.00021581893440934748
-0.48676198523317,-0.48676198523317,0.9999352961656047,0.00023240031171686162
-0.48662643680290785,-0.48662643680290785,1.000059445188358,0.00022842323446512579
-0.4864171173365321,-0.4864171173365321,1.0000350401063867,0.0002155821955513786
-0.4862999837292591,-0.4862999837292591,0.9997587334023222,0.0002236303709099845
-0.4862554084596923,-0.4862554084596923,0.9998692045570481,0.00020718144341478917
-0.48617023196420633,-0.48617023196420633,1.0001350071302437,0.0002233964807635596
-0.4859941548173083,-0.4859941548173083,0.9999883464194864,0.00021681847609880648
-0.4857547707186313,-0.4857547707186313,0.9999394111076118,0.00022425330777490023
-0.4855770380992908,-0.4855770380992908,0.9997642720528879,0.0002248299435874606
-0.48543882839148866,-0.48543882839148866,1.0002921435529166,0.00021002920597518694
-0.485299256577855,-0.485299256577855,1.0001176302476313,0.0002516883726714753
-0.48519712461857123,-0.48519712461857123,0.9998610340860836,0.00021775002760514062
-0.48512111511663536,-0.48512111511663536,1.000043029095958,0.00021391338942448675
-0.4849115518038161,-0.4849115518038161,0.9999822899320913,0.00020769929763797052
-0.48468587264069357,-0.48468587264069357,0.9997904924696307,0.0002157902285807001
-0.4844512983545428,-0.4844512983545428,1.0002365906917596,0.00022454319936572028
-0.48426251247001345,-0.48426251247001345,0.9998582026517958,0.00020880005436398245
-0.4840385871648323,-0.4840385871648323,1.000119763385588,0.00021299360279887594
-0.48393553160713054,-0.48393553160713054,0.9998482910793414,0.00023367547446706826
-0.48379378012614327,-0.48379378012614327,0.9998717744102278,0.0002142246291152069
-0.48367020110890735,-0.48367020110890735,1.000317732464565,0.00022058122867275217
-0.4835540066793328,-0.4835540066793328,0.9999319899295342,0.00021301990162152126
-0.4834585715114372,-0.4834585715114372,1.0000456596380425,0.0002229954794020027
-0.4834077892039204,-0.4834077892039204,1.0002788552510329,0.00020325621695316032
-0.4832019817782566,-0.4832019817782566,0.9999884872493221,0.00023908779765225474
-0.48309893832483797,-0.48309893832483797,0.9999922492408931,0.00023129799019599068
-0.4830121725943172,-0.4830121725943172,1.0001034162418123,0.0002129929082648529
-0.4828736350405961,-0.4828736350405961,1.000206961252898,0.0002121406198052701
-0.4826857248117449,-0.4826857248117449,1.0000158469180995,0.00021765499541142398
-0.48255966329597866,-0.48255966329597866,0.9998343218253746,0.00022681113204103942
-0.482424253152567,-0.482424253152567,0.9996642341878428,0.0002186737231235747
-0.4822144716279581,-0.4822144716279581,1.000077236700941,0.00021937204527705637
-0.4820565266767517,-0.4820565266767517,0.9999230428436128,0.00023828217244812737
-0.4818735132284928,-0.4818735132284928,0.9999362487488238,0.00021345157283080823
-0.48164051547064446,-0.48164051547064446,1.00031352959323,0.0002122201873695287
-0.481503526182496,-0.481503526182496,0.999985007885771,0.0002507498550729191
-0.48147444090864155,-0.48147444090864155,1.0000157468622324,0.00021502670670045182
-0.4814020363264717,-0.4814020363264717,1.000256006884309,0.0002076638497775473
-0.48131029747310095,-0.48131029747310095,1.0001066656277684,0.0002050233489752381
-0.48114521738607435,-0.48114521738607435,0.999855707363228,0.00021068034517580242
-0.4809804625314428,-0.4809804625314428,1.0002744627382911,0.0002487855086938394
-0.48081310592242515,-0.48081310592242515,1.0000881941619704,0.00020982774196505496
-0.48061625444679523,-0.48061625444679523,1.0003207956453302,0.00022935485523966232
-0.4805320808372926,-0.4805320808372926,1.000114321736731,0.00021842891923254965
-0.480420996985049,-0.480420996985049,1.00020968108065,0.00021677625515955615
-0.48026844930718654,-0.48026844930718654,1.0000864044677225,0.00023076720037832726
-0.480098837352125,-0.480098837352125,0.9997344377507726,0.0002317202053276067
-0.4800069005752448,-0.4800069005752448,1.0000284369421713,0.00020041982940785028
-0.4799436530476669,-0.4799436530476669,1.0002215774876067,0.000213362369382703
-0.4798085320100654,-0.4798085320100654,1.0000825185669666,0.00021616699286871777
-0.47967812822607814,-0.47967812822607814,1.0000786581341115,0.00019748514563462473
-0.4796139107842464,-0.4796139107842464,0.9999429308919316,0.00021682735989639814
-0.47952723980124573,-0.47952723980124573,1.0002838980174313,0.00022646209255952252
-0.4794008676253725,-0.4794008676253725,1.0003898308262076,0.00020853770443130418
-0.4793014350696467,-0.4793014350696467,0.9999038137552754,0.0002348056779247547
-0.4792199130053632,-0.4792199130053632,1.0004053181271777,0.00023540379522513124
-0.4791490285919281,-0.4791490285919281,1.0001918720316945,0.00022318271494719527
-0.4790145195584046,-0.4790145195584046,1.000246316251483,0.00022489108112163256
-0.478726831584936,-0.478726831584936,0.9998614603066555,0.00021296278267793917
-0.47861692939477507,-0.47861692939477507,0.9998637598933267,0.00021302707850641406
-0.4785058573790593,-0.4785058573790593,0.9999273480883364,0.00021448718245358324
-0.4784010859002592,-0.4784010859002592,0.9998332715121471,0.0002292397640384
-0.4782882240338949,-0.4782882240338949,0.999833207716291,0.00021474803580444048
-0.4781690278527094,-0.4781690278527094,1.0002223279817026,0.0002086838460383487
-0.47789958789071535,-0.47789958789071535,0.9999850922179118,0.00021222102461102588
-0.4778171104553621,-0.4778171104553621,1.0001077482279346,0.00022422169948505536
-0.47770939755719155,-0.47770939755719155,1.0000904579729113,0.00020777772226784528
-0.477438094370882,-0.477438094370882,1.0000764597400589,0.00020458249962398306
-0.4772979290981311,-0.4772979290981311,0.9999766026334467,0.00021295035296582456
-0.4772560913144844,-0.4772560913144844,0.9999990575891189,0.00022480128918932765
-0.4771352583804401,-0.4771352583804401,0.9995811428094861,0.00022690703852794227
-0.4769667161803227,-0.4769667161803227,0.9998995190890027,0.0002119483803102665
-0.47673846304533074,-0.47673846304533074,0.9998906846605419,0.00022086581804929887
-0.4765858834987739,-0.4765858834987739,1.0000449980267405,0.0002186708499341069
-0.4764468309498625,-0.4764468309498625,1.0000946232017154,0.00020933131077971248
-0.47636225922906306,-0.47636225922906306,0.9998899662849826,0.00021190624540059558
-0.4763078011048492,-0.4763078011048492,0.999795212426277,0.00020508521117027734
-0.47622052451479246,-0.47622052451479246,0.999814637757107,0.00023481741917720777
-0.476126148563344,-0.476126148563344,0.9998193517170366,0.00022349886883972383
-0.47602171918260866,-0.47602171918260866,1.0004045815535236,0.00022506739145563363
-0.47596241359424313,-0.47596241359424313,1.000137331386512,0.00020802423052460034
-0.4758943077758886,-0.4758943077758886,1.000101779832574,0.00021956766218325053
-0.47572453221073374,-0.47572453221073374,0.9999300531442487,0.000212344153053087
-0.4755834867944941,-0.4755834867944941,1.0000010245147926,0.00021849450614084537
-0.4754418437631102,-0.4754418437631102,0.9998345967882429,0.00022499791947548693
-0.475320882111555,-0.475320882111555,0.9997883292464526,0.00022501750672599755
-0.4751586170255905,-0.4751586170255905,0.9998242861995452,0.00021372246809020154
-0.47503191458527,-0.47503191458527,1.0000904878376053,0.00021291522967951376
-0.4749048708414193,-0.4749048708414193,0.999947100540683,0.0002135727125909542
-0.47464224802970423,-0.47464224802970423,1.0001203029213412,0.00021943289138752308
-0.4744955771166133,-0.4744955771166133,0.9998547848963618,0.00022090221798297779
-0.4743627901159925,-0.4743627901159925,0.9998319138798871,0.00022184959416308086
-0.47423797873489093,-0.47423797873489093,1.000013282825471,0.00022293978302354313
-0.4739903837413294,-0.4739903837413294,1.0000612341661053,0.0002419080651444778
-0.4738543557585217,-0.4738543557585217,1.0001921178464903,0.0002183821290977348
-0.4737040242907824,-0.4737040242907824,1.000284136717832,0.0002077215327189773
-0.4735111313028028,-0.4735111313028028,0.9997167990646998,0.0002150774864989216
-0.47329977836634496,-0.47329977836634496,0.9997695088030578,0.00022278842521435144
-0.4730524731887272,-0.4730524731887272,0.9998876414502662,0.00021158175185559107
-0.47291025625017935,-0.47291025625017935,1.0002780544614964,0.00021653713611312778
-0.4727913837385131,-0.4727913837385131,0.9999443922568163,0.00022728091364759262
-0.4726402807078557,-0.4726402807078557,1.000222092491367,0.00021404132660636277
-0.47256612982018853,-0.47256612982018853,0.9998588885489944,0.0002216541393810808
-0.47246000678278505,-0.47246000678278505,0.9999228869291528,0.00020721451856164702
-0.4722783041623188,-0.4722783041623188,0.9996902189448649,0.0002372539717652993
-0.4721619521966204,-0.4721619521966204,1.0000407552596218,0.0002241740580033402
-0.4720610450662207,-0.4720610450662207,1.0000399598719674,0.00020597995615057206
-0.47196075691026634,-0.47196075691026634,1.0001952826660958,0.0002275130373232937
-0.4717055018030806,-0.4717055018030806,0.999774076193541,0.0002278332454392693
-0.4716088060406037,-0.4716088060406037,0.9998305243218676,0.0002037817004784111
-0.47154669009032657,-0.47154669009032657,0.9997610080163545,0.00023185667220922888
-0.4714017684600549,-0.4714017684600549,0.9998824095884451,0.00020879066028007152
-0.4711838556686416,-0.4711838556686416,1.000028646134827,0.00022786601147354533
-0.4710101533361012,-0.4710101533361012,1.0000666461331305,0.00021679073026181975
-0.4708909081935417,-0.4708909081935417,0.9998192649265036,0.00021679778661719807
-0.4705944848945364,-0.4705944848945364,0.9999398940172171,0.00023135444830841212
-0.47055050675407983,-0.47055050675407983,1.0000315635113886,0.0002305105801879486
-0.4704372693086043,-0.4704372693086043,1.000139974979872,0.00022028324333878585
-0.47023274591483644,-0.47023274591483644,0.9999668600578528,0.0002083618887352067
-0.4700203195621725,-0.4700203195621725,1.000303120715223,0.0002606032282977195
-0.46987399156496396,-0.46987399156496396,0.9999396786297092,0.0002146631748283165
-0.46968471532454714,-0.46968471532454714,0.9997936243244325,0.00021973520823300217
-0.4695376962888986,-0.4695376962888986,1.000098164527796,0.00022739930435934524
-0.469455253353226,-0.469455253353226,0.9999723566500609,0.00023411181468690809
-0.4693370798573596,-0.4693370798573596,0.9999771021238397,0.00022192470764302477
-0.46919892441364935,-0.46919892441364935,0.9999484170877244,0.0002264748159614334
-0.46907363762729803,-0.46907363762729803,0.9997544638785711,0.00021274641076944313
-0.46899757355568,-0.46899757355568,0.9997601984610458,0.00021867891007706122
-0.46887276583001947,-0.46887276583001947,1.0001914932133305,0.00020522779729238385
-0.4687520145467715,-0.4687520145467715,1.0001959927015274,0.00020723490515448263
-0.46866565364180135,-0.46866565364180135,1.0000140255113172,0.00022100411958980208
-0.46854523721558505,-0.46854523721558505,1.0001726477596429,0.00020395628410545532
-0.46841716388007626,-0.46841716388007626,1.0000951533546745,0.00021820981153038762
-0.46837967286119236,-0.46837967286119236,0.9998728783122195,0.00022923079467944361
-0.4682961167418398,-0.4682961167418398,1.000091521138152,0.0002273437676231451
-0.4682019013533136,-0.4682019013533136,1.0001375401401333,0.000220485126699184
-0.46812307854415847,-0.46812307854415847,1.0003859795221781,0.00022444629988172568
-0.4679702364956029,-0.4679702364956029,1.0003449888753082,0.00022611858234965302
-0.46783387381001373,-0.46783387381001373,1.0000289003406448,0.0002177836056648823
-0.4675937773572514,-0.4675937773572514,0.9995626143692176,0.00022206121707253477
-0.46744490167475305,-0.46744490167475305,1.0001512542751192,0.00021880817439848098
-0.4673567201680271,-0.4673567201680271,0.9996636775232176,0.00022273818531721702
-0.46722623056848533,-0.46722623056848533,0.9999623029655946,0.00021980456975686705
-0.467000810711761,-0.467000810711761,1.0002598186772422,0.0002224367929266594
-0.4668292040441884,-0.4668292040441884,0.9999246593835259,0.00020890718563184338
-0.4666904651268851,-0.4666904651268851,1.0000329342740693,0.00020891855796286514
