time,time,flux,flux_err
-0.49992616692664643,-0.49992616692664643,1.0000326442484102,0.0003292735501998239
-0.49979324361872085,-0.49979324361872085,1.0001038656613608,0.0003177231429761528
-0.49967258246906565,-0.49967258246906565,1.000275133426109,0.0002467369401918615
-0.4995942022796953,-0.4995942022796953,0.9996518031207057,0.0002780357368745708
-0.4995204939245014,-0.4995204939245014,1.000090080004615,0.0002883227167354202
-0.4994548520247918,-0.4994548520247918,1.0001388687791464,0.00025444816740927937
-0.4992929226718843,-0.4992929226718843,1.0002621553279027,0.0002405296813875346
-0.49915937971672975,-0.49915937971672975,0.9995769473447982,0.0002891110523609797
-0.4990966593584744,-0.4990966593584744,0.9998467958583662,0.00025279427102409003
-0.49901713960280175,-0.49901713960280175,1.0005716137411298,0.00023743586586560155
-0.4988745300011942,-0.4988745300011942,1.0001249928151072,0.00026125168025406233
-0.4987970141606638,-0.4987970141606638,0.999992798952162,0.00024452420718864784
-0.4987356637750054,-0.4987356637750054,1.0001251645034177,0.00027816163368226657
-0.4986234998650616,-0.4986234998650616,1.0000497817543252,0.00026035119898734415
-0.4985134469316108,-0.4985134469316108,1.0003799082110332,0.00029367700552003923
-0.49846214551653245,-0.49846214551653245,0.9998515498680056,0.00025798156094323073
-0.49838730671908704,-0.49838730671908704,0.9999887618161489,0.00022422268560429466
-0.4982286094222218,-0.4982286094222218,1.0000959240793805,0.00027954610599870654
-0.49809866993455215,-0.49809866993455215,0.9999657073081885,0.00029140592382674536
-0.497898720059311,-0.497898720059311,1.0003063195358455,0.00028150533108704107
-0.49778671019594184,-0.49778671019594184,1.000085691229539,0.00024043158377552902
-0.49769209447258617,-0.49769209447258617,1.0004391431535216,0.00029240097682212466
-0.497534793545492,-0.497534793545492,0.9999796791211715,0.00026306448522808625
-0.4974420745973475,-0.4974420745973475,0.9999967534524428,0.000293775483102537
-0.4971814680087846,-0.4971814680087846,1.0001641951768647,0.0002498196624600375
-0.49691967497929,-0.49691967497929,1.0001485183890542,0.00027537729788391566
-0.49665662918414455,-0.49665662918414455,1.0001409810468656,0.00028094880350710264
-0.49650717539770994,-0.49650717539770994,0.9997438802950928,0.0002563558314086927
-0.49627032288990447,-0.49627032288990447,0.9996830357004765,0.00026488662192187764
-0.4960628425993491,-0.4960628425993491,0.9999759219861403,0.0002929413034169956
-0.49592423861904533,-0.49592423861904533,0.9999601961676822,0.00032751944141971254
-0.49584072358265985,-0.49584072358265985,0.999958692111411,0.00028159505194856713
-0.49573884104611354,-0.49573884104611354,0.9998879837220003,0.00026582763822882006
-0.49562777003156955,-0.49562777003156955,1.000021574123171,0.0002919145739810601
-0.4955056491162395,-0.4955056491162395,0.9999858961096066,0.0002910206681352216
-0.4954156415333273,-0.4954156415333273,0.9998283905115454,0.00028520880509489094
-0.49533892392355483,-0.49533892392355483,1.0001859703789862,0.00025859135050840216
-0.49521846031129824,-0.49521846031129824,0.9998150887220036,0.00035212644161584033
-0.49515111385844646,-0.49515111385844646,0.9999075197053795,0.0002825098621589977
-0.49508754432899876,-0.49508754432899876,1.0003866242380821,0.0002479664518405673
-0.4948694772145245,-0.4948694772145245,0.999687678448731,0.00025411931532610726
-0.4947668712091399,-0.4947668712091399,1.0005866115857607,0.0003320780971758818
-0.4946537409123266,-0.4946537409123266,1.0003651804258913,0.0002643345957961809
-0.4945667165069608,-0.4945667165069608,1.0001557251431603,0.0002560471316331663
-0.4944976271362975,-0.4944976271362975,1.0001300404553433,0.00025792710661266756
-0.4944353327067802,-0.4944353327067802,1.0002288076321268,0.0002774996980038187
-0.49430695433402433,-0.49430695433402433,0.99971000733412,0.000303757104535395
-0.4941783590358682,-0.4941783590358682,0.9999294881333215,0.0002864464003186348
-0.4941039665020071,-0.4941039665020071,1.000464323912068,0.0002588111903554078
-0.49397086807002777,-0.49397086807002777,1.0002442173105608,0.0003008571451486861
-0.4938672596181277,-0.4938672596181277,1.0000773198438462,0.00028921348341400617
-0.4937410532933427,-0.4937410532933427,1.000320008124286,0.0002583524223689352
-0.4936570137302624,-0.4936570137302624,1.0001136412358613,0.0003184549867099785
-0.4935624229197856,-0.4935624229197856,1.0000512608924974,0.0002474783422408472
-0.4935033703019144,-0.4935033703019144,1.0000575426912395,0.0002644149583317534
-0.49338617562898435,-0.49338617562898435,1.0000287099744547,0.00024818640303274
-0.4933355114160804,-0.4933355114160804,0.9999308762524567,0.00029952513534369684
-0.49328155699477066,-0.49328155699477066,1.000220028580919,0.00030957227839025934
-0.4932013332640054,-0.4932013332640054,1.0003406166723596,0.0002738321365499507
-0.49307834081701,-0.49307834081701,1.0001344039217617,0.0002579654895255374
-0.49299392754910515,-0.49299392754910515,0.9999705006117748,0.0002496566255699225
-0.4928801429166924,-0.4928801429166924,1.000266989615083,0.00026863042647031323
-0.492764966620598,-0.492764966620598,1.0002150173074944,0.0002503521474372887
-0.4926842522341758,-0.4926842522341758,0.9997841346364753,0.00025018161579369006
-0.4926436166628264,-0.4926436166628264,0.9998862213426923,0.00028369805628776723
-0.4925475507392548,-0.4925475507392548,0.999810318247523,0.00024379591546131013
-0.4923872670362471,-0.4923872670362471,1.0002048892265312,0.0002377519721968598
-0.49226896434556694,-0.49226896434556694,0.999798977695954,0.00025482195668240763
-0.49218507357581986,-0.49218507357581986,0.9998435280311544,0.00024532828385926976
-0.4921127094770782,-0.4921127094770782,1.0002004652322278,0.00026979000535973723
-0.4920322276710067,-0.4920322276710067,0.9999038112865298,0.00034160632642677504
-0.4919200661708601,-0.4919200661708601,1.0001619341978947,0.00024616132297963235
-0.4917996895092074,-0.4917996895092074,0.9997967316438212,0.0003509099656468963
-0.49166543352184816,-0.49166543352184816,1.0004331534536381,0.00023694002552458737
-0.49149808365327774,-0.49149808365327774,1.0003310531282847,0.0002897962577503912
-0.491424137330614,-0.491424137330614,0.9998139676696903,0.00023383898210456574
-0.491257463285001,-0.491257463285001,0.999949681213051,0.0002597050668817837
-0.4911098000855418,-0.4911098000855418,0.9998053446958053,0.0002489141364934406
-0.49101920243701896,-0.49101920243701896,1.0003114510849183,0.0003216663158972353
-0.4907963434001431,-0.4907963434001431,0.9999278626991435,0.00024502305745453
-0.49052282274933534,-0.49052282274933534,1.000027388348076,0.0002534022519274853
-0.49023643568507397,-0.49023643568507397,1.0001664552880716,0.00023211114554676522
-0.4900639070721809,-0.4900639070721809,1.000202387866886,0.0003080595389001458
-0.48988460277032575,-0.48988460277032575,1.0001143836689068,0.0002929773830963677
-0.48972944434790405,-0.48972944434790405,1.0000410294699733,0.00023524197047780773
-0.4896055716526462,-0.4896055716526462,0.9999507615300554,0.00026136573090856615
-0.4894036929210415,-0.4894036929210415,1.0000652680148159,0.0003009719579717922
-0.48926048527646343,-0.48926048527646343,0.9997870290114269,0.00029079639550287666
-0.4891679865831975,-0.4891679865831975,1.0001903370957597,0.0002498359426822621
-0.4890592202427797,-0.4890592202427797,0.9999303317403546,0.00026464730765590023
-0.4889449373818934,-0.4889449373818934,1.0000056754349536,0.00028997724982810305
-0.48884293194569184,-0.48884293194569184,1.0000236949534813,0.00036022848816041485
-0.4887103898858186,-0.4887103898858186,1.0001130157428475,0.0002531769365333843
-0.48861863437632563,-0.48861863437632563,0.9996817009882332,0.0003170968131257322
-0.48851786205195824,-0.48851786205195824,0.999945492408191,0.0002813201213371031
-0.48843100770027376,-0.48843100770027376,0.9997502334861181,0.0002495342663907696
-0.48834351303230505,-0.48834351303230505,0.9998818633148945,0.00028955932576814824
-0.4882582517864648,-0.4882582517864648,1.0000824150152565,0.00027177430731915094
-0.48820814044738653,-0.48820814044738653,1.0002614509532388,0.00026601972722055937
-0.4881452857865952,-0.4881452857865952,0.9996542070455925,0.0002847281696023761
-0.48804732598364353,-0.48804732598364353,1.0000991451019812,0.0002858510533433276
-0.4879900115542114,-0.4879900115542114,0.9997580827455088,0.00024596473327785656
-0.487929590974818,-0.487929590974818,1.0000411545699635,0.0002532046534370188
-0.4877819853485562,-0.4877819853485562,0.9999769304564605,0.00029724496486079944
-0.4876128929550759,-0.4876128929550759,1.0002123982997575,0.00029279547931629964
-0.4874831786553841,-0.4874831786553841,1.0003412579592024,0.0002937139681969018
-0.48740464709990194,-0.48740464709990194,0.9997777151077483,0.00029119179742438076
-0.487275169158238,-0.487275169158238,0.999683325521849,0.00024183705714320345
-0.4871546612965176,-0.4871546612965176,0.9997668546119751,0.00024412565189609888
-0.4870634747843724,-0.4870634747843724,0.9999341907131996,0.00025027857595156806
-0.4870044388750102,-0.4870044388750102,1.0002098713021066,0.00029996696651903026
-0.48691822370456067,-0.48691822370456067,1.0001534255613533,0.0002734887754874086
-0.4868601658497937,-0.4868601658497937,0.9998677080420363,0.00023767872761696105
-0.4867543386644684,-0.4867543386644684,0.9998295221283261,0.00028862403093364266
-0.4866449391847709,-0.4866449391847709,0.9999001065646425,0.0002557925420710416
-0.4865327576640993,-0.4865327576640993,1.0001517710875016,0.0002633941386391034
-0.48645896355737933,-0.48645896355737933,1.0001153706624752,0.0002464384387013959
-0.48634643880068323,-0.48634643880068323,0.999822747764832,0.00023333216039738317
-0.486240275047021,-0.486240275047021,1.0000603855947852,0.000256799767968093
-0.48614062983251644,-0.48614062983251644,0.9999139247025972,0.0002465123264402409
-0.4860414543421939,-0.4860414543421939,1.0001749684494412,0.00030043706395789114
-0.48589403739606496,-0.48589403739606496,1.000406102723913,0.0002536563469782518
-0.4857608715916285,-0.4857608715916285,0.9998315604540885,0.0002573996142145675
-0.48565534366352947,-0.48565534366352947,0.9999970509222258,0.00029382082748207524
-0.48549164096766617,-0.48549164096766617,0.9999323339633935,0.0002533367353084737
-0.4853024998970795,-0.4853024998970795,1.0001767538409798,0.00028566382086411243
-0.4852464279043488,-0.4852464279043488,0.9997820492218642,0.0002805739130279567
-0.48515479286434127,-0.48515479286434127,1.0000508284744307,0.0002527119489903813
-0.4850616125448141,-0.4850616125448141,1.0000057763745835,0.00030944124135628916
-0.4850145385687938,-0.4850145385687938,0.9996524614365784,0.00023764063325902238
-0.48481520708301107,-0.48481520708301107,1.0000742134992726,0.00026634295661116857
-0.48462962129269727,-0.48462962129269727,0.9996468703991133,0.00023968777372594652
-0.4843857194413431,-0.4843857194413431,1.0002932913686964,0.00025315806583686885
-0.4842500169586856,-0.4842500169586856,1.000376182154465,0.0003333234155814007
-0.48402452014270236,-0.48402452014270236,1.0003041066821947,0.00028069427173118346
-0.48368600113608406,-0.48368600113608406,0.9998775528345583,0.00026178616207511485
-0.4835431243700441,-0.4835431243700441,1.0000012629650104,0.000276199822031237
-0.4833993424370419,-0.4833993424370419,0.9999333956423284,0.00029514957086251777
-0.4832604058436118,-0.4832604058436118,1.0001393700359393,0.0002593981028932309
-0.4831785944086732,-0.4831785944086732,1.000183738039744,0.00025127529089955046
-0.48307664335879963,-0.48307664335879963,1.0001974995158907,0.0003187047000915365
-0.4829609384032665,-0.4829609384032665,1.0000654792200918,0.0002579532501407928
-0.48284013333031905,-0.48284013333031905,0.999734478806206,0.00025117896066236955
-0.4827691128972219,-0.4827691128972219,1.0001583274195014,0.00024950199259493453
-0.4826497884700075,-0.4826497884700075,0.9999735936240255,0.00023793727434980684
-0.4825098239380168,-0.4825098239380168,0.999899273797781,0.0002570350717404658
-0.4822999773576157,-0.4822999773576157,0.9998430104772534,0.00029889285561964445
-0.48223089758248533,-0.48223089758248533,1.0002770557128033,0.00031471555624168035
-0.4821530633256771,-0.4821530633256771,1.0004041918478603,0.00026273762888263393
-0.48209605193987953,-0.48209605193987953,0.9997906486658235,0.0002678404228305253
-0.4820458416361362,-0.4820458416361362,0.9996700119054402,0.00026147883421145967
-0.4819473404175369,-0.4819473404175369,1.000418176651615,0.0002786613278332203
-0.4818443302210653,-0.4818443302210653,1.0002157046719948,0.0002550348734233096
-0.48178673983493353,-0.48178673983493353,0.9995828207465415,0.0002975166139757096
-0.4817357899562921,-0.4817357899562921,1.0004034358215186,0.0003002344219796037
-0.4816375554917613,-0.4816375554917613,0.9998770489344233,0.0002860573970488003
-0.4814705669588875,-0.4814705669588875,0.9997540591075673,0.0002951811760966029
-0.4812485177651979,-0.4812485177651979,1.000153067217558,0.0002588431045706538
-0.4811595513514476,-0.4811595513514476,0.9999525990013263,0.00030480943052683767
-0.4810763271729229,-0.4810763271729229,0.9995444590653648,0.0002675622098797762
-0.4809819059271831,-0.4809819059271831,0.9999657368325036,0.00023528335773650974
-0.4808483982575126,-0.4808483982575126,1.0000202891486223,0.00029365154809168567
-0.48075581385928673,-0.48075581385928673,1.0000699338589378,0.0002791301278257083
-0.4805992885841988,-0.4805992885841988,0.9999674747782799,0.00025680772431241697
-0.48049517620820553,-0.48049517620820553,0.9999610885531371,0.0002456034436507426
-0.4804215856624069,-0.4804215856624069,1.0002510229530182,0.0002629027054336855
-0.4803520628309343,-0.4803520628309343,1.0004798395571204,0.000289961090147687
-0.4802737998281373,-0.4802737998281373,1.000105392715083,0.00025753072653467184
-0.48021799306734464,-0.48021799306734464,1.0002480880015436,0.0002456361452716324
-0.4801061353588011,-0.4801061353588011,1.0004160812731617,0.0002815387036600363
-0.4800295529770665,-0.4800295529770665,1.0000813504212471,0.0002449778860729594
-0.4799694706947776,-0.4799694706947776,0.999633601044937,0.00023048716852147865
-0.47982214377552734,-0.47982214377552734,0.9997857957282879,0.00022484895773715218
-0.47973399979237,-0.47973399979237,1.0000948344063985,0.0002828410969665957
-0.4796855731779942,-0.4796855731779942,1.0001581173452276,0.0002712105896489021
-0.4796388867602218,-0.4796388867602218,0.9998529934140828,0.00026845485010058845
-0.47949454879853876,-0.47949454879853876,0.9997023247210788,0.0002536254184683783
-0.479409403851605,-0.479409403851605,0.9998009990239467,0.00029714852456532386
-0.4793589422653895,-0.4793589422653895,1.0002971691236933,0.00027370007267027874
-0.4792607731447788,-0.4792607731447788,1.0002197810572844,0.0002463745670599467
-0.47917042703484186,-0.47917042703484186,0.9998586029198295,0.0003227381443905542
-0.47904102834290824,-0.47904102834290824,1.0001660845968483,0.00023870030259692555
-0.4789206949615618,-0.4789206949615618,1.0001165479807148,0.0002740484452544515
-0.47880006589111873,-0.47880006589111873,0.9994903431451018,0.0002631666657994399
-0.47866762996127366,-0.47866762996127366,0.9999591145089797,0.0002347172914659544
-0.4785209813155234,-0.4785209813155234,0.9995526603039023,0.0003101857895667803
-0.4784398642601445,-0.4784398642601445,0.9998107407732834,0.0002675157153795905
-0.47833623449259904,-0.47833623449259904,0.9998609087946045,0.0002692239831186933
-0.4781699794635642,-0.4781699794635642,0.9998745573060084,0.0002651742722867883
-0.47796503014396874,-0.47796503014396874,1.0001943748903699,0.00031064122635403774
-0.47779436339915266,-0.47779436339915266,1.0000026589348863,0.0002427720391558232
-0.4776336654118495,-0.4776336654118495,0.9998472531284716,0.0002723427974239207
-0.47752037437749095,-0.47752037437749095,1.0000194849515307,0.0002737879701586005
-0.47737665730237494,-0.47737665730237494,1.0000924138454603,0.0002485629905459932
-0.47724372799566483,-0.47724372799566483,0.999888025333614,0.00028759219068062427
-0.47712248722673395,-0.47712248722673395,1.0001152660824708,0.00026076739740315896
-0.47696482654137073,-0.47696482654137073,1.0000157442870334,0.00027429424929757527
-0.47675137681362684,-0.47675137681362684,1.0000119745374207,0.0002505196119623312
-0.4765978742274456,-0.4765978742274456,0.9999113460989552,0.000286851851555956
-0.4765337748831371,-0.4765337748831371,0.9999990435319559,0.00029147995554280935
-0.47645136175560765,-0.47645136175560765,1.0000610345744785,0.00029440417220044223
-0.47635285258293153,-0.47635285258293153,0.999721674292287,0.0002538790565265473
-0.4762096551246941,-0.4762096551246941,0.9999544463377734,0.0002561008259604601
-0.47607699062209574,-0.47607699062209574,1.00041333501133,0.0002840035882546221
-0.4759534517652355,-0.4759534517652355,1.0002197212934427,0.00024592104031324056
-0.47584903878450857,-0.47584903878450857,1.0000212334131926,0.0002936289800521976
-0.4757649645674974,-0.4757649645674974,0.9999576663190777,0.0003186984552056823
-0.4756054851983208,-0.4756054851983208,1.0000119262538973,0.0002578554736740017
-0.47546958732709754,-0.47546958732709754,1.00000672634426,0.00024497233621323074
-0.47536230051482564,-0.47536230051482564,1.0001022208892436,0.00030343811656536555
-0.47527542556345,-0.47527542556345,0.9999679647392836,0.00029743482091516827
-0.4752064583968604,-0.4752064583968604,1.0002301535372031,0.00026044051197038603
-0.47505002639081795,-0.47505002639081795,0.9998539016255794,0.00028523926015508255
-0.4749011919746408,-0.4749011919746408,0.9998864432887107,0.00025338816521951863
-0.474747689589276,-0.474747689589276,1.0001060640873694,0.00028551733355407363
-0.4746513413905632,-0.4746513413905632,1.000003567937815,0.00025074055124458085
-0.47457188812841195,-0.47457188812841195,0.9998804492685809,0.0003011204270871248
-0.4744659585645422,-0.4744659585645422,0.9998715974769052,0.0002899644812225031
-0.4743611460959073,-0.4743611460959073,0.9999017344542296,0.0002549322020100348
-0.4742879311350407,-0.4742879311350407,0.999626595235509,0.0002444379684237776
-0.474224075418897,-0.474224075418897,1.0002173460358943,0.00028494702570877796
-0.47414890152576844,-0.47414890152576844,1.0001133075944697,0.00025091825901312446
-0.47407731731073,-0.47407731731073,0.999720480767633,0.00030201243624182716
-0.4739655901066726,-0.4739655901066726,1.0004104020028475,0.00024525274066391594
-0.4738809314847458,-0.4738809314847458,1.0005455044553078,0.0003001636540905809
-0.4737701208447106,-0.4737701208447106,0.9996368109318677,0.00024395165771026934
-0.47364135818497743,-0.47364135818497743,1.0004497853906948,0.00024042936928387652
-0.47355910756159575,-0.47355910756159575,0.9996322356154295,0.00024881785689532463
-0.473481740738498,-0.473481740738498,1.0001925877689382,0.00025658730823862995
-0.47341549315606246,-0.47341549315606246,1.0003452415217766,0.00026581340059443935
-0.4733060086873593,-0.4733060086873593,1.0003995986139116,0.000265440712898173
-0.47318156574328896,-0.47318156574328896,0.9997034546866661,0.0002968694626003552
-0.47302899418573363,-0.47302899418573363,1.0000606859694874,0.00023866690465856926
-0.47297651039261834,-0.47297651039261834,0.9995243150893851,0.00028498682257217074
-0.47288106941850855,-0.47288106941850855,1.0000295068882559,0.0002679422946743252
-0.4727214063692372,-0.4727214063692372,0.999851984763351,0.00025918212661536516
-0.47255311052722393,-0.47255311052722393,0.9999250212326911,0.0002977371391894465
-0.4724003803275991,-0.4724003803275991,0.9997604355832316,0.00029059814845006597
-0.47226771533896683,-0.47226771533896683,0.9998227387729894,0.00023024381083557006
-0.47220848607539667,-0.47220848607539667,0.9998464125456789,0.00023969081274549035
-0.4721174216712825,-0.4721174216712825,1.0003748098097665,0.00030078073720943033
-0.47197797321423424,-0.47197797321423424,0.9998089558322818,0.00025867861641696454
-0.47178386643936393,-0.47178386643936393,1.0002266144103367,0.0002619644330155152
