time,time,flux,flux_err
-0.49991306950323633,-0.49991306950323633,0.9979232919730746,0.0013631669176897376
-0.49966396556192194,-0.49966396556192194,0.9997252229400528,0.0012984432499592753
-0.499562629218417,-0.499562629218417,1.000067767696636,0.0010704716790371522
-0.4993630313059839,-0.4993630313059839,1.0006037087111943,0.001087397734930199
-0.49924570743460206,-0.49924570743460206,0.9984844331645446,0.0011158936492996917
-0.4990993424282351,-0.4990993424282351,1.0001368209159913,0.0011298314322140297
-0.49897179242761924,-0.49897179242761924,0.9991513489788486,0.0012828645417915713
-0.49880226117238635,-0.49880226117238635,0.9997121028703371,0.0011993054501992578
-0.4987233368308807,-0.4987233368308807,0.999573951183501,0.0014369877206026737
-0.49863085620308994,-0.49863085620308994,1.0000147034154367,0.0012901122155632193
-0.49855750209680993,-0.49855750209680993,1.000766244569002,0.0012350813654529278
-0.4984353381449182,-0.4984353381449182,1.0010619918677164,0.001329268925014448
-0.4983227073418675,-0.4983227073418675,1.000184105700265,0.001144747112780814
-0.4981726043275557,-0.4981726043275557,1.0011686773520232,0.0013625658795176224
-0.4980544624522736,-0.4980544624522736,0.999725151511743,0.0012989105262179329
-0.4978869940408913,-0.4978869940408913,1.000628334876312,0.0011169191374276607
-0.4977856579062063,-0.4977856579062063,0.999847878068459,0.0012184861680108394
-0.4977072573550686,-0.4977072573550686,1.0000656485388855,0.0009880206770024745
-0.4975850831651769,-0.4975850831651769,1.0006071567722803,0.000987097691123809
-0.4974485130631365,-0.4974485130631365,0.9993780903045184,0.001134643090224344
-0.4973131257320347,-0.4973131257320347,1.0004972478572676,0.0010579515235980752
-0.49717066043813246,-0.49717066043813246,0.9997730104517792,0.0009206753851476055
-0.49698098114677125,-0.49698098114677125,0.9996596211464442,0.0009475700522791196
-0.4968914719655004,-0.4968914719655004,1.0015308284237587,0.0012264870490694497
-0.4968009054617141,-0.4968009054617141,0.9990583505291395,0.0012972658585251383
-0.4965842990146484,-0.4965842990146484,0.9999845513043807,0.000991555980912854
-0.4964467755060468,-0.4964467755060468,0.999607398701141,0.0010056704365407584
-0.4963355181927909,-0.4963355181927909,1.0003170953270315,0.0011474095422224603
-0.4961302253483154,-0.4961302253483154,1.0013861338099341,0.0011355285369277685
-0.4960145984608971,-0.4960145984608971,1.0005820840993995,0.0011345740610997637
-0.49588436483536497,-0.49588436483536497,1.000492581166459,0.001338438637275606
-0.4957919639935426,-0.4957919639935426,0.9995303671358873,0.0016033385683373147
-0.49568602425497377,-0.49568602425497377,0.9989817626002437,0.0013555137854866235
-0.4955043554960866,-0.4955043554960866,0.9994181393437351,0.0009169725958555247
-0.4954311290479382,-0.4954311290479382,1.0005522908094826,0.001030047148010814
-0.4952939795795828,-0.4952939795795828,0.9993733879018614,0.0013079351753860046
-0.4951840346198878,-0.4951840346198878,0.9998540296310929,0.0014102672844821713
-0.49505192104988965,-0.49505192104988965,0.9981658667940714,0.0008964100445818572
-0.49485090630405465,-0.49485090630405465,1.000342845810863,0.0009856104700947514
-0.4946722661974491,-0.4946722661974491,0.9999771057158451,0.0012521901119450824
-0.494566186004522,-0.494566186004522,0.9995067714148504,0.0009650432937603254
-0.49444431824667845,-0.49444431824667845,1.0004127794526092,0.0009595819942401152
-0.49432196107518395,-0.49432196107518395,0.9997861549836238,0.0009283004047582839
-0.49422954699984983,-0.49422954699984983,1.000876106547932,0.0011374574824738284
-0.4940970383082458,-0.4940970383082458,0.9999656139679901,0.0012437418235867034
-0.4939910884240817,-0.4939910884240817,1.0010613299039242,0.0013652614019176736
-0.49390187106764644,-0.49390187106764644,1.0007375382714723,0.0009408139442614197
-0.4937946261568868,-0.4937946261568868,0.9988359501373273,0.0012263832896857699
-0.4936877277767053,-0.4936877277767053,1.0009706092097308,0.0012290081355755514
-0.49358659687204637,-0.49358659687204637,0.9984802915694543,0.0010454474189282165
-0.49350577233635706,-0.49350577233635706,1.000634136217147,0.0010256705304247215
-0.49344910646541396,-0.49344910646541396,0.9997591332614881,0.0011476341006975833
-0.4933532053648378,-0.4933532053648378,1.0004137871883891,0.0010781176494934629
-0.493281910490623,-0.493281910490623,0.9999787361617958,0.0011991872035773442
-0.493054144630878,-0.493054144630878,0.999495638195642,0.001173044531170625
-0.49290474123263267,-0.49290474123263267,0.998720334373193,0.0011715275827999748
-0.4928131977452722,-0.4928131977452722,1.0004888821563112,0.0012226304670288931
-0.49268864035257137,-0.49268864035257137,1.0004872730090035,0.0011683994216015936
-0.4925256731432455,-0.4925256731432455,0.999465375819575,0.0009607960468758492
-0.49229071315858164,-0.49229071315858164,0.9988399685843437,0.0011765183916743846
-0.49210740049311424,-0.49210740049311424,1.000309536351288,0.0010990170240446988
-0.49191253142344066,-0.49191253142344066,0.9997637069755209,0.0009732192699630421
-0.4917074265526026,-0.4917074265526026,0.9993881204897056,0.001155778694289079
-0.49162526100844844,-0.49162526100844844,1.0005098005687556,0.001296835294627217
-0.4915440721750201,-0.4915440721750201,0.9997936046169664,0.0011751746457072118
-0.49143914310698167,-0.49143914310698167,0.9990000647748989,0.0009407183009057421
-0.49136731098406017,-0.49136731098406017,0.9998077774711838,0.0011071557553236546
-0.49124069222816613,-0.49124069222816613,1.0002448212145612,0.001266689184243192
-0.49117188913223797,-0.49117188913223797,1.0002345562770483,0.001104273455211948
-0.4911047253750439,-0.4911047253750439,0.999960396742862,0.001437475331455805
-0.49099074482001015,-0.49099074482001015,1.0008906769689878,0.0012804063150636338
-0.4907536226492084,-0.4907536226492084,0.9993257864304773,0.0012136691770726475
-0.4906818731869862,-0.4906818731869862,1.0007630111817067,0.0011635888585844099
-0.4905784231988946,-0.4905784231988946,0.9990145773196162,0.0009261094332328782
-0.49046118742990075,-0.49046118742990075,1.0003212512511415,0.00099801094246917
-0.4902020175570215,-0.4902020175570215,1.0002679831553025,0.0011699606421946983
-0.4901009677319962,-0.4901009677319962,0.9990859652783282,0.0010849861170995495
-0.4899645343561133,-0.4899645343561133,1.000200656061526,0.0012805765098807724
-0.4897466124173661,-0.4897466124173661,1.0001024797087434,0.001088392866807486
-0.4895941733608197,-0.4895941733608197,1.0000185263360468,0.000999001053377738
-0.48936263892319404,-0.48936263892319404,1.000727667898438,0.0013145276316062619
-0.48924757598069846,-0.48924757598069846,0.9998738836856095,0.0010126818418442509
-0.48910093558733936,-0.48910093558733936,0.9997734210185115,0.0011372949040735097
-0.4889814090987784,-0.4889814090987784,0.9992907995687332,0.00133743514070275
-0.4888607761065941,-0.4888607761065941,1.0003233027499754,0.0012790057766301165
-0.4887705283341347,-0.4887705283341347,1.0000293827497164,0.0014147371762376281
-0.4886589061876293,-0.4886589061876293,0.9989561975806904,0.0011339266595655195
-0.4885786405371618,-0.4885786405371618,0.9992533789458464,0.0012913272425873925
-0.4884883473619993,-0.4884883473619993,0.9991268108902073,0.0011531020625052926
-0.4884165158451651,-0.4884165158451651,0.9995318646446469,0.001087592097892825
-0.4882552313392807,-0.4882552313392807,1.0016124495417613,0.0013635949047000654
-0.4881523431344249,-0.4881523431344249,0.9994672236874262,0.0013544456283876188
-0.48803309416107366,-0.48803309416107366,0.9998133436841,0.001047631048811931
-0.4878890638385201,-0.4878890638385201,1.0020219914790265,0.0012351848332173292
-0.4877467210695613,-0.4877467210695613,0.9995929347642409,0.0009257998263250692
-0.487615188453492,-0.487615188453492,0.9993708005557445,0.0011429058659565717
-0.48739856738684467,-0.48739856738684467,1.0000286100210036,0.0010590550582934705
-0.4872845507823513,-0.4872845507823513,1.0007026214855876,0.0011682815222441335
-0.4870990377181442,-0.4870990377181442,1.001092523279677,0.0010540276020835314
-0.4870107813272625,-0.4870107813272625,1.0000377377489846,0.001431912023469581
-0.48690069269723607,-0.48690069269723607,1.000220617947933,0.0010365639126924825
-0.48671887517921275,-0.48671887517921275,0.9995692938435834,0.001093819526891812
-0.4865827697896748,-0.4865827697896748,1.0001088780077776,0.001006273482668353
-0.4864598499807471,-0.4864598499807471,0.99986889378492,0.001065785926655936
-0.4863675361404603,-0.4863675361404603,1.0004512820262048,0.0010665289393128612
-0.48619869226240553,-0.48619869226240553,1.0008290012731105,0.0011402868111259578
-0.48605698834217037,-0.48605698834217037,0.9988530940019764,0.0011146189899890707
-0.48593706624160404,-0.48593706624160404,0.9999160166102483,0.001380069930227532
-0.4858545910632529,-0.4858545910632529,0.9996344738471933,0.0016050832834529224
-0.4856835431419313,-0.4856835431419313,1.0008844322570254,0.001023971694757789
-0.4855576468056825,-0.4855576468056825,1.0000274840045913,0.001038388200691817
-0.48546024308525376,-0.48546024308525376,0.9987341013181841,0.0010714210293346952
-0.48537910307277343,-0.48537910307277343,0.9996090365028516,0.0014533016410489088
-0.48527048134128564,-0.48527048134128564,1.0005959955167125,0.0012787367451463885
-0.48516292195999994,-0.48516292195999994,1.0006392407688884,0.00105241458560367
-0.48496803493908375,-0.48496803493908375,0.9997524306286796,0.0009768647333432434
-0.4848209829593543,-0.4848209829593543,0.9990722572025991,0.0011497154930217163
-0.4847251954583044,-0.4847251954583044,0.9993458863059409,0.001117581925419267
-0.4846470442498685,-0.4846470442498685,1.0001609277163916,0.0009697040408213243
-0.4845582680376538,-0.4845582680376538,1.0002954611631485,0.0009446431509680553
-0.4844498537800973,-0.4844498537800973,1.0002547436209042,0.0009226343088113926
-0.4843522186733026,-0.4843522186733026,1.0018704009689336,0.0010055328831213852
-0.48418746571260274,-0.48418746571260274,1.0003231906511842,0.0012280706733942754
-0.48410077407388596,-0.48410077407388596,1.000697613964135,0.0013616489302876009
-0.483966237763525,-0.483966237763525,0.9992616840196309,0.0009355920851197323
-0.4837911505404918,-0.4837911505404918,1.0013752432545036,0.0010796739863942657
-0.4836809972999617,-0.4836809972999617,0.9991334055256548,0.0010457166543241382
-0.4835689682971861,-0.4835689682971861,1.0007076945148519,0.0011261492843379832
-0.4835103140103456,-0.4835103140103456,1.0011837826668077,0.0009847345708201233
-0.4834211958681408,-0.4834211958681408,0.9998283579679471,0.0010892155053309409
-0.4833311391987081,-0.4833311391987081,1.0011391618473986,0.001223466888383888
-0.48318551172633306,-0.48318551172633306,1.0002529460065677,0.0010510593131114342
-0.4830824865042814,-0.4830824865042814,0.9992446516008927,0.0010635482485077642
-0.4829827303961792,-0.4829827303961792,0.9986791419566463,0.0013531417883420657
-0.4828508225196856,-0.4828508225196856,1.0001877182266894,0.001035753291300167
-0.4827363762342429,-0.4827363762342429,0.9988858454815535,0.001104873173374273
-0.48253423613496127,-0.48253423613496127,1.0000339275490202,0.0012323223672397608
-0.4822671988120419,-0.4822671988120419,1.0010474738896404,0.0011055539630409322
-0.48211128347466004,-0.48211128347466004,0.9992736285256483,0.0010731661682555503
-0.48190733352093956,-0.48190733352093956,0.999699687310254,0.0011931120429051914
-0.4817275949222676,-0.4817275949222676,1.0001502793742116,0.0009947805567722206
-0.48164136274936026,-0.48164136274936026,1.0010010328488592,0.0012422900242536473
-0.4815299831832817,-0.4815299831832817,0.9995252426378267,0.00097808001805271
-0.48140238853156914,-0.48140238853156914,0.999875309394427,0.0011844335389597084
-0.48128653616950035,-0.48128653616950035,1.0001638308465477,0.001173258752846512
-0.4812117958063027,-0.4812117958063027,0.9997868074587928,0.0014959391266482634
-0.48108443418968816,-0.48108443418968816,0.9990033303562427,0.0013596334695411497
-0.4808232317249349,-0.4808232317249349,0.9996820869967449,0.0012722623173935309
-0.48075525815293074,-0.48075525815293074,1.0003494133229944,0.0009655908683759087
-0.48066415141584,-0.48066415141584,1.0011402390463429,0.0009013085396242605
-0.4805633231597312,-0.4805633231597312,1.0001902666455624,0.001008609736722674
-0.48036543190464726,-0.48036543190464726,1.0005780884348887,0.001123993789688874
-0.48023471104388593,-0.48023471104388593,1.0002665073428898,0.0012812172210848972
-0.48010976311052217,-0.48010976311052217,0.999375288599318,0.0012941242097572164
-0.47991913934092734,-0.47991913934092734,1.0006637890376346,0.0011007683782820678
-0.47979526980416265,-0.47979526980416265,0.9996130283833609,0.0010034144916071487
-0.4795572718947369,-0.4795572718947369,0.9989926842786495,0.0012002724379363784
-0.47940554904344024,-0.47940554904344024,0.9983345507350856,0.000999153758589499
-0.4792047227580042,-0.4792047227580042,1.0011391242727297,0.001228880615381138
-0.4790869565993489,-0.4790869565993489,0.9990447255379046,0.001184660128092882
-0.47897734249345375,-0.47897734249345375,1.0006009556655397,0.0012438507667785778
-0.47887478680786444,-0.47887478680786444,1.0013234424708606,0.0015074866743435063
-0.4787430808893987,-0.4787430808893987,0.9996125507692997,0.0010697534703181565
-0.47865322813013333,-0.47865322813013333,1.0003870501777592,0.0012487916130569617
-0.47857180180872094,-0.47857180180872094,0.9993717814937684,0.0010790462595402285
-0.4785035360939219,-0.4785035360939219,1.0008653226153084,0.0012036944079433201
-0.4783443411892222,-0.4783443411892222,0.9996917755566855,0.0016146939069411584
-0.4782362904414185,-0.4782362904414185,1.0009757983317438,0.0011453328829597517
-0.47813371392185217,-0.47813371392185217,1.0000439253222075,0.0010863000305918926
-0.477946202235762,-0.477946202235762,1.0001294862816645,0.001223315794398282
-0.4778450035206333,-0.4778450035206333,0.9997565809626094,0.0010137511404244028
-0.4777405298445956,-0.4777405298445956,1.0002058037927264,0.0011613314584122537
-0.4775883048510877,-0.4775883048510877,0.9986142166605836,0.0009398891021548391
-0.4774348170205485,-0.4774348170205485,1.0010812558765845,0.0010743906432598874
-0.4773227042322105,-0.4773227042322105,0.9995561804565266,0.0012675189174820277
-0.4771995684037392,-0.4771995684037392,0.99900657084058,0.0012321503142281834
-0.47706896494491957,-0.47706896494491957,1.0001422266574,0.0011848279064358403
-0.4769643565436127,-0.4769643565436127,1.0000686094152,0.0010523357359998118
-0.4768255046539707,-0.4768255046539707,0.9999730883766198,0.0011390600087083662
-0.47666127237534966,-0.47666127237534966,0.9994782111861952,0.0009088775598607466
-0.4765291821786377,-0.4765291821786377,1.0005210437512444,0.0010224029007217558
-0.47636971505053227,-0.47636971505053227,0.9994353426215785,0.0011392372785369097
-0.47624986080118104,-0.47624986080118104,1.0008202258086616,0.001219484039915337
-0.47610247266638905,-0.47610247266638905,0.9999779074663959,0.0012348469029073122
-0.4760267925266817,-0.4760267925266817,1.000323402398396,0.0014577629422288848
-0.4759680947223387,-0.4759680947223387,1.000329469170698,0.0014978444433117058
-0.47582123426836914,-0.47582123426836914,1.0007667915279432,0.0011136023944885514
-0.4757193977413408,-0.4757193977413408,0.999877528603854,0.0011374968564404312
-0.47559434094073366,-0.47559434094073366,1.0003058232064084,0.0009530191211464027
-0.47551595609256764,-0.47551595609256764,1.0008378545123615,0.0012881737150633194
-0.47543611454966594,-0.47543611454966594,1.0003149284513815,0.0014800003973168348
-0.47527950438525296,-0.47527950438525296,1.0003084362388972,0.0011213051785129906
-0.4750869150913786,-0.4750869150913786,0.9991870424788267,0.0011893147330357492
-0.47493412731491846,-0.47493412731491846,1.0005139292962957,0.0009237535237520804
-0.4748467014185735,-0.4748467014185735,1.0002116518595932,0.0010491469810585481
-0.4747567611084378,-0.4747567611084378,1.0018439615147348,0.0011414256402867433
-0.47464826050563713,-0.47464826050563713,1.0004115625505066,0.0008933503534594472
-0.474475544620509,-0.474475544620509,1.0007305606872183,0.000927091563998393
-0.47440125470238853,-0.47440125470238853,1.0002020699394283,0.0012047268357972454
-0.47427044498181203,-0.47427044498181203,1.0009527286531394,0.0012183977979476912
-0.47413239830639214,-0.47413239830639214,0.99957076961265,0.0011754984885391233
-0.47391573829663686,-0.47391573829663686,1.000698960488431,0.0010063636207884887
-0.47378805428234044,-0.47378805428234044,0.9995102478650241,0.0010549588363442076
-0.4736812054674374,-0.4736812054674374,0.9995009011351449,0.0009848681184014521
-0.4735750082916638,-0.4735750082916638,1.0008621035072003,0.0011188342647018843
-0.4734344662676449,-0.4734344662676449,1.000183807707085,0.0012370208271248796
-0.4733655650088622,-0.4733655650088622,0.9997513956870131,0.0011857796424396437
-0.473211599606293,-0.473211599606293,0.9995990025658094,0.0010563773307696587
-0.47309937265890767,-0.47309937265890767,0.9996692396461778,0.0015256977832758718
-0.47299251399890635,-0.47299251399890635,1.0000013477149279,0.0011501499161520662
-0.47290828689583575,-0.47290828689583575,0.9993648389137382,0.0010568962302626161
-0.47280372920504304,-0.47280372920504304,1.000687590312442,0.0011030223552091572
-0.47268773166433675,-0.47268773166433675,1.0017280833173188,0.001256661792617369
-0.4724982427622308,-0.4724982427622308,1.0008213339424423,0.00124787151129899
-0.47233843329086084,-0.47233843329086084,1.0008813913172436,0.001079382800453834
-0.4721891772787785,-0.4721891772787785,0.9998583322210524,0.0010850880070782172
-0.4720498126160237,-0.4720498126160237,0.9995573152191712,0.0012841477856443393
-0.47188559174974215,-0.47188559174974215,0.998974462180278,0.0009827107071211187
-0.4717866009763384,-0.4717866009763384,0.9994191625800516,0.0009796143707364242
-0.4716818769025849,-0.4716818769025849,1.0001131481735857,0.0010984240120990038
-0.47162330231149097,-0.47162330231149097,0.9997132416244732,0.0010889383661746833
-0.47148045830836055,-0.47148045830836055,1.0007289051994732,0.0012081489280285375
-0.47134341206474345,-0.47134341206474345,1.0008850463736556,0.0013063656540010956
-0.4712960808617936,-0.4712960808617936,1.0013334966513479,0.0013663386580802842
-0.4711307797471818,-0.4711307797471818,1.0009963673006677,0.0011437504259212959
-0.47089686532708586,-0.47089686532708586,1.0000727012352848,0.0011491000748760584
-0.47080341078326454,-0.47080341078326454,1.000433799921122,0.0009630200680613262
-0.47075859269461945,-0.47075859269461945,1.0013904482370384,0.0010469478874050558
-0.47070265215297696,-0.47070265215297696,0.9998967880826491,0.0010533901893284444
-0.4705060732194397,-0.4705060732194397,0.998703234903376,0.0011744224762158134
-0.47034585667497597,-0.47034585667497597,1.0000851399585138,0.0009723978652099259
-0.47019735661451706,-0.47019735661451706,0.9993694634924303,0.0014039726655629124
-0.4700136936575291,-0.4700136936575291,1.0001993028322311,0.001095378790342295
-0.46989221475159865,-0.46989221475159865,1.000468260611356,0.0010066514805578293
-0.4697134537236707,-0.4697134537236707,0.9989793868577808,0.0009553291403746869
-0.4695750225051597,-0.4695750225051597,0.9994456793294745,0.0012049537309908758
-0.4694645718976972,-0.4694645718976972,0.9988364859814084,0.001117556559786845
-0.46927200702994015,-0.46927200702994015,1.000035472546558,0.0011635261601080004
-0.4691080782082281,-0.4691080782082281,0.9997410261265699,0.001291282050447545
-0.4690522045275429,-0.4690522045275429,1.0000110253286656,0.001227965365156267
-0.46898030063312035,-0.46898030063312035,1.0007596488657473,0.0014361119917625253
-0.46884018728596855,-0.46884018728596855,0.9996122021794303,0.0010833740384431413
-0.46871080324126524,-0.46871080324126524,0.999397980935721,0.0011879766832472223
-0.4686321964582021,-0.4686321964582021,0.9995499201796824,0.0011474744393173085
-0.46856424350407905,-0.46856424350407905,0.9998069138856807,0.0011702242259740282
