time,time,flux,flux_err
-0.49974417509220076,-0.49974417509220076,0.9998983409419206,9.087016993229504e-05
-0.49931577274182926,-0.49931577274182926,0.9999659389586896,9.181186223525573e-05
-0.4988318434552639,-0.4988318434552639,0.9999292620231911,9.214314738568288e-05
-0.49846243770371074,-0.49846243770371074,1.0000886064485222,9.294136590375915e-05
-0.49827130670528275,-0.49827130670528275,1.0001120496565128,9.195239776690617e-05
-0.4978324538496963,-0.4978324538496963,0.9998569549364518,8.982598510269214e-05
-0.49702055125526384,-0.49702055125526384,1.0000693047849658,9.094877455524146e-05
-0.49656805230188183,-0.49656805230188183,1.0000373264782563,9.051308112095012e-05
-0.4962894170639629,-0.4962894170639629,1.000010502428421,9.140002330941058e-05
-0.4957612143873121,-0.4957612143873121,0.9999528027961432,9.193344837877621e-05
-0.4952705712843454,-0.4952705712843454,1.0001308389693893,9.287602774858287e-05
-0.4948993137870275,-0.4948993137870275,0.9999475994109682,9.064903815789138e-05
-0.49414115053077695,-0.49414115053077695,1.0000421094763279,9.000175428151729e-05
-0.4934318741899915,-0.4934318741899915,1.0000181177265772,9.068267119678137e-05
-0.49299371832821637,-0.49299371832821637,1.0000096859220065,9.125532394515788e-05
-0.4927452758733125,-0.4927452758733125,1.0002577117600524,9.07375049620624e-05
-0.49251643634124775,-0.49251643634124775,0.9999277277828293,9.218241326197648e-05
-0.4922703564807307,-0.4922703564807307,1.0000052676518147,9.200464258369664e-05
-0.4921538542788767,-0.4921538542788767,1.0001154814457254,9.250924698524866e-05
-0.4912802530365298,-0.4912802530365298,1.0002199001497174,9.005622405699784e-05
-0.4904154515301343,-0.4904154515301343,1.000022692555878,9.089543636316866e-05
-0.48991476057854016,-0.48991476057854016,1.0000169971570894,9.045447596698619e-05
-0.4895995912273065,-0.4895995912273065,0.9998982516707375,9.206639629545897e-05
-0.4892276456259424,-0.4892276456259424,0.9998467109402519,9.166191333670108e-05
-0.4890671842833399,-0.4890671842833399,0.9999811275911968,9.260890909495977e-05
-0.4889672685188998,-0.4889672685188998,0.9997942310595068,9.261835798251624e-05
-0.4886664221638057,-0.4886664221638057,1.000003757141886,9.000569840859207e-05
-0.4881400296872016,-0.4881400296872016,0.99995944865718,8.982790383335582e-05
-0.4876257494666788,-0.4876257494666788,1.0001185610399186,9.03122151349924e-05
-0.48693059913130127,-0.48693059913130127,0.9998882242661453,9.129468600042881e-05
-0.4865776461592759,-0.4865776461592759,0.9999863696666782,9.116138986270292e-05
-0.48627166654623577,-0.48627166654623577,0.9999103520319867,9.147483676774083e-05
-0.48595065714180236,-0.48595065714180236,1.0000010464823812,9.357283598819502e-05
-0.48582741633290427,-0.48582741633290427,1.0000976053717674,9.054890420953423e-05
-0.4852032528498967,-0.4852032528498967,0.9998664243284857,9.021489916930131e-05
-0.48464760302667853,-0.48464760302667853,0.9999363366385341,8.995661949931056e-05
-0.48399435163009913,-0.48399435163009913,0.9997264719463272,9.106844543675495e-05
-0.4834723682630283,-0.4834723682630283,1.0001289720468993,9.106819645334253e-05
-0.4831307536565873,-0.4831307536565873,1.0001574537152835,9.140867765504838e-05
-0.4828118557903508,-0.4828118557903508,1.0000189847413996,9.350539463975594e-05
-0.48272936763751206,-0.48272936763751206,1.0001197957898076,9.123144972520047e-05
-0.48238478485072844,-0.48238478485072844,1.0000373684781354,9.006478453093032e-05
-0.48157557991507927,-0.48157557991507927,0.9999493354509766,9.019080817539827e-05
-0.4810457859770395,-0.4810457859770395,0.9999074800322163,9.067923636374087e-05
-0.48069971969744074,-0.48069971969744074,0.9999963038398343,9.197932224647344e-05
-0.48001805812091336,-0.48001805812091336,0.9999361692284872,9.031906517113955e-05
-0.4797357419403852,-0.4797357419403852,1.0001198608462094,9.298719675387073e-05
-0.479596677646623,-0.479596677646623,1.0000422991753577,9.197021035099102e-05
-0.47921262490199296,-0.47921262490199296,1.0001061137640455,8.980657231698048e-05
-0.47840246422056226,-0.47840246422056226,1.0000780603597375,9.017909672086444e-05
-0.4778152856357337,-0.4778152856357337,1.0000266336195514,9.048521155459559e-05
-0.4775117189179582,-0.4775117189179582,0.9998857127988175,9.199720166800987e-05
-0.4770360666945635,-0.4770360666945635,0.9999957428532251,9.139982829917125e-05
-0.47657646135849063,-0.47657646135849063,1.0001352891994784,9.202947019109942e-05
-0.4758720855083084,-0.4758720855083084,0.999984128381785,9.00507655151412e-05
-0.4749679454049328,-0.4749679454049328,1.0000589207388872,9.062087146920409e-05
-0.4744722362374887,-0.4744722362374887,0.9998104443034922,9.054580157865605e-05
-0.4740993862840696,-0.4740993862840696,1.0000079560720936,9.079184543908643e-05
-0.4738492033422517,-0.4738492033422517,1.0001102431153495,9.12995648930588e-05
-0.47363225557055555,-0.47363225557055555,0.9999134393825104,9.192761285253654e-05
-0.47349585182601006,-0.47349585182601006,1.0000639705895502,9.276945215265236e-05
-0.4731489810103085,-0.4731489810103085,1.0001514111825132,9.017975030698937e-05
-0.47209898563451136,-0.47209898563451136,0.9998495577037125,9.036451616389917e-05
-0.4715838582313154,-0.4715838582313154,0.9998328371984246,9.054872057939482e-05
-0.4711320586837246,-0.4711320586837246,1.0000016685352147,9.07088536773962e-05
-0.4707339585962472,-0.4707339585962472,1.0000982049283198,9.254774427722392e-05
-0.47037566852595775,-0.47037566852595775,0.9999319432020222,9.239192357820476e-05
-0.47011942055105466,-0.47011942055105466,1.0000361651330547,9.119998819491804e-05
-0.4695311217714334,-0.4695311217714334,1.0001121801445167,8.986819536408752e-05
-0.46895021998570885,-0.46895021998570885,1.00005655038022,9.03050358999836e-05
-0.46844656570392545,-0.46844656570392545,0.9999471412584698,9.065504239533626e-05
-0.4680987276755332,-0.4680987276755332,1.0000420102051217,9.098367025119642e-05
-0.46786802816495765,-0.46786802816495765,0.9999647822521804,9.115640961719133e-05
-0.46751204642278027,-0.46751204642278027,1.0001186442457528,9.217223835319251e-05
-0.46727327199041613,-0.46727327199041613,1.00006388020957,9.261572865559987e-05
-0.46718134360417024,-0.46718134360417024,1.0000303741143968,9.179916747797107e-05
-0.46674521024760907,-0.46674521024760907,0.9999008450799731,8.999615606527752e-05
-0.46588205920634207,-0.46588205920634207,0.9999984790109778,8.972359615918676e-05
-0.4653246680965822,-0.4653246680965822,0.999891678673207,9.115778400679766e-05
-0.46477642117097273,-0.46477642117097273,0.9999563025304334,9.180139017087258e-05
-0.46448761913052294,-0.46448761913052294,1.0000373549054198,9.075895677406807e-05
-0.46426083120313705,-0.46426083120313705,1.0000126502888935,9.220198619744521e-05
-0.464071996583516,-0.464071996583516,0.9999477450000491,9.252947028295796e-05
-0.4636911039749975,-0.4636911039749975,1.000035650303771,8.993888366451184e-05
-0.46305522211259814,-0.46305522211259814,1.000055822267254,8.991354791842837e-05
-0.46248922872837284,-0.46248922872837284,0.9999736449255584,9.076472698358394e-05
-0.46212895678108906,-0.46212895678108906,1.0000205397724025,9.135757041609131e-05
-0.46167139866010987,-0.46167139866010987,0.9999184866856808,9.146902473894698e-05
-0.4611291653418448,-0.4611291653418448,1.0000547082288118,9.059191689906449e-05
-0.46093849870303527,-0.46093849870303527,0.999980279205203,9.326279868634397e-05
-0.4605107957031578,-0.4605107957031578,0.9999165548237448,8.96709559948029e-05
-0.4599200643104268,-0.4599200643104268,1.000032023394723,9.121560785767977e-05
-0.4590967596443079,-0.4590967596443079,1.0002145121798214,9.056506152625609e-05
-0.4587371092486137,-0.4587371092486137,1.0000760537081854,9.131450952735123e-05
-0.4584264299715869,-0.4584264299715869,1.0000036093124043,9.210049980087773e-05
-0.45798349416800194,-0.45798349416800194,0.9998077761786017,9.168380670417798e-05
-0.4571642586721282,-0.4571642586721282,1.0000289075608357,9.098499889200093e-05
-0.45650912896308,-0.45650912896308,0.9999478471238554,9.012662021021692e-05
-0.4560412132224883,-0.4560412132224883,0.999889775631918,9.098550727220778e-05
-0.45571144786663353,-0.45571144786663353,1.0000347201611521,9.064987015256974e-05
-0.4553887568807113,-0.4553887568807113,1.0000889721372506,9.057595789480584e-05
-0.45517800841771533,-0.45517800841771533,1.0000872753072527,9.148538761056358e-05
-0.45493329367236585,-0.45493329367236585,0.9999799525880342,9.188664849502605e-05
-0.454789794379758,-0.454789794379758,1.0003026968189601,9.208865231774152e-05
-0.4543787916016299,-0.4543787916016299,1.0001360365163183,9.019732038061263e-05
-0.45354974559595573,-0.45354974559595573,0.9999275644763491,9.029190163498463e-05
-0.45309196323141804,-0.45309196323141804,0.9999585277512469,9.07788510545733e-05
-0.4525752369576367,-0.4525752369576367,1.0000342093608314,9.064083730128634e-05
-0.45226458978504525,-0.45226458978504525,1.0000304057276572,9.148471415617492e-05
-0.45194163139531157,-0.45194163139531157,0.9998330418584158,9.133805525205305e-05
-0.45168240196071563,-0.45168240196071563,1.000083903070967,9.238178820994802e-05
-0.45147989142351436,-0.45147989142351436,1.0000082818811045,9.161875396382634e-05
-0.45076580714303416,-0.45076580714303416,0.9999595171472372,9.009736616009338e-05
-0.45024239387785203,-0.45024239387785203,0.9999971117515883,9.070724331796042e-05
-0.44970152533132934,-0.44970152533132934,1.0000388114091665,9.097181961229396e-05
-0.44927758018529856,-0.44927758018529856,0.9999688705259298,9.071089100728e-05
-0.4490182432513393,-0.4490182432513393,1.0000397299910941,9.272683515006586e-05
-0.44856471332896036,-0.44856471332896036,1.0000024209998082,9.26393255698808e-05
-0.44847811362124046,-0.44847811362124046,0.9999071865980454,9.185588341529971e-05
-0.44806839814264093,-0.44806839814264093,1.0000422426976767,8.988271051638502e-05
-0.4470935424389609,-0.4470935424389609,0.9999204180002602,9.060353226491797e-05
-0.44647013636349586,-0.44647013636349586,0.9999212692410092,9.134390715895281e-05
-0.44598161061949215,-0.44598161061949215,0.9999297888761746,9.10275827284599e-05
-0.44572052987205096,-0.44572052987205096,1.0000646756562444,9.14570467859028e-05
-0.44543611031986075,-0.44543611031986075,1.000000890492998,9.286136565571051e-05
-0.4452528406167403,-0.4452528406167403,0.9999674726796464,9.117973354465774e-05
-0.4446860798576381,-0.4446860798576381,1.0001907209636027,8.987881884739388e-05
-0.4438467545158346,-0.4438467545158346,1.0000048198066733,9.050073899156494e-05
-0.4434208268467046,-0.4434208268467046,0.9999273120888794,9.133585433669729e-05
-0.4427448471804382,-0.4427448471804382,1.000156737287534,9.15349726319963e-05
-0.44233560915890846,-0.44233560915890846,0.9999694374435062,9.290211515523082e-05
-0.44208969782412166,-0.44208969782412166,1.0000739357840587,9.14856109895895e-05
-0.4415343870969082,-0.4415343870969082,1.0001604510328335,9.008165123300866e-05
-0.4406680347135989,-0.4406680347135989,1.0000430546774508,9.10212642387664e-05
-0.44034363746541205,-0.44034363746541205,1.0000837731544765,9.072072632282433e-05
-0.4399732333920838,-0.4399732333920838,1.0000477927766211,9.183533952005716e-05
-0.43949406562605875,-0.43949406562605875,0.9999959018564771,9.159273666609346e-05
-0.43921127992507536,-0.43921127992507536,0.9999897370232078,9.221711741167905e-05
-0.43867004177809577,-0.43867004177809577,0.999941617812887,9.018699958424977e-05
-0.4379640081358957,-0.4379640081358957,1.0000490769290957,9.00971249970339e-05
-0.4375911635477678,-0.4375911635477678,0.9999985766963284,9.092890792902467e-05
-0.4371177840985183,-0.4371177840985183,1.0000586614684583,9.000662817861147e-05
-0.43680067084133045,-0.43680067084133045,1.0000140051695339,9.19849804004951e-05
-0.43658568794562597,-0.43658568794562597,1.0000332703910808,8.984197661427362e-05
-0.43636246211463003,-0.43636246211463003,1.0000128072689005,9.147935880426174e-05
-0.4361953285042546,-0.4361953285042546,1.0000363379916812,9.213059198930479e-05
-0.43608085623418447,-0.43608085623418447,0.9999827116249487,9.332232699362978e-05
-0.43600803590743453,-0.43600803590743453,0.9998447607879397,9.180541322646892e-05
-0.43538413376081736,-0.43538413376081736,0.9998080565125502,8.994275273756453e-05
-0.4348003703133145,-0.4348003703133145,1.0000771443970962,9.011812946418623e-05
-0.43434931732554105,-0.43434931732554105,0.9999962072626436,9.093947578046623e-05
-0.4338461394945625,-0.4338461394945625,1.000000802881923,9.078869018543777e-05
-0.4336121889988135,-0.4336121889988135,0.9999805834596145,9.134476577089598e-05
-0.4333813925186405,-0.4333813925186405,1.0001591978158633,9.204876004805601e-05
-0.4330918561463477,-0.4330918561463477,1.0000878567994365,9.12717039207895e-05
-0.4329620291580795,-0.4329620291580795,1.000077022722794,9.265750680738534e-05
-0.4326492721978866,-0.4326492721978866,0.9998400940176463,9.041100646127456e-05
-0.432042725593783,-0.432042725593783,0.9998462509473562,8.982564202135122e-05
-0.4315664082729199,-0.4315664082729199,0.999996629879908,9.035883498065687e-05
-0.43118772033194547,-0.43118772033194547,1.0000050734109065,9.058436618389242e-05
-0.430724230872147,-0.430724230872147,0.999974911341803,9.067906480553299e-05
-0.43044883348120494,-0.43044883348120494,1.0001049085111542,9.113819376597686e-05
-0.4299458189860161,-0.4299458189860161,1.0001826685632698,9.278826174701597e-05
-0.42979877321486126,-0.42979877321486126,0.9998975443682226,9.261376893041479e-05
-0.4294338969157252,-0.4294338969157252,0.9999357972407582,8.966863790284301e-05
-0.42864349308511007,-0.42864349308511007,1.0001118964472897,8.979021379950554e-05
-0.42802074402497964,-0.42802074402497964,0.999936394889238,9.185546438362131e-05
-0.4273516571003711,-0.4273516571003711,0.9998930069476428,9.122014702682383e-05
-0.427068624777894,-0.427068624777894,0.9999306077807348,9.180355020144532e-05
-0.4267918230965734,-0.4267918230965734,1.0000604207085817,9.205232487216697e-05
-0.42651711969811,-0.42651711969811,1.000173329522856,9.065364071332791e-05
-0.42561758960437146,-0.42561758960437146,0.9998143813732048,9.076583786025018e-05
-0.42506988062523304,-0.42506988062523304,0.9999924610261426,9.085302125795799e-05
-0.4247397200764681,-0.4247397200764681,0.9999436908388152,9.13463011000995e-05
-0.4242018309429113,-0.4242018309429113,0.9999703798460283,9.164976778672758e-05
-0.42369431018014436,-0.42369431018014436,0.9999425225473745,9.222998932398305e-05
-0.42333498368534495,-0.42333498368534495,0.9999672832145319,9.12767704802314e-05
-0.4224365279369522,-0.4224365279369522,0.9999152556542665,9.005028396798605e-05
-0.421734579870099,-0.421734579870099,1.000054323962819,9.075761033355689e-05
-0.4214951276393549,-0.4214951276393549,1.0000177584956165,9.138043535335116e-05
-0.4211976561724441,-0.4211976561724441,0.9999164190862077,9.13168245443039e-05
-0.4206850404443685,-0.4206850404443685,0.9999157045283498,9.195205942945039e-05
-0.41987692577095004,-0.41987692577095004,1.0000704862356147,9.071013964934342e-05
-0.41889135599994914,-0.41889135599994914,0.9998107669059018,9.067358087365529e-05
-0.41843026413553164,-0.41843026413553164,0.9994619886053353,9.004446874503154e-05
-0.4181634557142388,-0.4181634557142388,0.999901068561703,9.082109250808715e-05
-0.4179197247933189,-0.4179197247933189,1.000077327708168,9.121971050177267e-05
-0.41767928911722263,-0.41767928911722263,1.0000717832278858,9.11567413021048e-05
-0.41744597707365755,-0.41744597707365755,0.9999233380910979,9.29526057448659e-05
-0.4173631918449246,-0.4173631918449246,1.000005586118316,9.325432875159218e-05
-0.41692726619003223,-0.41692726619003223,1.0000583099402933,8.973093156722962e-05
-0.4163004417627235,-0.4163004417627235,0.9999621003318344,8.982709477741189e-05
-0.41598485082577097,-0.41598485082577097,0.9998570536206992,9.020377884338074e-05
-0.4155845868692268,-0.4155845868692268,1.0000576828008,9.079327390773892e-05
-0.41512456702039346,-0.41512456702039346,0.9999027101424215,9.082150199618405e-05
-0.41482237773088854,-0.41482237773088854,0.999892024978221,9.281995610895382e-05
-0.41448205060805776,-0.41448205060805776,0.9998859519477408,9.083471960578382e-05
-0.4142628205903748,-0.4142628205903748,1.0001723908297746,9.273379574530193e-05
-0.41360904164321255,-0.41360904164321255,0.9999016594230495,8.998885820754307e-05
-0.41299280280800305,-0.41299280280800305,1.000288127245234,8.993660299586929e-05
-0.41248246925970306,-0.41248246925970306,0.9999889970560238,9.117845974995597e-05
-0.4119328449109162,-0.4119328449109162,0.999827163805123,9.053960794251303e-05
-0.411392128476291,-0.411392128476291,0.9998554939615285,9.25439591279849e-05
-0.4111477821912558,-0.4111477821912558,1.0001183191010776,9.279720119451847e-05
-0.411025694887212,-0.411025694887212,1.0000091375817781,9.144339116253183e-05
-0.4104672277251666,-0.4104672277251666,1.0001342260988477,9.013603709165241e-05
-0.4097925975758699,-0.4097925975758699,1.0001019823353636,9.07840066104974e-05
-0.4092141905675817,-0.4092141905675817,1.0000624142813639,9.154281700311109e-05
-0.4087766547287174,-0.4087766547287174,0.9999896051202033,9.189951748519838e-05
-0.40840241614860134,-0.40840241614860134,0.9999311534767275,9.157321014420308e-05
-0.40816254322999157,-0.40816254322999157,1.0000808820405036,9.188544407441327e-05
-0.4078368379327003,-0.4078368379327003,1.000048309373008,9.112032638314075e-05
-0.40710209342942105,-0.40710209342942105,1.0000419703099017,9.021640470311853e-05
-0.4063982818290242,-0.4063982818290242,0.999980055302688,9.157022353025121e-05
-0.4061875973449787,-0.4061875973449787,0.9998754126156515,9.050981591713836e-05
-0.4058802109517273,-0.4058802109517273,0.9999231437125502,9.138659394443973e-05
-0.4052462023071712,-0.4052462023071712,0.9998129479263527,9.128026589103503e-05
-0.40492177868800355,-0.40492177868800355,0.9999200474379253,9.244119759602424e-05
-0.4043801213920233,-0.4043801213920233,0.9999955768240522,8.980083293483675e-05
-0.40368412888856253,-0.40368412888856253,0.9999367129625188,9.064446049935689e-05
-0.4029680000858207,-0.4029680000858207,1.000027216515852,9.002790961571303e-05
-0.4025968175825255,-0.4025968175825255,1.0001529254136663,9.207106218476189e-05
-0.4022917055845028,-0.4022917055845028,1.0000472415588963,9.14226824532614e-05
-0.40184750022235677,-0.40184750022235677,0.9998795382727653,9.147728073284847e-05
-0.40075948677476847,-0.40075948677476847,1.0000621848869868,9.002954768861343e-05
-0.40018785256906997,-0.40018785256906997,0.9998895709297297,9.060494220164745e-05
-0.39985054275748555,-0.39985054275748555,0.9999987085042161,9.056923765838197e-05
-0.39952487874543297,-0.39952487874543297,1.0000943954537092,9.068042090711708e-05
-0.39924333745366314,-0.39924333745366314,1.0001204558300967,9.09890196182804e-05
-0.3989655465025862,-0.3989655465025862,1.0001060405215696,9.200545915277851e-05
-0.3987512784660794,-0.3987512784660794,1.0000435405464676,9.294046220952338e-05
-0.39862789482431255,-0.39862789482431255,0.9999702089560245,9.239321225727363e-05
-0.3980551464788732,-0.3980551464788732,1.0000191237690763,8.962568016547708e-05
-0.3972461763776664,-0.3972461763776664,0.9999775444191217,9.044764229633757e-05
-0.39671588845667427,-0.39671588845667427,0.9998588758433262,9.127148928379463e-05
-0.39634721874972456,-0.39634721874972456,1.0001042452890296,9.001927994545617e-05
-0.3960845141999016,-0.3960845141999016,0.9998922619067884,9.286484596952774e-05
-0.3957002858282067,-0.3957002858282067,0.9999511002137199,9.228139427140301e-05
-0.39536405585022294,-0.39536405585022294,1.000023278086363,9.138187377224019e-05
-0.39445547674331466,-0.39445547674331466,1.000102928928674,8.993510765507551e-05
-0.39381409849011106,-0.39381409849011106,0.999958190417682,9.087055674536033e-05
-0.3930249095610634,-0.3930249095610634,1.0000769808119503,9.205151040614446e-05
-0.3926354032970266,-0.3926354032970266,1.0004395691615982,9.267210833516141e-05
-0.3924478992448712,-0.3924478992448712,1.000020845055183,9.272868077212171e-05
