time,time,flux,flux_err
-0.49976889442041283,-0.49976889442041283,1.0001170741452496,0.0003545818141803686
-0.49932322625803255,-0.49932322625803255,1.000425880131236,0.000291501943400854
-0.4990529819151561,-0.4990529819151561,0.9998767814384081,0.00037836521720477345
-0.4988801520186826,-0.4988801520186826,1.000036522831397,0.00034248011761143387
-0.49868924761540256,-0.49868924761540256,0.9999904568614518,0.0002476733744041583
-0.49841340194543593,-0.49841340194543593,0.9998834061031229,0.0002650708628657074
-0.49819018461566883,-0.49819018461566883,1.0001934006493647,0.0003329967778765308
-0.4979201587368152,-0.4979201587368152,1.0001899350099506,0.00033234123765565177
-0.4977070993350935,-0.4977070993350935,0.9994875051099552,0.00028534177036669604
-0.4974828392150812,-0.4974828392150812,0.999838704341178,0.000276952986813259
-0.49713785754138373,-0.49713785754138373,1.000142641033774,0.00034311859639115175
-0.4967014919704525,-0.4967014919704525,0.9997377811748228,0.0002920680783098644
-0.49650310519209595,-0.49650310519209595,0.9999341380229193,0.00024179971485334333
-0.49625101425917817,-0.49625101425917817,1.0003061996468083,0.0003413560928085015
-0.4960917275529937,-0.4960917275529937,1.000309378666023,0.00032304488668846016
-0.4958169396893936,-0.4958169396893936,1.0000636917711136,0.000329799036128832
-0.49554335723951226,-0.49554335723951226,1.0002213355597305,0.000296780895386399
-0.4952557350479765,-0.4952557350479765,1.0000086618283022,0.00034257007446478205
-0.4950313243185519,-0.4950313243185519,1.0000216233642525,0.0002780812358719379
-0.4946579206720344,-0.4946579206720344,1.0001615829118629,0.0003113915380450289
-0.49458165204850957,-0.49458165204850957,1.0001854113461248,0.0002456286281316872
-0.49435296486481095,-0.49435296486481095,1.0000033220580284,0.00032846066693181266
-0.49417779290961333,-0.49417779290961333,1.0002860892186045,0.0003265070855821929
-0.49386150852806165,-0.49386150852806165,0.9997756497503847,0.00027938433141734087
-0.49370771532703656,-0.49370771532703656,0.9999871469007899,0.00026283442955362394
-0.4934547944285441,-0.4934547944285441,0.9999912877774157,0.00030040202856936005
-0.49324375630676515,-0.49324375630676515,0.9999151966636628,0.00023926181492460414
-0.49311830252408984,-0.49311830252408984,0.9998993380855742,0.0003044604375740433
-0.49289158296014646,-0.49289158296014646,0.9998378403753566,0.0003292235540202273
-0.4926711723659537,-0.4926711723659537,0.9999473160406229,0.0002645397707312962
-0.4923272649306455,-0.4923272649306455,0.9997448760709569,0.0002882705819143243
-0.4920428079130943,-0.4920428079130943,1.000168444127705,0.0003239045411722279
-0.49185540988401044,-0.49185540988401044,1.0000134217446395,0.0003060257771678828
-0.49165028427378277,-0.49165028427378277,1.0001442964948535,0.0002388232232800751
-0.4913402014964959,-0.4913402014964959,1.0002679724193497,0.00035191636018549127
-0.4910396221894189,-0.4910396221894189,1.0001205596816773,0.00029240630893096863
-0.4908626200151048,-0.4908626200151048,0.9999291973732436,0.0003120511805272864
-0.49058061832765815,-0.49058061832765815,1.000094535571289,0.00031391574394999076
-0.49027932433091337,-0.49027932433091337,0.9998248939615253,0.00031014111471649086
-0.48997880822425943,-0.48997880822425943,0.9998700923757312,0.00034876197050392717
-0.4897707356940373,-0.4897707356940373,0.9999707624052858,0.0002851880478552109
-0.4895940318441717,-0.4895940318441717,0.99972315507821,0.00029074534759419
-0.4892935409094207,-0.4892935409094207,0.9996634578511291,0.0003065589082805407
-0.48905318398610687,-0.48905318398610687,1.0000891207852187,0.0003225218023852903
-0.48876741545391267,-0.48876741545391267,0.9999333437397201,0.0003025352169688065
-0.48835615831631,-0.48835615831631,1.000168747510172,0.000345720975469913
-0.4880572603011387,-0.4880572603011387,1.0002867417320336,0.00031847844232285653
-0.48782412623695565,-0.48782412623695565,0.9998880451946623,0.00030711169060560075
-0.48768918249552373,-0.48768918249552373,0.9999064505387443,0.00023941190812302456
-0.48736389136320213,-0.48736389136320213,1.000101061844279,0.0003360640919656292
-0.48719572953268653,-0.48719572953268653,0.9995757231875857,0.00035961364686980284
-0.486932046689617,-0.486932046689617,1.0001493947455136,0.00026122992267470034
-0.4865678144109552,-0.4865678144109552,1.0004125442734308,0.0002650405519872865
-0.48631924550281835,-0.48631924550281835,1.0000351652955386,0.0003237204654357273
-0.4860262961330591,-0.4860262961330591,1.000347497874435,0.00037518898593402397
-0.4857203618521453,-0.4857203618521453,0.9997375044628374,0.0003060972958295113
-0.4855696083206567,-0.4855696083206567,1.000224562810559,0.0002864881750582433
-0.4852359256576165,-0.4852359256576165,1.0000747426777408,0.0002900716422357175
-0.4850313658520463,-0.4850313658520463,1.000039414091114,0.0002835402946472605
-0.4846473437632085,-0.4846473437632085,0.999965194558559,0.00031360599742014995
-0.48432120388606564,-0.48432120388606564,0.999642650309991,0.00027430170255518223
-0.4842388452030718,-0.4842388452030718,1.0001329401680366,0.00037333647704818095
-0.48401360721181846,-0.48401360721181846,0.9998329682520618,0.00028495290185231775
-0.48387155903474194,-0.48387155903474194,1.0001067445993292,0.00025205132192279267
-0.48361451696400765,-0.48361451696400765,0.9999724154463105,0.0003139327513150039
-0.4834077396095381,-0.4834077396095381,1.000250685449641,0.0002699421833095055
-0.48319075501785846,-0.48319075501785846,1.000000360300613,0.00030613156437448265
-0.482931955101958,-0.482931955101958,1.0002364766690828,0.00028504261735112665
-0.48262119799182984,-0.48262119799182984,0.9998448664983309,0.00033095606616574734
-0.48225501583801816,-0.48225501583801816,0.999767968989435,0.00024880613187634016
-0.4819378968633828,-0.4819378968633828,1.0001272665856178,0.00035993136677242175
-0.4816299204976531,-0.4816299204976531,0.9999826877397797,0.0002617219211170499
-0.48130834548646817,-0.48130834548646817,1.0000623419493926,0.00034946935611106917
-0.4811709280926152,-0.4811709280926152,1.000421695353216,0.0003435022206791479
-0.480983708887652,-0.480983708887652,1.0000904441535439,0.0003201478589459624
-0.4806928507547127,-0.4806928507547127,0.9999454356532939,0.0003069080471395853
-0.4804679478475009,-0.4804679478475009,1.00017514533695,0.0002936042493854025
-0.48027439547877293,-0.48027439547877293,1.0000990019958456,0.00031065490424731515
-0.48000189138401766,-0.48000189138401766,0.9999363070207471,0.00030416793475298535
-0.4795192737830803,-0.4795192737830803,1.0005136483115775,0.0002961595477309816
-0.4792112433409784,-0.4792112433409784,1.0001165127578093,0.0003760811260857623
-0.47891293422871967,-0.47891293422871967,1.0002822544421293,0.0003428268881274836
-0.4787690846671467,-0.4787690846671467,0.9998102736761482,0.00029756843448568285
-0.4784144117773394,-0.4784144117773394,0.999999015822857,0.00024622258585175284
-0.47804338590358386,-0.47804338590358386,1.0000612065492729,0.00028865984885934894
-0.4779112158706994,-0.4779112158706994,0.9999933041078858,0.0002843439092387883
-0.4775811746585532,-0.4775811746585532,0.9997130400313837,0.0003454645706389224
-0.47728100451786304,-0.47728100451786304,1.0000170352800706,0.0003161723553293096
-0.4771233266481431,-0.4771233266481431,0.9998964877580727,0.0003402363487718474
-0.4768265519262059,-0.4768265519262059,0.9999193013227968,0.0002936547493697213
-0.4765551216318272,-0.4765551216318272,0.999907254158211,0.00027101799923668994
-0.4763689260871615,-0.4763689260871615,0.9999558861266877,0.0002733463310487842
-0.4762166511631222,-0.4762166511631222,0.9997976061424856,0.00030571031764809283
-0.4759006911990582,-0.4759006911990582,0.9996924271506261,0.00033281447219230605
-0.4757071177155012,-0.4757071177155012,1.0001497359002895,0.0003077892394389073
-0.47549381763237764,-0.47549381763237764,1.000084025013109,0.00025014099811035336
-0.47504339314182287,-0.47504339314182287,1.000034479323631,0.0003637743898660097
-0.4747561374970246,-0.4747561374970246,0.9997641902081351,0.0002884259386621257
-0.4744352203400922,-0.4744352203400922,1.000025921510534,0.0002742706092124619
-0.4742244184119045,-0.4742244184119045,0.9998757458591724,0.0002501704436162811
-0.47410617045970865,-0.47410617045970865,0.9996946967076076,0.00037722573587991497
-0.4737905225090799,-0.4737905225090799,0.9998413363994167,0.0002997576372809123
-0.4734255422677961,-0.4734255422677961,0.999884467440625,0.0003105420627446413
-0.47329192981123924,-0.47329192981123924,1.0002806766653203,0.0002435494473193882
-0.47301581511565016,-0.47301581511565016,1.000057259539587,0.0003423433016782345
-0.47255290791363225,-0.47255290791363225,1.000177386423212,0.0003108305643998043
-0.47238515667413594,-0.47238515667413594,1.000288596869712,0.0002700040582993052
-0.47211582949676084,-0.47211582949676084,0.9997522642859469,0.0003764312774305293
-0.47188392070529517,-0.47188392070529517,1.0000612568600105,0.0003220803104222208
-0.47163978287571806,-0.47163978287571806,0.9999711122611924,0.0002636749887857522
-0.4711624431365635,-0.4711624431365635,1.0002326330032747,0.00028491547764927794
-0.4710207084805006,-0.4710207084805006,1.0003956122012991,0.00025451805960997377
-0.47070422904507725,-0.47070422904507725,1.0003147888438808,0.00030730783322986373
-0.47033090698969315,-0.47033090698969315,1.0000257566018098,0.0003301123822828186
-0.4700431337245391,-0.4700431337245391,0.9996962022399993,0.00034074404880258863
-0.46980150004674215,-0.46980150004674215,0.9999293716576559,0.00029503645217958375
-0.46965066900884267,-0.46965066900884267,0.9999934771466711,0.0003058047690305166
-0.4694843944380409,-0.4694843944380409,1.0002140148497964,0.0002528386750492282
-0.4692548453036579,-0.4692548453036579,1.000028929543653,0.00035161117014228583
-0.4688902758512995,-0.4688902758512995,0.999643292169444,0.00031159421217404407
-0.46858874545869184,-0.46858874545869184,0.9995549469694651,0.0003152552059856534
-0.46819954343955034,-0.46819954343955034,1.00015586345507,0.0002756909382576389
-0.46791000314115083,-0.46791000314115083,1.000282767559802,0.0003252447480672117
-0.4677424071924179,-0.4677424071924179,1.000250729082388,0.0003422492333134356
-0.4675514901930001,-0.4675514901930001,1.000267758206721,0.0002478104179956161
-0.4672975940149627,-0.4672975940149627,0.9999738893465768,0.0002420519877424084
-0.4671739831668674,-0.4671739831668674,0.9995423564929592,0.0003470372365955602
-0.46679343330761186,-0.46679343330761186,1.0001645523959113,0.00032010256634621353
-0.4665147828432964,-0.4665147828432964,1.000268252947572,0.000261363476286105
-0.4663406492269132,-0.4663406492269132,0.9999522297493877,0.00025633655879263957
-0.4660991758311866,-0.4660991758311866,0.999857735547684,0.0003428184033723713
-0.46581318630778695,-0.46581318630778695,1.0002404940460285,0.0002421758377648162
-0.4655499943051836,-0.4655499943051836,1.0002988825215924,0.00029043072064680286
-0.46541963175695855,-0.46541963175695855,0.9998492962545626,0.00024910165810188787
-0.46523584385722644,-0.46523584385722644,0.9997301263681481,0.00030680755283293837
-0.4650693073112052,-0.4650693073112052,0.9999243500624824,0.0003589466590988648
-0.46485487171594286,-0.46485487171594286,0.9997628024670353,0.0003569823184334784
-0.4646133887683391,-0.4646133887683391,1.0000970397690516,0.00029997411093724376
-0.4643089867182425,-0.4643089867182425,0.9998072640286996,0.0002479473027835837
-0.4640502428504988,-0.4640502428504988,0.9996960337224143,0.00034738854231355573
-0.4637105944741052,-0.4637105944741052,0.9998531632571087,0.00029222793242224254
-0.46348955746216236,-0.46348955746216236,1.000736448850598,0.0002925741022833242
-0.463402196658717,-0.463402196658717,1.0002464206683155,0.000246089522980563
-0.46323921396688095,-0.46323921396688095,1.0000396819664894,0.00032864272234523037
-0.4630877757532289,-0.4630877757532289,0.9999757593633385,0.000306210578666628
-0.46281930989644027,-0.46281930989644027,0.999970463811219,0.0003135841637696971
-0.462585891931667,-0.462585891931667,0.9998700529451874,0.00026990685964034793
-0.4623887245557853,-0.4623887245557853,0.9999760505958847,0.00029875217986980904
-0.4620943362649996,-0.4620943362649996,1.0001913094813375,0.0002859642943443475
-0.4619091686967295,-0.4619091686967295,0.9994239889099827,0.00030365700837469214
-0.4616434602590743,-0.4616434602590743,0.9999921953513754,0.0002998417947373028
-0.46142560329608384,-0.46142560329608384,0.9999539339188296,0.0003281817353764767
-0.4610178024100605,-0.4610178024100605,1.0003874111701503,0.00032851600963900113
-0.4607490562266321,-0.4607490562266321,1.0003934780324633,0.0003042611123766997
-0.46045895348797783,-0.46045895348797783,0.9998303632795611,0.00026434849657304773
-0.46013559497223466,-0.46013559497223466,0.9998318066996463,0.0003517170961164188
-0.4598170294004376,-0.4598170294004376,1.0001385605000739,0.00027883015889217024
-0.45968727747240334,-0.45968727747240334,0.9999150350563207,0.0003059288368839694
-0.4594425036644679,-0.4594425036644679,1.0000872571242394,0.0003147601438691473
-0.4590944479219615,-0.4590944479219615,1.000272457220745,0.0003276685747841528
-0.4587838831648696,-0.4587838831648696,1.000340143759512,0.00034316317191316703
-0.45853018783091104,-0.45853018783091104,0.9997068689698978,0.00024529190577439317
-0.45828919802734164,-0.45828919802734164,0.9998274409640692,0.00030579029976350407
-0.4579280982288765,-0.4579280982288765,0.9995661738058719,0.0003573966029205523
-0.45766266963037194,-0.45766266963037194,0.9997850506337089,0.00029725751875947043
-0.457328266632976,-0.457328266632976,0.9999891153725586,0.00027712750013158085
-0.457008244516328,-0.457008244516328,0.9995918079070808,0.00034722823307674073
-0.45671912830875955,-0.45671912830875955,1.000663296383599,0.0003139188806694948
-0.4565990446310025,-0.4565990446310025,1.00038729929869,0.0002623373062311784
-0.45642382805381204,-0.45642382805381204,1.0002991078518775,0.00029301032698904236
-0.45615861031255917,-0.45615861031255917,0.9999585481218258,0.0003309266706642825
-0.4559486626603757,-0.4559486626603757,1.0002217576990582,0.0003244261134638315
-0.4556863351725042,-0.4556863351725042,0.9999239005899636,0.00031087489884271694
-0.4553265923183062,-0.4553265923183062,0.9998802672423517,0.0002565886291305961
-0.455173724994529,-0.455173724994529,0.9998028910994574,0.0002859052963926728
-0.45495628866774496,-0.45495628866774496,0.9998361751010083,0.0003760216662413255
-0.45467408692347816,-0.45467408692347816,0.9998620243585028,0.00029622350634882016
-0.45452896754723043,-0.45452896754723043,1.0001206279908876,0.00026402114550739197
-0.4542925733680022,-0.4542925733680022,1.0000321038626339,0.00032876272652994376
-0.4539598602976184,-0.4539598602976184,1.0002842790906807,0.0002849688632152242
-0.453739198500989,-0.453739198500989,1.0001320529683144,0.00028330113726041746
-0.4533155741897644,-0.4533155741897644,0.9998556732344532,0.00027570620545037527
-0.45312101150339,-0.45312101150339,0.9997838228551512,0.0003458209427651663
-0.4530188495569746,-0.4530188495569746,0.9996830405362551,0.0003418118106291611
-0.45282355176022976,-0.45282355176022976,1.0000176370674854,0.00026939926085415547
-0.45274289115332067,-0.45274289115332067,0.9999521907298213,0.00024349053984417174
-0.4524976313186926,-0.4524976313186926,0.999973503248565,0.00027290381122550193
-0.45227935073926345,-0.45227935073926345,0.9998739963543544,0.0002725927063850581
-0.4520638208996388,-0.4520638208996388,1.000005449468613,0.0003029472725102825
-0.45191497840860395,-0.45191497840860395,1.000429845741181,0.0002906314672238947
-0.4516954217819148,-0.4516954217819148,1.0000482295348538,0.0002841412913198155
-0.4513250380492536,-0.4513250380492536,0.9998637497068381,0.00027135932916628656
-0.4509930108935805,-0.4509930108935805,1.000056369805783,0.0003239427589927308
-0.450761671946384,-0.450761671946384,0.9997247242065137,0.00032611440056924906
-0.4506359905426507,-0.4506359905426507,0.9999320538226024,0.0002969357594075143
-0.45037020189192845,-0.45037020189192845,0.9996971385984986,0.0002783819558776801
-0.45014177126431604,-0.45014177126431604,0.9999121079073172,0.00036472050773420284
-0.4500389955152059,-0.4500389955152059,0.9997381821173115,0.0003446313912089958
-0.4498437954825931,-0.4498437954825931,1.0002242893819775,0.0003203083306445362
-0.4495049082383048,-0.4495049082383048,1.000123216785885,0.00028845837387080124
-0.4492631811357569,-0.4492631811357569,1.0001056880113175,0.00033027630441469637
-0.44903695070097455,-0.44903695070097455,0.9999247023600926,0.00031063264303649344
-0.4488105317665031,-0.4488105317665031,1.0004506407837255,0.0003249857998153853
-0.4483805450683576,-0.4483805450683576,1.0002432229272975,0.0002979469762634619
-0.44806999278080184,-0.44806999278080184,0.9998379261865546,0.0003765226791270928
-0.4477779009292135,-0.4477779009292135,0.9997598728406271,0.00034296498512224964
-0.44763540975691285,-0.44763540975691285,1.000063250075,0.0002973214590770409
-0.44743676514481195,-0.44743676514481195,0.9999139688518153,0.00023638597239977405
-0.44698788336099826,-0.44698788336099826,1.0002812925615143,0.00029253513479680785
-0.4468980115823797,-0.4468980115823797,1.000320567108158,0.0002891904634822717
-0.4466980223936844,-0.4466980223936844,1.0000858840933433,0.00030660400465372026
-0.4462137862763484,-0.4462137862763484,1.0001694095424334,0.0003200511483189868
-0.44606290332594656,-0.44606290332594656,0.9999507837587162,0.00037480687523797513
-0.4458320135920076,-0.4458320135920076,0.999300516150641,0.0002435425895919297
-0.44556812166993043,-0.44556812166993043,1.000324017155115,0.00029323769872963184
-0.4453282077520271,-0.4453282077520271,0.9997210341924079,0.0002775428835957022
-0.4451030957992771,-0.4451030957992771,1.0002679559653,0.0003068978165404833
-0.4447094656032277,-0.4447094656032277,1.0000697252114794,0.00036601799205465316
-0.4444847276681685,-0.4444847276681685,0.999973169362633,0.0002713396785314657
-0.44416516985802446,-0.44416516985802446,1.000119512688058,0.0002910518006594453
-0.4438461448327871,-0.4438461448327871,1.0000674235022295,0.0003891229057905132
-0.4435047008417314,-0.4435047008417314,0.9998806975411269,0.0002708739135533913
-0.44316791784222004,-0.44316791784222004,1.0001219961587773,0.0002576241340644444
-0.44303861692897045,-0.44303861692897045,0.9996915615071549,0.0003575402743792561
-0.442926313605858,-0.442926313605858,0.9998686366200789,0.0002898498576483483
-0.44280882681923683,-0.44280882681923683,1.000164353449039,0.0002525393242291488
-0.4424941021788982,-0.4424941021788982,1.0000537277831507,0.00031004373565144013
-0.44226014760206456,-0.44226014760206456,0.9996816731868474,0.0002911486586283393
-0.44212073916278316,-0.44212073916278316,0.9997499241085344,0.00024488670773854956
-0.4418076485701022,-0.4418076485701022,0.9998837017002226,0.0003056425014895893
-0.44141438381775516,-0.44141438381775516,0.9999702561607489,0.00031089186841345274
-0.44118692252523034,-0.44118692252523034,0.9999419044411789,0.000311872286001731
-0.440954519744264,-0.440954519744264,0.9999560536212551,0.0003442786554922113
-0.4407823340574396,-0.4407823340574396,1.0001595237029175,0.0003043481320882945
-0.4405235125916079,-0.4405235125916079,1.0002711148624528,0.0003041101416797601
-0.4400299133369117,-0.4400299133369117,1.0001528855573836,0.0002846692533636508
-0.43991557581030066,-0.43991557581030066,0.9998968150446734,0.00024453777679782026
-0.4396998730750056,-0.4396998730750056,1.000132688045987,0.00027296754257283984
-0.4393314392422326,-0.4393314392422326,1.0000014786985862,0.0003279490241338013
-0.43907098054041854,-0.43907098054041854,0.9998521939553807,0.00039234935316144107
-0.4387764092825819,-0.4387764092825819,0.9999344745828983,0.0002884771396667513
-0.4385551316459896,-0.4385551316459896,0.9998971218871852,0.0003310787067952459
-0.43838107563205997,-0.43838107563205997,0.9995579952817941,0.0002443957067360866
-0.43819072376354595,-0.43819072376354595,1.000087718831033,0.00032136385565351795
