time,time,flux,flux_err
-0.49910191165205714,-0.49910191165205714,1.0002392014712411,0.00011291646873643232
-0.4978824832232931,-0.4978824832232931,0.9999967463454222,0.00011187623714074995
-0.4971216124401205,-0.4971216124401205,1.0000487533773752,0.00011149112956743356
-0.49666006276456753,-0.49666006276456753,1.0000145099209496,0.00010170561376337567
-0.4959855691085977,-0.4959855691085977,0.9998307892880556,0.00010217425658550375
-0.4955130050497246,-0.4955130050497246,0.9999117132485275,0.00010111484530481748
-0.49502482297684763,-0.49502482297684763,1.0001256504057312,0.00010249390697368054
-0.49457917144245583,-0.49457917144245583,1.0000606097608837,0.00010226119986257593
-0.4939224836882204,-0.4939224836882204,0.9999600942098066,0.00010240921564575404
-0.49321777536752054,-0.49321777536752054,1.0000913596707806,0.00010778076245671364
-0.4926598175559775,-0.4926598175559775,0.9998894916559886,0.00010181715763350203
-0.4920142118287913,-0.4920142118287913,0.9999645264088224,0.00010477683888035642
-0.49159230923396535,-0.49159230923396535,0.9999962120290041,0.00010552313318382713
-0.4910771202237811,-0.4910771202237811,1.0001590117986359,0.0001035147865151059
-0.4903944508987479,-0.4903944508987479,1.000072062236224,0.00010409125124740922
-0.4895865143320407,-0.4895865143320407,1.000160696726831,0.00010151687240402788
-0.4890934754148475,-0.4890934754148475,1.0001785452323113,0.00010343803307530462
-0.48854490318190075,-0.48854490318190075,1.0000327375650129,0.0001020808350348686
-0.48800956205450347,-0.48800956205450347,1.0000919805712396,0.0001018130865006403
-0.4869997185138345,-0.4869997185138345,1.0001127127107026,0.00010138382402337264
-0.4865811842864787,-0.4865811842864787,1.000070916099816,0.00010386172831668082
-0.4857348435085441,-0.4857348435085441,1.0000225818761916,0.0001035467117129888
-0.4845870305005519,-0.4845870305005519,0.9999458499745637,0.00010243643948574313
-0.48381135754680143,-0.48381135754680143,0.9999012925957682,0.00010256589965247791
-0.4832791531844123,-0.4832791531844123,1.0001541466202313,0.00010289165800539289
-0.48187429556273853,-0.48187429556273853,1.0000754871383828,0.0001023244822321242
-0.48089072050133835,-0.48089072050133835,0.999953837840278,0.0001019256065948314
-0.4804125158356328,-0.4804125158356328,1.000050366598647,0.00010169982466552245
-0.47984792043207564,-0.47984792043207564,0.9999313223925087,0.00010156249026018281
-0.47914823785467886,-0.47914823785467886,1.0000672710539684,0.00010154368366323545
-0.478495939628192,-0.478495939628192,1.0000138908806635,0.0001021325726531772
-0.4778665871846897,-0.4778665871846897,1.0001919034278492,0.00010262928329063833
-0.47720678268378836,-0.47720678268378836,1.000152797726337,0.00010227775005083929
-0.47669643893823377,-0.47669643893823377,1.0000566477461528,0.00010852318058335276
-0.47610184326258603,-0.47610184326258603,1.0000398324457165,0.00010234836855215885
-0.47572319391183554,-0.47572319391183554,0.9998422218385471,0.00010550661539290591
-0.4751555692877446,-0.4751555692877446,1.000221775421054,0.00011121428328027254
-0.4748562473308994,-0.4748562473308994,1.0001477950500153,0.00010365283360680224
-0.47432122946556776,-0.47432122946556776,1.0001011913740083,0.00010377677312193515
-0.4735671682319662,-0.4735671682319662,1.0000111788641262,0.00010392114124004116
-0.4728351261699572,-0.4728351261699572,1.0000171338708017,0.00010215234267822398
-0.4721615859780286,-0.4721615859780286,0.9999884466590266,0.00010262559593860412
-0.4712233243197261,-0.4712233243197261,0.9998662375583697,0.00010233222270891353
-0.47046669235060107,-0.47046669235060107,1.000216965484712,0.00010323270568875695
-0.46949701818521133,-0.46949701818521133,1.0000172211828928,0.00010348477140572645
-0.4685026373517758,-0.4685026373517758,1.000052271457799,0.00010222429440962495
-0.4674948276508076,-0.4674948276508076,1.000164657546112,0.00010301600386872736
-0.46621264128843903,-0.46621264128843903,1.0001005072290652,0.0001026273278668695
-0.4646689327761123,-0.4646689327761123,1.0001160877223476,0.00010220639459025997
-0.46416402268296225,-0.46416402268296225,1.0001144758435951,0.00010170301861411643
-0.46348645516263787,-0.46348645516263787,1.0001527612947247,0.00010199600196600717
-0.46295306700703803,-0.46295306700703803,1.0001019939206874,0.00010178280427788372
-0.4624445280205691,-0.4624445280205691,0.9999444818903985,0.00010818249850360931
-0.4620253023247642,-0.4620253023247642,1.000010388864867,0.00010165946563701993
-0.46143764620210276,-0.46143764620210276,1.000076015511112,0.0001027663397434349
-0.4608338805279345,-0.4608338805279345,0.9999819062737126,0.00010279352036021987
-0.46024261879210826,-0.46024261879210826,0.9999399582538008,0.00010181084990820567
-0.45966558242726024,-0.45966558242726024,1.0002410097090135,0.0001063578753355893
-0.45932872968623994,-0.45932872968623994,0.9999622236254371,0.00010198664698508491
-0.4586520724471484,-0.4586520724471484,0.9998724578177833,0.00010357389394327445
-0.45816108738581535,-0.45816108738581535,0.9999488796573477,0.00010369405294844028
-0.45718297201165115,-0.45718297201165115,0.9999119404651499,0.00010343532305425815
-0.4563607728072384,-0.4563607728072384,1.0002096291572662,0.00010221990882205889
-0.4555590256131836,-0.4555590256131836,1.0002658910078672,0.00010311473765061807
-0.4544097566053097,-0.4544097566053097,0.999982250561667,0.00010226485136564363
-0.45387539015791845,-0.45387539015791845,1.00001535706278,0.00010278339993879326
-0.4532540896900173,-0.4532540896900173,1.0000089560717123,0.0001029715598714146
-0.45230188804343924,-0.45230188804343924,0.9999896326512276,0.00010332165909337219
-0.4512978459097212,-0.4512978459097212,1.000053443018564,0.00010289038022626715
-0.44993478677642995,-0.44993478677642995,0.9999697391246709,0.00010266463673816125
-0.4484220721606107,-0.4484220721606107,0.9999874958372196,0.00010227482393679296
-0.44791560485900844,-0.44791560485900844,1.000102741648916,0.00010169276690731538
-0.44727100684394827,-0.44727100684394827,1.0000560752713978,0.00010201897019041913
-0.4467099849360238,-0.4467099849360238,0.9999475528615409,0.00010158396340024828
-0.4461124165201909,-0.4461124165201909,0.999958255407934,0.00010228167806486316
-0.4456817114638397,-0.4456817114638397,0.9998884492059872,0.00010133500242538428
-0.4451248888966802,-0.4451248888966802,1.0000156741844852,0.00010257341716306189
-0.4443710231098521,-0.4443710231098521,1.0000546972509166,0.00010205956939214043
-0.44361955288259197,-0.44361955288259197,0.9999639732935967,0.00010194028655711716
-0.4433081733972358,-0.4433081733972358,1.0000364801221011,0.00010640232006426695
-0.44269429884370765,-0.44269429884370765,1.0000572406667083,0.00010127204331073975
-0.44231314537173605,-0.44231314537173605,1.0002379437199604,0.00010420379391910756
-0.4414713716789265,-0.4414713716789265,1.0000747993956955,0.00010407146403970358
-0.44072029246017336,-0.44072029246017336,1.0001139701447253,0.0001035203278260856
-0.43998726358040585,-0.43998726358040585,1.0000507538065864,0.00010176391147768476
-0.4395072735242138,-0.4395072735242138,1.000169358596779,0.00010320242633885027
-0.4386235580088396,-0.4386235580088396,1.000098809412576,0.00010253468153359577
-0.4379889128729701,-0.4379889128729701,1.0000809063251839,0.00010284325343976804
-0.43708159132220314,-0.43708159132220314,0.9998738297057868,0.00010256274532051217
-0.4363953836829751,-0.4363953836829751,1.0000352321689978,0.00010313600068760549
-0.4356393224654312,-0.4356393224654312,0.9999340929481599,0.00010196706315706913
-0.4347032236670202,-0.4347032236670202,1.0000434794475503,0.00010313249101397996
-0.4332539487564645,-0.4332539487564645,0.9999055655620689,0.000103436283417299
-0.43193370523586055,-0.43193370523586055,1.0001305680794306,0.00010194415566498361
-0.4313594427301723,-0.4313594427301723,1.000026117155261,0.00010142990367819032
-0.4308574697766744,-0.4308574697766744,1.000136272388246,0.00010250628198271623
-0.43025067010748896,-0.43025067010748896,1.0000415529210973,0.00010182664233978954
-0.42976717950077725,-0.42976717950077725,0.9998844145260766,0.0001021868838035254
-0.42910221684578576,-0.42910221684578576,0.9998894779361457,0.00010250264193576843
-0.428574152236979,-0.428574152236979,0.9998682056197824,0.00010189169327036098
-0.4278044590384525,-0.4278044590384525,1.0001597715159312,0.00010212028051461843
-0.42714422030185234,-0.42714422030185234,0.9999866491733339,0.0001061434851731217
-0.42661497771696305,-0.42661497771696305,1.000039440504135,0.00010199420161980371
-0.42611565515835537,-0.42611565515835537,0.9999634109306712,0.00010402441088559823
-0.42577933651264177,-0.42577933651264177,0.9999952185134815,0.00010499831970608897
-0.4250113078589493,-0.4250113078589493,0.9999676665210095,0.00010197912962478812
-0.42426745738994215,-0.42426745738994215,1.0000006251625362,0.00010421803612877799
-0.42358812737293194,-0.42358812737293194,1.000085015269164,0.00010289257742645277
-0.42287912718311416,-0.42287912718311416,1.0000399074670527,0.00010175462754312672
-0.42232433151002624,-0.42232433151002624,0.9999902135363691,0.00010241443241942824
-0.4218291649049206,-0.4218291649049206,1.000235219351425,0.00010239339132903972
-0.4212343088576745,-0.4212343088576745,0.9999938375926465,0.00010205582883905491
-0.42062609852000604,-0.42062609852000604,0.9999849786802667,0.00010320139947724079
-0.4199109594548645,-0.4199109594548645,1.0000597874841342,0.00010264959400985724
-0.4191164198979095,-0.4191164198979095,1.0001903214649834,0.00010329288049306163
-0.41803167131365626,-0.41803167131365626,1.0002059010892064,0.00010382290213638444
-0.41691721269817206,-0.41691721269817206,0.9999416213073753,0.00010295986333698293
-0.41568259967971244,-0.41568259967971244,1.0000235062308667,0.00010196755952199468
-0.4151742495043436,-0.4151742495043436,0.9999300557694916,0.0001019817353796023
-0.41472598739201205,-0.41472598739201205,1.0000034846274048,0.00010503406549698931
-0.4143163152722991,-0.4143163152722991,0.9999882478935348,0.00010134677140050539
-0.4137873092855443,-0.4137873092855443,1.0001229108205525,0.000103101644924688
-0.4133579758621636,-0.4133579758621636,1.0001011899933658,0.00010176894653630992
-0.4128497311859974,-0.4128497311859974,1.0002152218190108,0.00010331390427680917
-0.41223174419574204,-0.41223174419574204,1.0000953854874117,0.00010213366488878829
-0.41158939915840165,-0.41158939915840165,1.0000778022237964,0.00010162296850313356
-0.4109561744480743,-0.4109561744480743,0.9999969793511608,0.00010644847443388064
-0.41036128495034063,-0.41036128495034063,0.9997240738098346,0.00010198806719760435
-0.4098554454976693,-0.4098554454976693,1.0001372121299748,0.00010474376359677305
-0.4093998238640779,-0.4093998238640779,0.9999265211371815,0.00010516029790212868
-0.4088185484331916,-0.4088185484331916,1.0000289408743899,0.00010397840857487037
-0.40814908896354607,-0.40814908896354607,0.999914661816061,0.00010394542273179511
-0.4073448053350148,-0.4073448053350148,1.000117549701674,0.00010300002515298596
-0.40677525986538965,-0.40677525986538965,1.0000126291195275,0.00010235502216271092
-0.40623431930798687,-0.40623431930798687,0.9998664553876383,0.00010316603208759587
-0.40552680769033034,-0.40552680769033034,0.9999294074322499,0.00010359052397468672
-0.40461500284363866,-0.40461500284363866,0.9999842255672775,0.00010257871821195937
-0.4038771669387643,-0.4038771669387643,1.0002268671396037,0.0001027682174150031
-0.4030407761514653,-0.4030407761514653,0.9999859987327104,0.00010323074897552308
-0.40197261171852006,-0.40197261171852006,0.9999975473015269,0.00010310957911701711
-0.40088130316871684,-0.40088130316871684,1.0000872082742327,0.00010231445031730231
-0.3999227530359349,-0.3999227530359349,0.9999163184095627,0.00010289505855188063
-0.39911551601835527,-0.39911551601835527,0.9999964226194781,0.00010203989443330154
-0.3986134053127898,-0.3986134053127898,1.0001027306164603,0.00010191265088192982
-0.3981756646055146,-0.3981756646055146,1.0002032455753107,0.00010116838274975076
-0.3975852846750058,-0.3975852846750058,1.0002000583262647,0.00010221163561638883
-0.3971381701856444,-0.3971381701856444,1.0000428360045253,0.00010111614655403911
-0.39664860993798357,-0.39664860993798357,0.9999116788419681,0.00010247842642205219
-0.3962030310984119,-0.3962030310984119,0.9999421096497482,0.00010225342944669287
-0.39559289975804857,-0.39559289975804857,1.000038168833069,0.00010295942438211349
-0.3951117720433103,-0.3951117720433103,1.0001009786043848,0.00010165148556877442
-0.39456969258972097,-0.39456969258972097,1.0000185411769356,0.00010735785000560492
-0.39377867223811336,-0.39377867223811336,0.9998900391758436,0.00010477896657400869
-0.3935669359219901,-0.3935669359219901,1.0001334168188536,0.00010157523633852433
-0.3929245665050985,-0.3929245665050985,0.999960567646818,0.00010550418542892334
-0.39246349146560533,-0.39246349146560533,0.9998356441611854,0.00010576230245107758
-0.39167196971102386,-0.39167196971102386,1.0000257282578526,0.00010151745806259453
-0.390977802456473,-0.390977802456473,1.0002353501423475,0.00010348726331973999
-0.39031171559472566,-0.39031171559472566,0.9997557221067497,0.0001025924026198133
-0.38955174880247795,-0.38955174880247795,0.9999771091420839,0.00010156460939715697
-0.3886247122718487,-0.3886247122718487,0.9999634813829973,0.00010137827635050322
-0.38815931199424086,-0.38815931199424086,1.000092158146309,0.00010318257159890798
-0.38727880856458796,-0.38727880856458796,0.9999848921177164,0.0001035981856165752
-0.386277973997494,-0.386277973997494,1.0001075337840306,0.00010220018946888016
-0.38531389130075694,-0.38531389130075694,0.999825693224003,0.00010259680797726298
-0.38421297154709466,-0.38421297154709466,0.9999974377280729,0.00010335568432636167
-0.38316099700168704,-0.38316099700168704,1.0000580417055995,0.0001019977750973989
-0.3824020091655257,-0.3824020091655257,0.9999081318934705,0.00010243704137777667
-0.38197779951951816,-0.38197779951951816,0.9999042745572856,0.00010143878798707857
-0.38147214356504267,-0.38147214356504267,1.0001215940097996,0.0001015790010127344
-0.3807728950487217,-0.3807728950487217,0.9999309069724724,0.00010153301340893807
-0.3801202545873821,-0.3801202545873821,1.0000023632508126,0.000102134256648326
-0.37945300633073203,-0.37945300633073203,0.9998900539399731,0.0001024499863196131
-0.378679538860888,-0.378679538860888,1.000166114393823,0.00010224741447813267
-0.37828690228634515,-0.37828690228634515,0.999862478912752,0.00010799074551299319
-0.37772699072083926,-0.37772699072083926,0.9999545667005579,0.00010234311274745214
-0.37736715225328227,-0.37736715225328227,1.0000796920989274,0.00010548233509311816
-0.3768130324089725,-0.3768130324089725,0.9997981009870497,0.00010561511264977664
-0.3764517299365252,-0.3764517299365252,1.0000983259407907,0.00010364061657642927
-0.3757758380343148,-0.3757758380343148,0.9999468182790447,0.00010423085784637463
-0.37485832524471335,-0.37485832524471335,1.0001434007999572,0.0001032304062381554
-0.3740709827405226,-0.3740709827405226,0.9999389968960571,0.00010260733666247835
-0.3732789461493667,-0.3732789461493667,1.000124383952661,0.00010215323338348757
-0.37227091068562,-0.37227091068562,0.9999556606944295,0.00010228326536921347
-0.371631688663183,-0.371631688663183,1.0000357203902215,0.00010342317056666404
-0.3707445736945374,-0.3707445736945374,0.9999921950773896,0.00010396689036626958
-0.3696810057583207,-0.3696810057583207,1.0000133675700142,0.0001022191752307133
-0.36886927140149056,-0.36886927140149056,0.9999404268481745,0.0001033745426559381
-0.3673424965447339,-0.3673424965447339,1.0000277536016633,0.00010264702695623063
-0.366270809283742,-0.366270809283742,0.9998686866066484,0.00010196353040287448
-0.36578886880306527,-0.36578886880306527,1.0000573495980989,0.0001016953455027485
-0.3651104364646017,-0.3651104364646017,1.000087841082546,0.00010200299185088569
-0.36457708406305755,-0.36457708406305755,0.999937202647019,0.0001017637729836482
-0.36406891040023764,-0.36406891040023764,1.0000998823435285,0.00010807951415051737
-0.36364971425937254,-0.36364971425937254,0.9999972972491953,0.0001016564169301116
-0.36306167077927964,-0.36306167077927964,0.9999931623130195,0.00010276639182196575
-0.3623958068608772,-0.3623958068608772,1.0000999940353907,0.00010253937185597084
-0.3617621704383055,-0.3617621704383055,0.9998499943220182,0.00010199921773088935
-0.361209754103038,-0.361209754103038,0.9997725017204072,0.00010571501822062137
-0.3607232320086041,-0.3607232320086041,1.000047710696171,0.00010678107399510427
-0.36023742468605635,-0.36023742468605635,0.999987583921931,0.00010386082201925716
-0.359697072912968,-0.359697072912968,0.999994514923198,0.00010390230985644479
-0.35880727575713534,-0.35880727575713534,1.0000696048858306,0.00010340897996149259
-0.35798524885831284,-0.35798524885831284,1.0000057505393403,0.00010220705751894269
-0.3571824884180387,-0.3571824884180387,0.9998803670608953,0.00010309617912050008
-0.356033492377901,-0.356033492377901,0.9999888997263081,0.00010225218612936863
-0.35549968757404715,-0.35549968757404715,0.9999508088811275,0.00010278622775203758
-0.3548195969888184,-0.3548195969888184,0.9999365736065101,0.00010271765114255556
-0.3539260139470571,-0.3539260139470571,1.0000174231994121,0.00010331681261686965
-0.35292286935291484,-0.35292286935291484,1.0000387772611963,0.00010288856867870574
-0.3515598611411406,-0.3515598611411406,0.9999619392213116,0.00010264442518950314
-0.35019372195529286,-0.35019372195529286,1.000015357161452,0.00010248374828463116
-0.3496382847522909,-0.3496382847522909,1.0000097018749132,0.00010209158305598378
-0.34901238882812324,-0.34901238882812324,1.0000386514748798,0.00010161829119675082
-0.3484755035766284,-0.3484755035766284,0.9998834255437312,0.00010166552053533548
-0.34795897108415375,-0.34795897108415375,1.000230232256018,0.00010200487086029111
-0.347518985287752,-0.347518985287752,1.0000434603525967,0.00010140020590122516
-0.34690686509929947,-0.34690686509929947,1.0000875885992044,0.00010296929756279714
-0.3463327557532466,-0.3463327557532466,1.0000433200456609,0.00010210338420918146
-0.3455260265793186,-0.3455260265793186,0.9999317298772225,0.00010226708224112967
-0.3449648922760389,-0.3449648922760389,0.9999034267968681,0.00010591787987860216
-0.34448334433836864,-0.34448334433836864,0.9999624202130459,0.000101774134651244
-0.34397016821603754,-0.34397016821603754,0.9998922513887012,0.00010414819530701026
-0.3433669629179349,-0.3433669629179349,1.0002243409742453,0.00010395956086946619
-0.34242392097294216,-0.34242392097294216,1.0001732813511417,0.00010312996963529096
-0.34174052265516364,-0.34174052265516364,1.0000641632212044,0.0001022298125847479
-0.34113651177540305,-0.34113651177540305,0.9999257844097318,0.00010265976394891898
-0.3402473906229716,-0.3402473906229716,0.9999958620226679,0.00010252007866653574
-0.339613129675854,-0.339613129675854,1.000056079113652,0.00010282139027785342
-0.3387054672108206,-0.3387054672108206,1.0000205764787538,0.00010255901574621484
-0.33801978980845887,-0.33801978980845887,0.9998933767618714,0.00010313430025865864
-0.33708642698911717,-0.33708642698911717,0.9999602033590481,0.0001027069734010971
-0.3361063121461484,-0.3361063121461484,1.0001471996523161,0.00010286240491432011
-0.33454505106128635,-0.33454505106128635,1.0000344401301544,0.00010295487045613487
-0.33355526249069956,-0.33355526249069956,0.9999599107322774,0.00010209100422974302
-0.3330840581824305,-0.3330840581824305,1.000131755419848,0.0001016207476296312
-0.33252753329506957,-0.33252753329506957,1.000256065832613,0.00010227657040711639
-0.3318671087625262,-0.3318671087625262,1.0000369941094693,0.00010163743125464163
-0.3313629585936724,-0.3313629585936724,0.9999874431534987,0.0001018598901998221
-0.33072642414917935,-0.33072642414917935,0.9998764409504363,0.00010249612256539142
-0.33009413513937036,-0.33009413513937036,1.0002160136299985,0.00010211531854971889
-0.3293548483401537,-0.3293548483401537,0.9999120135949383,0.00010182740126948265
