time,time,flux,flux_err
-0.4999451591981294,-0.4999451591981294,1.000078653857214,0.000821606235291173
-0.49969371972595883,-0.49969371972595883,1.0002437466612977,0.0006443445068777978
-0.49936284249755164,-0.49936284249755164,1.0005334398021914,0.0007436461135489385
-0.49908143733191535,-0.49908143733191535,1.0007389836676215,0.0006404781770572873
-0.49888677525814273,-0.49888677525814273,0.999843484603441,0.0006203551416410271
-0.4987881767352519,-0.4987881767352519,1.0005913996316527,0.0006678197614658403
-0.4987102200699155,-0.4987102200699155,1.0007876648166598,0.0006814865442749572
-0.4985394693328999,-0.4985394693328999,0.9997176404275997,0.0007598433738284067
-0.49834792965411906,-0.49834792965411906,0.9998054157746644,0.0006599582831892401
-0.49814814337005375,-0.49814814337005375,0.9993297177281392,0.0006455729533935181
-0.4979783186558052,-0.4979783186558052,0.9999524287983631,0.0005987375578912585
-0.4977093636247446,-0.4977093636247446,0.9994937606312657,0.0007032424203729968
-0.49748987229322666,-0.49748987229322666,1.000420881634613,0.000601206566349823
-0.4973857410419441,-0.4973857410419441,1.0007389057846754,0.0006244451365710691
-0.49719651296691153,-0.49719651296691153,1.0000982521246415,0.0007476713094008906
-0.49710273723394494,-0.49710273723394494,1.0003682398076097,0.0007850061810910167
-0.4968815272950451,-0.4968815272950451,1.0006328453688913,0.0006625424398048767
-0.4967493917662068,-0.4967493917662068,0.9998721210409076,0.0005869454068329548
-0.4965974477250711,-0.4965974477250711,1.0010044091774257,0.0006820096548718983
-0.49640326440130594,-0.49640326440130594,0.9997605400949782,0.000775262307336508
-0.49627828799639245,-0.49627828799639245,1.000380416458379,0.000643561706118961
-0.49616051911070824,-0.49616051911070824,0.999901555930405,0.0007152003798020717
-0.4960144160177151,-0.4960144160177151,1.0004237464261672,0.0005485199703304262
-0.4958808616946044,-0.4958808616946044,0.9999411199070846,0.0007365318446590647
-0.4957330196346447,-0.4957330196346447,1.0005372487563255,0.0006997197320498127
-0.49552633934290496,-0.49552633934290496,0.9993507683259402,0.000714614621110758
-0.49532108616622283,-0.49532108616622283,0.9999546654699618,0.0006051647804132643
-0.4950320856216422,-0.4950320856216422,1.0002317707549573,0.0006208149715153527
-0.4948401731031481,-0.4948401731031481,0.99947234662164,0.0007342788373004936
-0.49461502964186366,-0.49461502964186366,0.9995508497279377,0.000684502691374943
-0.4944493526076258,-0.4944493526076258,1.0008046544117006,0.0006787325579666177
-0.4942967895862239,-0.4942967895862239,1.0002334251271385,0.0006487864057719654
-0.49411080433637833,-0.49411080433637833,0.9995234287839253,0.0007810256887067454
-0.49389443078835027,-0.49389443078835027,0.9997172194924804,0.0005740837014038478
-0.49368736585820444,-0.49368736585820444,1.0001438030889667,0.0006328855076990648
-0.49346902169345414,-0.49346902169345414,1.0003717798117733,0.0005632055658800757
-0.4933778673424968,-0.4933778673424968,0.9996289664453488,0.0007898171021276124
-0.4932019739317184,-0.4932019739317184,0.9999937761184008,0.0006181335720827761
-0.49301820033360855,-0.49301820033360855,0.9994163133883116,0.0006466426396153532
-0.49287208087407636,-0.49287208087407636,1.0001109048127939,0.0006431030599349019
-0.49272792156334616,-0.49272792156334616,0.9998702955225618,0.0006598246038788489
-0.49248731261395734,-0.49248731261395734,1.0002735565543959,0.0006705924257932605
-0.49221747896735907,-0.49221747896735907,1.000097651613815,0.0006585508023633166
-0.49206068476923975,-0.49206068476923975,1.0001588155282704,0.0006139913575171437
-0.49185808859547253,-0.49185808859547253,0.999320232520504,0.0006867782422611842
-0.49170731681297186,-0.49170731681297186,1.0005467766313088,0.0006730924040615636
-0.4915844768751413,-0.4915844768751413,1.000587885146866,0.0006119916989257273
-0.4915065461602353,-0.4915065461602353,0.999830705097688,0.0005482880259968995
-0.4914286143146455,-0.4914286143146455,0.9999382364017689,0.0007143420326542132
-0.491291726379859,-0.491291726379859,0.9992332035203212,0.0008592042048772425
-0.4910538912008633,-0.4910538912008633,0.9999365590198334,0.0007022474896108353
-0.4908185689280799,-0.4908185689280799,0.9999596863201207,0.0006131859191830655
-0.4905995288689155,-0.4905995288689155,0.9998158520916223,0.0006783738395944748
-0.4903955112720723,-0.4903955112720723,0.9993398230664688,0.0006747777957136485
-0.49028387194484824,-0.49028387194484824,0.9996955429921472,0.0006713703196208434
-0.49018508444642067,-0.49018508444642067,1.0009326244355545,0.0006281840187527565
-0.49009639691503254,-0.49009639691503254,1.0004541182117535,0.0007043439681165699
-0.48991237099980933,-0.48991237099980933,1.0003870642828598,0.0006528825501219838
-0.4896252344602544,-0.4896252344602544,0.9995162164209578,0.0006170609510774808
-0.489367919437791,-0.489367919437791,0.9999579594622642,0.0006902097225674061
-0.4892401796227205,-0.4892401796227205,1.0002431961006706,0.0005489350432634364
-0.4891385952709243,-0.4891385952709243,1.000061431320266,0.0006774513902216459
-0.48901097295383805,-0.48901097295383805,1.000100853538659,0.000584233348704577
-0.48886425644377596,-0.48886425644377596,1.0000311140008584,0.0007641066834336252
-0.4887221187949763,-0.4887221187949763,1.000358509858192,0.0005938878387246367
-0.4885051441160613,-0.4885051441160613,1.0002291649357358,0.0007523796019435162
-0.4882939946881379,-0.4882939946881379,1.0004490771171857,0.000600002869421908
-0.48812281666178026,-0.48812281666178026,0.9996911568087608,0.0006600684380861921
-0.4878563824495359,-0.4878563824495359,1.0003978302925762,0.0006279160336593269
-0.4876914521380968,-0.4876914521380968,1.000170695949825,0.0005437663396415779
-0.48766067196847873,-0.48766067196847873,1.00027295241471,0.0006460127212694949
-0.4875724019679183,-0.4875724019679183,0.9996795803657623,0.0007159187557342286
-0.4873031372211699,-0.4873031372211699,1.0000224096944794,0.0006489208963233878
-0.487189653913083,-0.487189653913083,0.9998889078151263,0.0006288440149766361
-0.4870279052629485,-0.4870279052629485,0.9995287617498707,0.0006946199044387096
-0.4868553062369756,-0.4868553062369756,1.001296289364858,0.0006011576915260269
-0.4866570008860435,-0.4866570008860435,1.0002514523461963,0.0006053282429789924
-0.48640796305408,-0.48640796305408,0.9994098349080469,0.0007190368066059396
-0.4863191503376584,-0.4863191503376584,1.0001005557585358,0.0005776073746409313
-0.48617168713826686,-0.48617168713826686,1.000467491607726,0.0006887107875266311
-0.4859386758580513,-0.4859386758580513,1.0003279222152155,0.0006282569734248668
-0.4857854279820458,-0.4857854279820458,0.9995644591714032,0.000645715320041517
-0.48567817107978045,-0.48567817107978045,1.0003482170871674,0.000611778492356965
-0.48555299496510995,-0.48555299496510995,0.9999391337723165,0.000706461244607445
-0.4854329154804873,-0.4854329154804873,0.9999392536977675,0.000517743363737508
-0.48527523821394425,-0.48527523821394425,1.0006064603425884,0.0006567770131571529
-0.4850963228200271,-0.4850963228200271,1.0000404569480046,0.0006015871615044187
-0.4848620313903666,-0.4848620313903666,0.9997877798214247,0.0006814587455104968
-0.4846985343436245,-0.4846985343436245,1.0003751577408049,0.0006534154116332863
-0.4844744090223685,-0.4844744090223685,1.000574463733326,0.0007228679704911154
-0.4842642341995088,-0.4842642341995088,1.0006729100721456,0.0006371178970927583
-0.4841432921268279,-0.4841432921268279,0.999520643981865,0.0006133252793612603
-0.4839670287525223,-0.4839670287525223,1.0005311592601136,0.0006024345916555032
-0.48374977022540405,-0.48374977022540405,0.9998085442529405,0.0006322310502007086
-0.48347463130630786,-0.48347463130630786,1.0011397964471822,0.0006607862341978942
-0.4832377947132045,-0.4832377947132045,1.0005932328357277,0.00069520691796436
-0.48310734218830476,-0.48310734218830476,1.0007337152367728,0.0008142461904107794
-0.48295814166995116,-0.48295814166995116,1.0000533606360313,0.0006675273834867395
-0.4828760241136479,-0.4828760241136479,0.9999399047323658,0.0005534061239993867
-0.48277398169011576,-0.48277398169011576,1.00082697147449,0.000686006676247277
-0.482634419578244,-0.482634419578244,0.9995211269161135,0.0005857393823009633
-0.4823690480538062,-0.4823690480538062,1.000569050070774,0.000600488297262947
-0.4821443462155003,-0.4821443462155003,0.9994150759728087,0.0005802801965005698
-0.4819487902263063,-0.4819487902263063,0.9989068070610128,0.0006306035416870296
-0.4817592440369481,-0.4817592440369481,1.0005370433504652,0.0006975306896384001
-0.48155179252207747,-0.48155179252207747,0.9999228835970119,0.000766824779284578
-0.48141768397254053,-0.48141768397254053,0.9996289483836784,0.0007249103822472359
-0.48121630396926773,-0.48121630396926773,0.9998676988133738,0.0006194681684933794
-0.48091391157213365,-0.48091391157213365,0.9999626903285599,0.0006621240104104342
-0.48079017770214705,-0.48079017770214705,1.0001372728470976,0.0005711734279447015
-0.4806627777252288,-0.4806627777252288,1.0004429053437576,0.000604101476663039
-0.4804708954769012,-0.4804708954769012,1.0002831203143634,0.0006641477746237297
-0.48026618196672644,-0.48026618196672644,0.9996165688733785,0.0006065867713945952
-0.4801734869426582,-0.4801734869426582,1.0009650939562083,0.0007170447371977406
-0.48003687008531415,-0.48003687008531415,1.0000529976646366,0.0008054732347277877
-0.4798085717360664,-0.4798085717360664,0.9999737223856162,0.0005965826270062757
-0.4796366144728381,-0.4796366144728381,1.0005545446864783,0.0005960629138879709
-0.4794505102421681,-0.4794505102421681,1.000036747300625,0.0007134367988518043
-0.4791485004534479,-0.4791485004534479,1.000565339205691,0.0006502544750972596
-0.4789908707774885,-0.4789908707774885,1.0002743411123853,0.0006282608880970059
-0.47890559040461084,-0.47890559040461084,0.999732545403826,0.0006679994695140839
-0.4787985486160323,-0.4787985486160323,0.9990595548745519,0.0007521845386824916
-0.4786159781724564,-0.4786159781724564,0.9999253109479673,0.0007687073969598929
-0.47841071211296365,-0.47841071211296365,0.9999741314896935,0.0005704500414285393
-0.47825074851716637,-0.47825074851716637,1.000025852640006,0.0006455070796265598
-0.47807692271308044,-0.47807692271308044,1.0001774284009866,0.0006007423116560091
-0.4778525030167657,-0.4778525030167657,1.0001692282872257,0.0006641068299802097
-0.47766862137796123,-0.47766862137796123,1.000065813254841,0.0006350493014475816
-0.4775702211438329,-0.4775702211438329,0.9996893141793091,0.0006050753318117842
-0.4774096121611365,-0.4774096121611365,0.9993755087008239,0.0006916174527978968
-0.47725318740485817,-0.47725318740485817,1.000516725558499,0.0006804519240001644
-0.47705135194555626,-0.47705135194555626,0.9998460389009199,0.0006737409368771851
-0.4768619057475007,-0.4768619057475007,1.0000700043801316,0.0006141886123867729
-0.4766126664064359,-0.4766126664064359,0.9998191844626177,0.000643566970882305
-0.47640508284966926,-0.47640508284966926,0.9996606032589785,0.000780874120917235
-0.4762475611169066,-0.4762475611169066,1.0004387339413845,0.0006146239511324876
-0.47610147809245973,-0.47610147809245973,0.9996498319447756,0.0006042819377328842
-0.47598309598688504,-0.47598309598688504,1.0002863301273657,0.0006579290459188013
-0.4758793424858595,-0.4758793424858595,1.000304788610166,0.0007030437406938658
-0.47568874226199115,-0.47568874226199115,1.0005235703887578,0.0006710288802728616
-0.47554544076265304,-0.47554544076265304,0.9990688287005012,0.0006397336674442619
-0.47535353395869606,-0.47535353395869606,1.000197881397748,0.0006091260177704295
-0.47510143804975086,-0.47510143804975086,1.0000809059980966,0.0006104596718137142
-0.47499750507704447,-0.47499750507704447,0.9999484799971992,0.0006212278962024069
-0.4748186858349072,-0.4748186858349072,0.9995981531979078,0.000788319301439921
-0.47462393013120163,-0.47462393013120163,1.0002290114665375,0.000651329706562508
-0.47442788692496835,-0.47442788692496835,1.0003270456059377,0.0007068614184897517
-0.4742469001219433,-0.4742469001219433,1.0007004099256296,0.0006738539707665233
-0.47403177557716847,-0.47403177557716847,0.9997576154847394,0.0005951565358301231
-0.47383635201113067,-0.47383635201113067,0.9994168210542291,0.0006110791080389713
-0.4736367510187847,-0.4736367510187847,0.9999247293710927,0.0005465203048852477
-0.4734911411978828,-0.4734911411978828,0.9998111583677234,0.000720501701693536
-0.4733186143850617,-0.4733186143850617,0.9998724463739966,0.0006978557637605074
-0.47313514159759507,-0.47313514159759507,0.9992965297607366,0.0007141649264311991
-0.4730021511684754,-0.4730021511684754,1.0004121159098358,0.0006474518680614184
-0.47284086689469407,-0.47284086689469407,1.0004199433414742,0.0006904531783178098
-0.4725952453511127,-0.4725952453511127,0.9995685303659176,0.0006538453740301245
-0.47230567790320493,-0.47230567790320493,1.0002776255378332,0.000687728692187513
-0.47214961358113217,-0.47214961358113217,0.9999466569286725,0.0005521403363178884
-0.471956737369328,-0.471956737369328,1.0005318017380478,0.0007211062600424166
-0.4718142897982034,-0.4718142897982034,0.9997092736128215,0.0006687656461374085
-0.4717275213857647,-0.4717275213857647,1.000289039850496,0.000542647301524093
-0.47164449117553886,-0.47164449117553886,1.0001736290348497,0.0006365645917875107
-0.4715697323787026,-0.4715697323787026,1.0005218267342042,0.0006917286856122504
-0.4713183391970233,-0.4713183391970233,1.0000760336847443,0.0008376061516446532
-0.4710594153875718,-0.4710594153875718,0.9996920077040142,0.0006409878766065094
-0.47081018176395445,-0.47081018176395445,0.9996950462006533,0.0006162805120478054
-0.4707101250634878,-0.4707101250634878,1.0005506924756644,0.0006575936312114663
-0.4706042220335803,-0.4706042220335803,0.9996909904211501,0.0005171568549400161
-0.47045693893524004,-0.47045693893524004,0.9995732914018021,0.0006723349964297138
-0.47037117855070393,-0.47037117855070393,1.0001268363518405,0.0007129067294886892
-0.4702553456030728,-0.4702553456030728,0.9999918067363069,0.0005686265645241263
-0.4701479931252834,-0.4701479931252834,1.0011307896786987,0.0007020748773238939
-0.4698768646041572,-0.4698768646041572,0.9996565809983012,0.000672120913411666
-0.4696265075195697,-0.4696265075195697,0.9998524040392134,0.0006470850366514507
-0.4694477020901104,-0.4694477020901104,1.0000351114777302,0.0005846452351554318
-0.46927522639380187,-0.46927522639380187,1.000138890240884,0.0005627258729579041
-0.46918676910427165,-0.46918676910427165,0.9997836709036892,0.000683106053182314
-0.469032886322384,-0.469032886322384,0.9994723894081702,0.0007510657777497638
-0.4688671493699076,-0.4688671493699076,0.9994384603197577,0.0006561521414227087
-0.46870416415986255,-0.46870416415986255,1.0012338782224848,0.0006773164184212488
-0.4684644014843798,-0.4684644014843798,1.0011044743873556,0.0006981422119616753
-0.4682173568086,-0.4682173568086,1.0007731511819127,0.0006187646580047437
-0.46798367216688347,-0.46798367216688347,1.0005257947385497,0.0007045976138757954
-0.46782518133695705,-0.46782518133695705,1.000497518417165,0.0006125139069661447
-0.4677694360718306,-0.4677694360718306,1.000431584783065,0.0006866843721531474
-0.46757624577658136,-0.46757624577658136,1.0005814481649085,0.0006363338312167907
-0.46733594457546135,-0.46733594457546135,1.0001401409781656,0.0006267089249576515
-0.46714366043088373,-0.46714366043088373,1.0001130624918577,0.0007099647494938228
-0.4669233591623197,-0.4669233591623197,1.0000291169624957,0.0006137461862065657
-0.4666429304001213,-0.4666429304001213,0.9995139833692374,0.0006470590874779125
-0.4664789637296053,-0.4664789637296053,0.9998573719805478,0.0006469267280016201
-0.46638255223224406,-0.46638255223224406,1.0001965932698027,0.0006292905422360863
-0.4661985743783589,-0.4661985743783589,0.9995189661434972,0.0007186450330125456
-0.46591827291122173,-0.46591827291122173,0.9994938137092578,0.0006120840485168768
-0.4658060212626879,-0.4658060212626879,1.0012277292409935,0.0006524165535636854
-0.4656460604899621,-0.4656460604899621,1.000087356345357,0.0006705803162952207
-0.46552208603534384,-0.46552208603534384,0.9997217421457247,0.000543884416801593
-0.4653542305015435,-0.4653542305015435,1.0005452761534346,0.0006581568853046305
-0.46512609385245013,-0.46512609385245013,0.9988488187318406,0.0007032498456534895
-0.4649627235623484,-0.4649627235623484,0.9995362775259637,0.0006055660100438085
-0.46474738205361066,-0.46474738205361066,1.0000418356533671,0.0007457910109523512
-0.46458651876382645,-0.46458651876382645,1.0001050707224557,0.000653686146168448
-0.46438831504638073,-0.46438831504638073,1.0002986368348492,0.0006440102136867081
-0.4643086176933139,-0.4643086176933139,1.0001946117585285,0.0006392866576264887
-0.4641769800997281,-0.4641769800997281,1.0004054034172774,0.0006131655882967387
-0.46400496026471955,-0.46400496026471955,0.9996623732186073,0.0006138724116592329
-0.46379114407172894,-0.46379114407172894,0.9994922564274675,0.0006466548785207164
-0.4635420562641229,-0.4635420562641229,1.000395962882971,0.0006776673049412545
-0.4633144755855028,-0.4633144755855028,0.9999614523857284,0.0008240739182498477
-0.4631485686863016,-0.4631485686863016,0.9991652203368545,0.0007340150171751287
-0.46302370870907905,-0.46302370870907905,1.0002697695363427,0.0006835169966817079
-0.4629190917905362,-0.4629190917905362,1.000719177022201,0.0006810270686239599
-0.46279706036875723,-0.46279706036875723,1.0005601944306857,0.0006145425987698903
-0.46264034567284396,-0.46264034567284396,0.9997635134094779,0.0005677802492665465
-0.46239091709503555,-0.46239091709503555,1.000500369382963,0.0006037733361236628
-0.4622691125063284,-0.4622691125063284,0.9999743641469653,0.0005529672147017055
-0.46211375721468356,-0.46211375721468356,1.000434033653523,0.000642452093294568
-0.46198227177301304,-0.46198227177301304,1.0001568101394223,0.0006359347820940146
-0.46169996288372206,-0.46169996288372206,1.0001289027201226,0.0007946632507774091
-0.4616008478486037,-0.4616008478486037,1.0003901605386292,0.0007442725587386915
-0.46146814251260365,-0.46146814251260365,0.9996128980978177,0.0005845244900337919
-0.461172373687441,-0.461172373687441,0.9992229032831276,0.0006030215635080433
-0.46099026263909765,-0.46099026263909765,1.0005046143290681,0.0007010568009910741
-0.4608579477506282,-0.4608579477506282,1.0004732703814385,0.0005830616058703446
-0.4606480355512758,-0.4606480355512758,0.9999445901005904,0.0006787923211046774
-0.46046044614558923,-0.46046044614558923,0.9999917207769841,0.0006325956192064887
-0.46034044337648083,-0.46034044337648083,1.0001881064494333,0.0006881980449676774
-0.46024357277710803,-0.46024357277710803,1.0001558057688698,0.0007823555470118012
-0.4600827668298734,-0.4600827668298734,1.0007769076803719,0.0007083639447861129
-0.4598840863109217,-0.4598840863109217,1.000447647887218,0.0006510479009974108
-0.45973591913134443,-0.45973591913134443,1.0001481123137854,0.0006169214058180348
-0.4595675595403009,-0.4595675595403009,1.0007396086588944,0.0006713169871951644
-0.4593042029853677,-0.4593042029853677,0.9997235682275774,0.0006273927260887974
-0.4591425895792781,-0.4591425895792781,1.0004737130453771,0.0006206571854906382
-0.45903640490359976,-0.45903640490359976,0.9997452740895316,0.0006088186462566893
-0.458961630815611,-0.458961630815611,1.000149272737094,0.0007523817425695589
-0.45873277372447774,-0.45873277372447774,1.0000657273481122,0.0008295941363906104
-0.4585263595239667,-0.4585263595239667,0.9999593586161571,0.0005581806956830959
-0.45838982843997655,-0.45838982843997655,1.0005553178540598,0.0006484368787213791
-0.45816190657933475,-0.45816190657933475,1.000516409429846,0.0006900792452103858
-0.4579692112034536,-0.4579692112034536,0.999923493644749,0.0007738417902073972
-0.45775057162463784,-0.45775057162463784,0.9999957031600953,0.0006048434859115489
-0.4576168881081685,-0.4576168881081685,0.9988456490844102,0.000631199054057026
-0.4574300885586126,-0.4574300885586126,1.0003616353915388,0.0007150204644255657
