time,time,flux,flux_err
-0.4998981135407424,-0.4998981135407424,1.0000337554767598,0.0002468678369298142
-0.4997457300202465,-0.4997457300202465,0.9995235119460862,0.00022835533577523316
-0.499648884490307,-0.499648884490307,1.0003768950622443,0.00021264793868054676
-0.4995773588983866,-0.4995773588983866,1.000190936346276,0.00021935394394455334
-0.49946959418812187,-0.49946959418812187,0.9998815145335502,0.0002169048018149426
-0.4993267455844034,-0.4993267455844034,0.9998426279711579,0.000241553639220215
-0.49924354075628796,-0.49924354075628796,1.0002936505904025,0.00021534922182248265
-0.4990868269924249,-0.4990868269924249,0.9997835695409799,0.00023554501279893718
-0.498852581086976,-0.498852581086976,0.999870757699043,0.00021654330294769458
-0.49874496269912927,-0.49874496269912927,1.0000219134203001,0.00023187884124698308
-0.49862409363122423,-0.49862409363122423,0.9999932040160443,0.00021212820949020674
-0.4985510739119491,-0.4985510739119491,1.0000135104929782,0.00022763972385899688
-0.49842712338868295,-0.49842712338868295,0.9997955830765999,0.0002286011049283673
-0.4982379401641083,-0.4982379401641083,1.0000735508500598,0.00022806547447190144
-0.4980347986340348,-0.4980347986340348,1.0000611305997809,0.0002212704900731996
-0.4978630594203423,-0.4978630594203423,1.0004048281497804,0.00022420436063819632
-0.4977680582065659,-0.4977680582065659,1.0000137206630773,0.0002231962268407632
-0.49765998327275157,-0.49765998327275157,0.9998410005355737,0.00020624772453763652
-0.4975380604591919,-0.4975380604591919,0.9999827002086257,0.00023226711345797894
-0.4974555945118482,-0.4974555945118482,0.9996625672050141,0.00022157132737975747
-0.4973478412459372,-0.4973478412459372,0.9998257501473684,0.00022189163527738175
-0.4972470503773366,-0.4972470503773366,0.9998759902590877,0.0002166261709712011
-0.4969404163835861,-0.4969404163835861,1.0000975624398318,0.0002235025358757518
-0.4968484675628133,-0.4968484675628133,1.0001058582737496,0.00023007770697932198
-0.4967665548414516,-0.4967665548414516,0.9998245604236333,0.00024151201636689893
-0.4967163230678125,-0.4967163230678125,0.9999264426813419,0.00021528925944114973
-0.49652418611585747,-0.49652418611585747,1.0001223728310293,0.00021228754091903195
-0.4963425957081199,-0.4963425957081199,0.9999521140418063,0.00021949548855520226
-0.49623876626574204,-0.49623876626574204,1.000130005832387,0.00023195759387568444
-0.4960824479210714,-0.4960824479210714,0.9997186377941645,0.00021846142729050065
-0.49601435611621125,-0.49601435611621125,1.0000573616357582,0.00023013702328229614
-0.49592538662909647,-0.49592538662909647,0.9997281406914504,0.00022440605723570854
-0.4957958241684537,-0.4957958241684537,1.0002554606631897,0.00019594100754359556
-0.49573976127794595,-0.49573976127794595,1.0004057312608599,0.00023234504032671938
-0.49559441091842016,-0.49559441091842016,1.0002541617750498,0.00022942870696638853
-0.49547759185297763,-0.49547759185297763,0.9996274914557508,0.00021691229327393534
-0.4953493168519344,-0.4953493168519344,1.0001588913834762,0.0002250804738719932
-0.495263874023658,-0.495263874023658,1.0000548148120003,0.00021467919026209423
-0.4952042697572324,-0.4952042697572324,1.0000031064394435,0.0002127382323385962
-0.4951275492006971,-0.4951275492006971,0.9999083804723317,0.00022172344179438924
-0.4950274188784533,-0.4950274188784533,0.9999026957034541,0.0002105310489045319
-0.4948812273047224,-0.4948812273047224,0.999870502851459,0.0002221189918591295
-0.4947697510207945,-0.4947697510207945,0.9999598514363178,0.00023648769080129108
-0.49467845469989696,-0.49467845469989696,1.0003321764047919,0.0002000601560620977
-0.4945362242295232,-0.4945362242295232,1.000198535093784,0.00023059561507020508
-0.4944663255701016,-0.4944663255701016,1.0000834505393825,0.0002295178551293616
-0.49431343236137765,-0.49431343236137765,0.9999489326048441,0.00021115391812842575
-0.49419932725068066,-0.49419932725068066,1.0000193491916942,0.0002254669045302873
-0.4941300466751272,-0.4941300466751272,0.9998948849023384,0.00022632230489060483
-0.4940054032187618,-0.4940054032187618,0.9998143540057967,0.00021314744141426
-0.4938914991558704,-0.4938914991558704,1.000007576808552,0.00021938937032923078
-0.4937949878622021,-0.4937949878622021,0.9999857533078954,0.0002078662584206018
-0.49365788211580364,-0.49365788211580364,0.999944237051632,0.00021123045073158446
-0.4935643684504612,-0.4935643684504612,1.000285744466128,0.00020918336317714577
-0.49344048722996375,-0.49344048722996375,1.0002620184435314,0.00021961731909771412
-0.493345483327721,-0.493345483327721,0.9996751378839891,0.0002294454339350216
-0.4932570654535084,-0.4932570654535084,0.9997924444535136,0.00020849754046007953
-0.49315343615962776,-0.49315343615962776,0.9996108982232339,0.00023481321319952382
-0.49307556151325116,-0.49307556151325116,1.0000301825260085,0.00021344094419909645
-0.4929353076702682,-0.4929353076702682,1.0001642463622478,0.00020567329624383016
-0.49278714560859954,-0.49278714560859954,1.0000214364161546,0.00022277433713740802
-0.49265412125023433,-0.49265412125023433,0.9999191175739621,0.00023636229040745223
-0.49254666861525037,-0.49254666861525037,0.9999902072706275,0.0002139910591963593
-0.49246705785553785,-0.49246705785553785,0.9998886047386787,0.00022344321183315942
-0.4924183993964107,-0.4924183993964107,0.9999288596888893,0.00022493912204671687
-0.49230997366103113,-0.49230997366103113,1.0000728817772173,0.00022325828488543935
-0.49214078276927464,-0.49214078276927464,1.0002114503769737,0.00021382082778785425
-0.4919319548571366,-0.4919319548571366,1.0000972171542188,0.0002261311557228744
-0.49179187010086023,-0.49179187010086023,0.9997902155186337,0.00022172858336858562
-0.4916861873214657,-0.4916861873214657,0.999988218246689,0.00022260100570543998
-0.49162710013624744,-0.49162710013624744,1.0001928201746852,0.00022439458833777031
-0.4914869879299658,-0.4914869879299658,1.00027730158592,0.00022798568237146025
-0.4913745277663111,-0.4913745277663111,0.9999717851480823,0.00021954126465304575
-0.49122175984230126,-0.49122175984230126,0.99992969956793,0.0002283538090532123
-0.4910191852512071,-0.4910191852512071,1.0000326331895923,0.00020745194115663824
-0.49084825684403766,-0.49084825684403766,1.0000009058229895,0.0002296799847322048
-0.49072867501017753,-0.49072867501017753,0.9999861235796855,0.00022599037614796222
-0.49064599976773027,-0.49064599976773027,1.0002043385883095,0.0002183296801973224
-0.4905517496466928,-0.4905517496466928,0.9998609512846555,0.00022824509939234033
-0.49041354229557327,-0.49041354229557327,0.9999156208165381,0.00020598375108858
-0.4902906211769732,-0.4902906211769732,1.0000965841805425,0.00021284089090066447
-0.4901413408231747,-0.4901413408231747,1.0001365893469567,0.0002306617342157776
-0.490028828423965,-0.490028828423965,0.999883427169701,0.00025587731163421984
-0.4899182528992242,-0.4899182528992242,1.0001117124178747,0.00022220645644936986
-0.4898539270405308,-0.4898539270405308,1.0000517204100152,0.00023261103569870845
-0.48976696006502607,-0.48976696006502607,1.0002906783552188,0.00021816022291924623
-0.48965981100409406,-0.48965981100409406,0.9997300909263249,0.00023189604766745957
-0.48959309463825773,-0.48959309463825773,1.000227446821951,0.00021617615446548627
-0.48948509033507437,-0.48948509033507437,1.000228723794093,0.0002247488361828256
-0.4893658199143829,-0.4893658199143829,0.9999486455939621,0.0002289082873892118
-0.48909179785623563,-0.48909179785623563,1.0001512281326632,0.00020620106042263628
-0.48898687844339295,-0.48898687844339295,1.000001141853654,0.00021807522064881788
-0.4888754878862528,-0.4888754878862528,1.0000115937654186,0.0002383411603468858
-0.4888315051481186,-0.4888315051481186,1.0001338981131878,0.00025830531220178554
-0.4887368722593237,-0.4887368722593237,1.0000344581737195,0.00021973626811947015
-0.48850207322539063,-0.48850207322539063,1.0003176205291486,0.00022396067356964658
-0.4883775208923907,-0.4883775208923907,1.0001991732826476,0.00024657716911386234
-0.48823085605472444,-0.48823085605472444,1.000207267415092,0.0002203973539005516
-0.4881151898924145,-0.4881151898924145,1.0001382169603938,0.00021421068240862025
-0.4880540974154428,-0.4880540974154428,0.9999649483479193,0.0002263560642311284
-0.4879342464504589,-0.4879342464504589,0.9995421676162488,0.0002179598543172267
-0.4878594720736146,-0.4878594720736146,0.999929888238919,0.00021925888889055955
-0.48773224293108797,-0.48773224293108797,0.9998309424460465,0.0002306745987676022
-0.48758536027235094,-0.48758536027235094,0.9998028255751743,0.00024928298899974265
-0.4875038339814637,-0.4875038339814637,1.0000125647376756,0.0002114620527802253
-0.48738432382233443,-0.48738432382233443,0.9998569333767353,0.00022386103124460155
-0.4872466104970954,-0.4872466104970954,0.9996844531665665,0.00024803732497719907
-0.487132976524299,-0.487132976524299,1.0000374578194409,0.0002027671753610899
-0.4869991173916787,-0.4869991173916787,0.9999733501372008,0.00022359293755766586
-0.48691942490913787,-0.48691942490913787,1.000343524328408,0.0002246257169577355
-0.4868070435288246,-0.4868070435288246,0.9999664080755265,0.0002038648204449019
-0.48672990371997005,-0.48672990371997005,0.9997158534524619,0.00021114194210027898
-0.48658849620915134,-0.48658849620915134,0.9998597832275771,0.0002329143714832325
-0.4864596390492807,-0.4864596390492807,0.9998597023018441,0.00023749873920640894
-0.4862826895863691,-0.4862826895863691,1.0000531838247222,0.0002161212229804308
-0.4862019153413712,-0.4862019153413712,0.999941949623031,0.00021663012329148105
-0.4861193417207687,-0.4861193417207687,0.9998494447789616,0.00022192356181167748
-0.4859823633436463,-0.4859823633436463,1.0001828270566553,0.00022046549806497287
-0.48584655801023474,-0.48584655801023474,0.9999630910792494,0.00020536601080908254
-0.48569778860619406,-0.48569778860619406,1.0002112320809782,0.0002079143269470686
-0.48551269138988573,-0.48551269138988573,1.0004520051081185,0.00021340072048488227
-0.48542652991673096,-0.48542652991673096,0.9998578065879633,0.00022448625445252064
-0.485339089869376,-0.485339089869376,0.9999491149500184,0.00020867262313418715
-0.48521540112778894,-0.48521540112778894,1.0001366190467456,0.00023000053369814713
-0.4851381200605829,-0.4851381200605829,1.0000893830696007,0.00021395733233820703
-0.4849655747937504,-0.4849655747937504,0.9998022174387066,0.0002072504720308265
-0.4847880943394557,-0.4847880943394557,1.000061413593453,0.00023353959010509397
-0.4846734709397424,-0.4846734709397424,1.0000098891043459,0.00021511697432822826
-0.48459714814525795,-0.48459714814525795,1.0004925697620433,0.00021531412753111653
-0.48453626153350343,-0.48453626153350343,1.0000193153606134,0.0002173980287930903
-0.484464355550881,-0.484464355550881,0.9998733614642878,0.00022243938421290184
-0.4844159601758292,-0.4844159601758292,0.9998208974704228,0.0002088619047900336
-0.4843087383909733,-0.4843087383909733,1.0000274963542013,0.00023063703027156467
-0.4841363998959423,-0.4841363998959423,1.000038747877221,0.00021884001587805396
-0.4839705379199586,-0.4839705379199586,1.0003264699509191,0.00022048273015522424
-0.4838185643340694,-0.4838185643340694,0.9997966689813879,0.0002215961714418891
-0.48373450158760534,-0.48373450158760534,1.0000795306682058,0.00022053170014760167
-0.4836654859565897,-0.4836654859565897,0.9998195081137442,0.00023365001954006774
-0.4834854507105774,-0.4834854507105774,0.9999433529184063,0.0002380584697786057
-0.4833711744227912,-0.4833711744227912,0.9998772235211281,0.00020925547123724518
-0.4831390252271376,-0.4831390252271376,0.9998469526989145,0.00021365021462335922
-0.48299099162613857,-0.48299099162613857,0.9998510494628242,0.00021728749210231176
-0.48289264528939385,-0.48289264528939385,1.0000385590606853,0.00023566853503194027
-0.48277978378391706,-0.48277978378391706,1.000298351041908,0.00021229678519717093
-0.48270570920794853,-0.48270570920794853,1.000353843906948,0.00022612705478553016
-0.4825905160352704,-0.4825905160352704,1.0001645726100459,0.0002328767756685684
-0.48242577959390476,-0.48242577959390476,0.9998918133054545,0.00021163146032844539
-0.4822509769335738,-0.4822509769335738,0.9998733012939767,0.0002210314517009662
-0.4821288807237579,-0.4821288807237579,1.0005327283608811,0.0002600401989527512
-0.4819874363929557,-0.4819874363929557,1.0001138220022567,0.00022447288695180814
-0.48190193052432734,-0.48190193052432734,1.0000539558843944,0.00023464171933468714
-0.48181636290319146,-0.48181636290319146,0.9998362651913537,0.00022152425258272515
-0.48170688113023064,-0.48170688113023064,0.9998498902628438,0.00023520379818416266
-0.4816043270569935,-0.4816043270569935,0.9996518863722773,0.00021076422292478185
-0.4815222710116359,-0.4815222710116359,1.000131638293658,0.0002197997319553704
-0.4813809391649556,-0.4813809391649556,1.0000999682435918,0.00022875242767537028
-0.48113529727706916,-0.48113529727706916,0.9997501330277986,0.000213814132518689
-0.48107778590128875,-0.48107778590128875,1.0003004843431302,0.00022312428011705358
-0.48099169021079435,-0.48099169021079435,0.9998852775546399,0.00022771199055035305
-0.48091298883373385,-0.48091298883373385,0.9999065635093413,0.00024155177708980709
-0.48080903411610054,-0.48080903411610054,0.9997591595517827,0.00022487703711490296
-0.4806146909897507,-0.4806146909897507,1.0000115919442925,0.00020624555968961413
-0.4804394146260165,-0.4804394146260165,1.0004846763191675,0.0002497167590468414
-0.4803431983666087,-0.4803431983666087,0.9999731296689104,0.00022929377629256762
-0.4802191452050465,-0.4802191452050465,1.0002317367631286,0.00021874902587938803
-0.4801187625998864,-0.4801187625998864,1.0002113755281894,0.00023140188139231517
-0.480013900357153,-0.480013900357153,0.9996839938397578,0.00020358273396177073
-0.4799163837946253,-0.4799163837946253,1.0003200549055566,0.000229105268220969
-0.479840124353359,-0.479840124353359,0.9999764804654871,0.0002170922875325808
-0.479665227811347,-0.479665227811347,1.0000097348745132,0.00023757319661689454
-0.47959749995716267,-0.47959749995716267,0.9999454518561601,0.0002204379322252036
-0.4794896513398271,-0.4794896513398271,1.0001501363537326,0.00021389227999390296
-0.47939564971020443,-0.47939564971020443,0.9997436668232826,0.00022757690583462042
-0.4792460458011192,-0.4792460458011192,1.0002393499656328,0.00022895517728604525
-0.4791155432911182,-0.4791155432911182,1.0004452780431154,0.000206053076682528
-0.47904401852210865,-0.47904401852210865,0.9998977679405323,0.00022814023992929607
-0.47892429702478695,-0.47892429702478695,1.0001222547291242,0.0002016215018606723
-0.47876074269443053,-0.47876074269443053,1.0000193912982536,0.0002169134887495865
-0.47864158972515725,-0.47864158972515725,1.000001733379662,0.00023900857068975042
-0.47854931176261745,-0.47854931176261745,1.0000137325394594,0.00022405863494119046
-0.4784303894390177,-0.4784303894390177,0.9998282673761001,0.00022233515113127957
-0.4783006216646754,-0.4783006216646754,1.000216617722513,0.00021530613346223284
-0.4782576725265244,-0.4782576725265244,0.9998364464757621,0.00023475042010909827
-0.47813106915200476,-0.47813106915200476,1.0001513600195338,0.0002320170933756274
-0.47801379974916924,-0.47801379974916924,1.0001550711684262,0.00020206629110665813
-0.4778477198684413,-0.4778477198684413,1.0000341408061475,0.000202305560017988
-0.4776951460567943,-0.4776951460567943,1.0000213204517059,0.0002152537020617852
-0.47755675902517397,-0.47755675902517397,1.0000096755348065,0.0002127764746956782
-0.4774496696270944,-0.4774496696270944,0.9998456577551014,0.0002292732617593845
-0.4773514826199971,-0.4773514826199971,1.0001707860050149,0.0002187015341497205
-0.47728203115621,-0.47728203115621,0.9998215171454138,0.0002050781423532357
-0.47722313885387846,-0.47722313885387846,1.0000533703659744,0.00022210130225028155
-0.4770916562913044,-0.4770916562913044,1.0001386357184736,0.00020783113825733305
-0.4768374105289695,-0.4768374105289695,1.0002050400792108,0.00022918925720695756
-0.47676333942436033,-0.47676333942436033,1.00007495903114,0.00023161171696011056
-0.47668499921419427,-0.47668499921419427,0.999714109024184,0.00021833475057871817
-0.47661103354985246,-0.47661103354985246,1.0000012530708238,0.00021570689649446146
-0.4765487188538827,-0.4765487188538827,1.0001449427829991,0.0002177085465162255
-0.47647743303750756,-0.47647743303750756,1.0001362461093313,0.00023128042043709778
-0.4762928566444316,-0.4762928566444316,0.9998512018525479,0.0002205634311295386
-0.47618275743807315,-0.47618275743807315,1.0002185573452276,0.00023502651574948473
-0.47606034749405807,-0.47606034749405807,0.9999514920058438,0.00022528773488457421
-0.47591462788259375,-0.47591462788259375,0.9999633864541897,0.00022182662791880463
-0.4758170989211067,-0.4758170989211067,0.9997395181732612,0.00021242081880385493
-0.4757077739508532,-0.4757077739508532,0.9998751905715977,0.0002266168364370194
-0.4755632139160298,-0.4755632139160298,0.9999784778753646,0.00022685731957383602
-0.47543924686397077,-0.47543924686397077,1.000045720965643,0.00022338822396007388
-0.475194533958711,-0.475194533958711,1.0002818257146688,0.00021550703876073598
-0.47505028279920225,-0.47505028279920225,0.9999694259037482,0.0002196166375567952
-0.4749421509106469,-0.4749421509106469,1.0003242267191788,0.000232935948767907
-0.474871726949641,-0.474871726949641,1.0000112266016978,0.00021477452145129356
-0.4747925882489653,-0.4747925882489653,0.9999036781327343,0.00021458722426486915
-0.4747124727429764,-0.4747124727429764,1.000398417874612,0.00022465125498690792
-0.4746181026144768,-0.4746181026144768,1.0002347162507264,0.00021361357422758223
-0.47442305433141885,-0.47442305433141885,1.0001199541505141,0.00022459158177826955
-0.4742893544964318,-0.4742893544964318,1.0001960566057133,0.00021772300671658813
-0.47419666873975075,-0.47419666873975075,0.9999815117483528,0.00024264742796891386
-0.47400581054243957,-0.47400581054243957,0.9997372905206949,0.0002247891468540642
-0.4739401744045608,-0.4739401744045608,1.000017726770905,0.00022063665062927685
-0.47385959396196997,-0.47385959396196997,0.9999781802343548,0.00021932070218305647
-0.47376614296008485,-0.47376614296008485,0.9998429504155839,0.00023402693979167354
-0.4736766931622697,-0.4736766931622697,1.0002389392437745,0.00021520560311239206
-0.47359105161813203,-0.47359105161813203,0.9999780622752695,0.00023334213073331148
-0.4734190031580511,-0.4734190031580511,1.0001471057077953,0.00021429876095071542
-0.4731977805677161,-0.4731977805677161,0.9998735964271948,0.00023093273844243512
-0.4731224954193749,-0.4731224954193749,0.9999739075463285,0.00020597190796103356
-0.4730510069493903,-0.4730510069493903,1.0000140305461487,0.00023167801399346416
-0.4729953977330297,-0.4729953977330297,0.999723575216777,0.00022940639546993835
-0.4729371717905451,-0.4729371717905451,1.000167745518192,0.00022593162242287484
-0.47283361096997395,-0.47283361096997395,0.9997009048321697,0.00021516355628742505
-0.4726531659369357,-0.4726531659369357,1.0001117256632253,0.0002215752057775043
-0.4725076385657303,-0.4725076385657303,0.9999697436207665,0.0002308651483743519
-0.4724095497091184,-0.4724095497091184,0.9999247405533689,0.00022798328306023588
-0.4723168866490596,-0.4723168866490596,1.000096841559935,0.00023050099812355271
-0.47222980234146233,-0.47222980234146233,0.9997390202208967,0.00020395961447930688
-0.47211132462180105,-0.47211132462180105,0.9999242882541564,0.00022121069653913524
-0.4720175823436875,-0.4720175823436875,0.9998696214453371,0.00020651936691382897
-0.4719180508567661,-0.4719180508567661,1.0001514579916442,0.00021961225698629924
-0.4718039806408342,-0.4718039806408342,0.9997417719811255,0.0002396836205613644
-0.4716935913027555,-0.4716935913027555,0.9999446274615466,0.00022602255398260421
-0.47161292449964093,-0.47161292449964093,0.9997642525728694,0.0002058173715806393
-0.4715241598460125,-0.4715241598460125,1.0000941818903255,0.00022347824270156817
-0.4713417051047145,-0.4713417051047145,0.9996998651251969,0.00023596253471664646
