time,time,flux,flux_err
-0.4998879824706819,-0.4998879824706819,0.9999921204467828,9.30899512187156e-05
-0.49966401494675666,-0.49966401494675666,0.9999319368131843,9.181951201274173e-05
-0.49957064124391765,-0.49957064124391765,0.9998729380973674,9.75911969853503e-05
-0.4994442224560771,-0.4994442224560771,0.9999786722303711,9.28569400987638e-05
-0.49931364189906163,-0.49931364189906163,0.9999481896456212,9.587133657150262e-05
-0.499212318505306,-0.499212318505306,0.99981511310407,9.314338959273401e-05
-0.49909036907192783,-0.49909036907192783,1.000026229729493,9.154663228802822e-05
-0.4989926892441872,-0.4989926892441872,0.9999366551453395,9.142558507445102e-05
-0.4988753237455967,-0.4988753237455967,1.000085702465017,9.1162013571176e-05
-0.49877876928439946,-0.49877876928439946,1.0001042015476656,9.255058233850801e-05
-0.49862223194795663,-0.49862223194795663,1.000055791973657,9.106255220858487e-05
-0.4984924487354874,-0.4984924487354874,1.0000864247185501,9.144365755970493e-05
-0.4983804633106047,-0.4983804633106047,0.9999056202283552,9.176744482293095e-05
-0.4981906615619664,-0.4981906615619664,1.0000630280719138,8.958208987309863e-05
-0.49810212152806344,-0.49810212152806344,0.9999920930627473,9.213094283726136e-05
-0.49801952160269136,-0.49801952160269136,1.0000957917035769,9.071971974932711e-05
-0.49789733103752953,-0.49789733103752953,0.9999573891148756,9.421173471664163e-05
-0.4977540191292064,-0.4977540191292064,1.0000808126179543,9.24699308637519e-05
-0.4976232223620173,-0.4976232223620173,0.999988490372961,9.393745831697905e-05
-0.4974826628429582,-0.4974826628429582,0.9998651280557315,9.163358374031708e-05
-0.49734032815831597,-0.49734032815831597,0.999987774277758,9.546184166127446e-05
-0.4972701093713113,-0.4972701093713113,0.9999358771839768,9.384140247827052e-05
-0.4972148824832402,-0.4972148824832402,1.0000224368816564,9.366125537640135e-05
-0.4970951031136792,-0.4970951031136792,1.0000041238003992,9.185419854482996e-05
-0.4969018017531198,-0.4969018017531198,0.9999532505381955,9.231566572190878e-05
-0.49680370629794196,-0.49680370629794196,1.0001218738774984,9.675775468878516e-05
-0.4967385241368902,-0.4967385241368902,1.0000838160665608,9.224863803918643e-05
-0.4966156056478212,-0.4966156056478212,1.0000083978049337,9.179008064620993e-05
-0.496467146222858,-0.496467146222858,1.0001339584269953,9.373104356604257e-05
-0.4963513584094471,-0.4963513584094471,0.9999255061343474,9.20223359467001e-05
-0.4962067283784563,-0.4962067283784563,1.000007491258948,9.202503025544604e-05
-0.4961346432202845,-0.4961346432202845,0.9997810742655086,9.178012607351231e-05
-0.49603327846707546,-0.49603327846707546,0.9999187457986561,9.434914404558059e-05
-0.49597024146569313,-0.49597024146569313,1.0000391911071354,9.245908972226574e-05
-0.49580554186395603,-0.49580554186395603,0.9999889567283422,9.112215978861847e-05
-0.49567806292834576,-0.49567806292834576,0.9999465372500917,9.060594621045258e-05
-0.4955595937964972,-0.4955595937964972,1.000036168353691,9.31090397835504e-05
-0.4954767303970584,-0.4954767303970584,1.0002104395571505,9.536553691624248e-05
-0.4953432308531774,-0.4953432308531774,0.9999298354087445,9.152752720385209e-05
-0.49527884199997063,-0.49527884199997063,1.0001210806435925,9.237542258353253e-05
-0.49517186843659144,-0.49517186843659144,0.9999634153057574,9.156521324440654e-05
-0.4950465454974619,-0.4950465454974619,1.000076674845815,9.507945761870473e-05
-0.49492065377926336,-0.49492065377926336,0.9999529865846771,9.520739959514126e-05
-0.494826526241377,-0.494826526241377,1.000051196620807,9.4150907012965e-05
-0.49470220588627856,-0.49470220588627856,0.999924688562885,9.31501638985525e-05
-0.4946009528641298,-0.4946009528641298,0.9999181411490028,9.331649683679252e-05
-0.49446680445689706,-0.49446680445689706,1.0000467701358668,9.226986675242841e-05
-0.4943020284161321,-0.4943020284161321,0.9999452930099739,9.23725921920871e-05
-0.49419245363824305,-0.49419245363824305,1.000135746279364,9.646408408206565e-05
-0.49412819740391567,-0.49412819740391567,0.9998975634838994,9.086262477963139e-05
-0.4940140285587404,-0.4940140285587404,1.0001582830446938,9.284693477465629e-05
-0.4939160761940002,-0.4939160761940002,1.0001348756257615,9.557211954168189e-05
-0.4937991849750688,-0.4937991849750688,0.9999956113653818,9.245267046617809e-05
-0.49368009719764816,-0.49368009719764816,1.000025744535606,9.2177529391166e-05
-0.493561223425786,-0.493561223425786,0.9999978941562399,9.118804719056045e-05
-0.49342588888684985,-0.49342588888684985,1.000091085374803,9.538116487848276e-05
-0.49332726584907505,-0.49332726584907505,0.9998911668026842,9.258822275749642e-05
-0.4932567774929339,-0.4932567774929339,1.0001296068128576,9.434151409271189e-05
-0.49317699321400144,-0.49317699321400144,0.9999497006785903,9.333697046526624e-05
-0.49310182950648596,-0.49310182950648596,1.00006887985068,9.290131571510012e-05
-0.49289059014990927,-0.49289059014990927,1.0000669775059963,9.378567830052746e-05
-0.4927518605218211,-0.4927518605218211,0.9998804082016843,9.294675798964528e-05
-0.4925883762734884,-0.4925883762734884,0.9998452363350522,9.338388872274214e-05
-0.49246391816486723,-0.49246391816486723,1.0001821702459657,9.114892728763917e-05
-0.49233886411821004,-0.49233886411821004,0.9999556530728789,9.060610598850486e-05
-0.49222220153897067,-0.49222220153897067,1.0001185396979628,9.609870993934356e-05
-0.49213620000664376,-0.49213620000664376,0.9999532844980663,9.683698086931118e-05
-0.4920895362105512,-0.4920895362105512,0.9998808599520528,9.44616473358126e-05
-0.4919659103106824,-0.4919659103106824,1.0000911284841254,9.472135885302671e-05
-0.491858221583243,-0.491858221583243,1.0000594259183786,9.198852839589492e-05
-0.4916833128510916,-0.4916833128510916,0.9999204189831243,9.080648003907663e-05
-0.4915966271386424,-0.4915966271386424,0.9999575721824939,9.286849778413145e-05
-0.4914998921245569,-0.4914998921245569,0.9999754488028552,9.20347545470141e-05
-0.4914068780977686,-0.4914068780977686,0.9997880967330215,8.969700900387171e-05
-0.49126945488824275,-0.49126945488824275,0.9999794568271205,9.41013939355859e-05
-0.49110802125360353,-0.49110802125360353,0.999996657974408,9.099964326737416e-05
-0.4909224051370984,-0.4909224051370984,1.0000619141350053,9.060842473648976e-05
-0.49075843779719436,-0.49075843779719436,1.0000772237514597,9.268218643335052e-05
-0.49061213295935885,-0.49061213295935885,0.9999989275541518,9.123394583959782e-05
-0.4904171069167205,-0.4904171069167205,0.9999828138709506,9.087912439494241e-05
-0.4903383379103616,-0.4903383379103616,0.9999199318187422,9.307202588720505e-05
-0.4902303964961902,-0.4902303964961902,0.9999731137079084,9.569278075036767e-05
-0.4900597155065043,-0.4900597155065043,0.9998821211779785,9.477866254365607e-05
-0.4899530677430448,-0.4899530677430448,0.9999656795337408,9.240224378444638e-05
-0.48988249227477354,-0.48988249227477354,0.9998293828692801,9.051441833024404e-05
-0.4898020837339573,-0.4898020837339573,1.0000816904664682,9.294275531966442e-05
-0.4895929946418619,-0.4895929946418619,0.9999183320449265,9.209053935474767e-05
-0.4895026455735206,-0.4895026455735206,1.0000381524737973,9.376161224707537e-05
-0.48938844739968773,-0.48938844739968773,0.9999390953993756,9.254635814741113e-05
-0.48925515756345705,-0.48925515756345705,0.9999957173463734,9.284929843208851e-05
-0.48916010950342753,-0.48916010950342753,0.9999266198279215,9.161920631876672e-05
-0.48902139497804453,-0.48902139497804453,0.9999945294160903,9.04703619222676e-05
-0.4888589658861747,-0.4888589658861747,1.0000167306986685,9.177362015124185e-05
-0.48879296345767215,-0.48879296345767215,1.0000351633982887,9.311020940438812e-05
-0.4887130005779909,-0.4887130005779909,1.0000711888855138,9.132496537345364e-05
-0.4886022944665456,-0.4886022944665456,0.9998489096500547,9.259437482786817e-05
-0.4884496587474132,-0.4884496587474132,1.0000394499106877,9.456981470714572e-05
-0.4883048686264374,-0.4883048686264374,0.9999155473729949,9.356761489130682e-05
-0.4882179699889093,-0.4882179699889093,1.0000203520522142,9.309073712168535e-05
-0.4881003990667523,-0.4881003990667523,0.9999729544546062,9.406330925214338e-05
-0.4880364398130041,-0.4880364398130041,1.0000074686864924,9.35857991738258e-05
-0.4879369075213617,-0.4879369075213617,0.9999957249772372,9.204048395195903e-05
-0.4877464448429237,-0.4877464448429237,0.9999347418976783,9.154261366703613e-05
-0.48763429440077743,-0.48763429440077743,1.0000278056269816,9.433013028581119e-05
-0.48756730942623105,-0.48756730942623105,0.9999264331434627,9.553723146380429e-05
-0.4875325986977259,-0.4875325986977259,0.9999103116884124,9.509152511199612e-05
-0.48741906152208686,-0.48741906152208686,0.9999328247584085,9.377527794579141e-05
-0.4873473774852755,-0.4873473774852755,0.999994537121579,9.239494367126535e-05
-0.48725212096687753,-0.48725212096687753,1.000070990374458,9.394151918724883e-05
-0.4870968802671996,-0.4870968802671996,1.0000916196425236,9.115306083639363e-05
-0.4869188257645874,-0.4869188257645874,0.999928938652352,9.185234581078284e-05
-0.4868404249522428,-0.4868404249522428,0.999932166983502,9.436041397307209e-05
-0.48672986291639975,-0.48672986291639975,0.9999736900236929,9.326930989539227e-05
-0.4866331945471757,-0.4866331945471757,1.000027120707348,9.231454519265789e-05
-0.48650047074916075,-0.48650047074916075,0.9998453431590597,9.14306967312041e-05
-0.4864021606488677,-0.4864021606488677,0.9999069537346156,9.488389213535879e-05
-0.48627748368526225,-0.48627748368526225,0.9999046357161646,9.535872242877096e-05
-0.48616200560718426,-0.48616200560718426,0.9998683112899499,9.262128126150796e-05
-0.4860687403117481,-0.4860687403117481,1.0000966669107494,9.423462053103788e-05
-0.4859449861847679,-0.4859449861847679,1.0000409103568662,9.138944776840992e-05
-0.48581852979186807,-0.48581852979186807,0.9999644719488758,9.401603609790479e-05
-0.4856713323526492,-0.4856713323526492,1.00005752033742,9.044251487671189e-05
-0.48559816968263475,-0.48559816968263475,1.0000044715922793,9.200747846052748e-05
-0.4855049268786388,-0.4855049268786388,0.9999336644018898,9.309860274517447e-05
-0.48534093507332726,-0.48534093507332726,1.0000099370053013,9.512664177331511e-05
-0.48515408556049805,-0.48515408556049805,0.9999478249828633,9.125408234271494e-05
-0.4850983073542011,-0.4850983073542011,1.000075120323508,9.257577958175129e-05
-0.4849881523303338,-0.4849881523303338,0.9999147848309915,9.561496933967994e-05
-0.48482245046907335,-0.48482245046907335,0.9998516212520624,9.130387903735312e-05
-0.4847229700470052,-0.4847229700470052,0.9999533121785449,9.620153488683165e-05
-0.4846311844936281,-0.4846311844936281,1.0001293936263436,9.362055720981163e-05
-0.484562113803986,-0.484562113803986,0.9999905296063607,9.06201693428078e-05
-0.48443188356177413,-0.48443188356177413,0.9999570366785662,9.316842382052152e-05
-0.48426888422836784,-0.48426888422836784,1.0000081161258232,9.034194641628935e-05
-0.4842123584370711,-0.4842123584370711,1.0000876638624854,9.477888743159938e-05
-0.4841455725261767,-0.4841455725261767,0.999942900799571,9.312041479953131e-05
-0.4840206486915122,-0.4840206486915122,1.0000526272343304,9.271492792469775e-05
-0.483868582022842,-0.483868582022842,0.9999089439402514,9.091287632951393e-05
-0.48373550085379974,-0.48373550085379974,1.0000152150799166,9.24575723585718e-05
-0.4835681283017038,-0.4835681283017038,1.0001099587153734,9.452162582175606e-05
-0.48342248659682807,-0.48342248659682807,1.0001012512519087,9.067411285583238e-05
-0.48329384459138963,-0.48329384459138963,1.0000342021698931,9.543810721374102e-05
-0.4831043109101302,-0.4831043109101302,0.999931985770802,9.364875490098192e-05
-0.48299153561747515,-0.48299153561747515,1.0000536925797043,9.448651103503015e-05
-0.4828993368835654,-0.4828993368835654,1.0000236462460685,9.368851020573556e-05
-0.4828308161268069,-0.4828308161268069,1.0000012754793357,9.09004426263311e-05
-0.48268904055221357,-0.48268904055221357,1.000017425984804,9.647359390712992e-05
-0.4825747684233647,-0.4825747684233647,1.0000021234329608,9.168172881058814e-05
-0.4824400709178008,-0.4824400709178008,0.9999768905643996,9.140512664351734e-05
-0.4823392718593823,-0.4823392718593823,1.0000772837124607,9.094313419926372e-05
-0.482219476026512,-0.482219476026512,1.0001253285677112,9.231488240588538e-05
-0.4820846384987817,-0.4820846384987817,0.9999352936529485,9.188074179798836e-05
-0.4819554963760311,-0.4819554963760311,0.9999332190167809,9.061139001213027e-05
-0.4818259283230873,-0.4818259283230873,1.0000163224639078,9.196191579287695e-05
-0.48174006618719434,-0.48174006618719434,0.9999241729418926,9.122222984159388e-05
-0.48158898321780724,-0.48158898321780724,1.000014779253951,9.034726104112756e-05
-0.4814606557796651,-0.4814606557796651,1.0000889631449972,9.246239695112663e-05
-0.48139646558556703,-0.48139646558556703,0.9998016395084293,9.024435688044281e-05
-0.4812676917346835,-0.4812676917346835,0.9999126820739018,9.423657134408719e-05
-0.48111860971621356,-0.48111860971621356,0.9998676614963806,9.165416426229193e-05
-0.48090069613172093,-0.48090069613172093,1.0000645986862273,9.440672068703936e-05
-0.48070547894531046,-0.48070547894531046,0.999879405265086,9.395527510198411e-05
-0.48063542928066455,-0.48063542928066455,0.9999873887291273,9.48354418950382e-05
-0.4805808325756516,-0.4805808325756516,0.9998961465336235,9.542758853908392e-05
-0.4804525881889276,-0.4804525881889276,1.0000034062635677,9.27762660112311e-05
-0.4802685418006149,-0.4802685418006149,0.9998770331629284,9.232381688719449e-05
-0.4801705417907215,-0.4801705417907215,1.0000909157942612,9.681571285375865e-05
-0.48011591246540775,-0.48011591246540775,0.9999255504555601,9.224362008688404e-05
-0.4799585938133532,-0.4799585938133532,1.000068693311955,9.073058012760635e-05
-0.4798015735694207,-0.4798015735694207,1.0001563706121757,9.277183046771818e-05
-0.47966209048681774,-0.47966209048681774,1.0001384615453304,9.1907928814383e-05
-0.4795301614263735,-0.4795301614263735,1.000132565947124,9.216335721273777e-05
-0.4794644166002399,-0.4794644166002399,0.999975939679809,9.205032863136972e-05
-0.4793741561261413,-0.4793741561261413,1.0000221905975355,9.375991700414328e-05
-0.4792261059497832,-0.4792261059497832,0.9998995619331715,9.260517058642365e-05
-0.47907039594865636,-0.47907039594865636,0.9999202390962656,9.116474008978595e-05
-0.47891497472519406,-0.47891497472519406,0.9999897003467975,9.348519384639222e-05
-0.47873460674163654,-0.47873460674163654,1.0001665124262158,9.498996673694925e-05
-0.4786312029318651,-0.4786312029318651,1.0000011424334372,9.257713729982383e-05
-0.4784885186054453,-0.4784885186054453,0.9999506782114395,9.188152480876956e-05
-0.47832532446918774,-0.47832532446918774,0.9999968767432531,9.503106592603604e-05
-0.47822118824988136,-0.47822118824988136,1.000107257910182,9.407500549649288e-05
-0.47811375759993097,-0.47811375759993097,1.0000637341727912,9.347228500676625e-05
-0.4780170824349625,-0.4780170824349625,0.9998958295401096,9.275607123830049e-05
-0.47789418407774065,-0.47789418407774065,1.0000545691478637,9.249826614282308e-05
-0.47777545860517423,-0.47777545860517423,0.9998806644430676,9.033149989731244e-05
-0.47762113411081375,-0.47762113411081375,1.0000878964052167,9.222014139231694e-05
-0.477562055971066,-0.477562055971066,0.9999085181664373,9.643374934462567e-05
-0.47750192769162825,-0.47750192769162825,1.0000320227136041,9.025511403699416e-05
-0.47741258963797006,-0.47741258963797006,0.9999060407179019,9.251928108927324e-05
-0.4773062427993864,-0.4773062427993864,1.000096511105714,9.278124818700096e-05
-0.4772126338488306,-0.4772126338488306,0.9999281904293079,9.533736016079531e-05
-0.47711305983684726,-0.47711305983684726,0.9999468765045509,9.230230281809368e-05
-0.47701766988247984,-0.47701766988247984,1.0001356734542155,9.111054154545107e-05
-0.47691441360511816,-0.47691441360511816,1.0000699861715916,9.028797724895435e-05
-0.47678742629504994,-0.47678742629504994,0.9999904728099193,9.317757848867453e-05
-0.4766883170821529,-0.4766883170821529,1.0000241081805914,9.248665736999523e-05
-0.47661013375764016,-0.47661013375764016,1.0000149736502462,9.368342537412479e-05
-0.4765461496790522,-0.4765461496790522,1.0001155777604214,9.381805251881184e-05
-0.4764034372710739,-0.4764034372710739,1.0000232302172976,9.361194480858858e-05
-0.4762144756139605,-0.4762144756139605,1.0001111293757838,9.102470992446267e-05
-0.4760782631201437,-0.4760782631201437,1.0000439957491332,9.374658032240427e-05
-0.47591658047749663,-0.47591658047749663,0.9999700623539052,9.258912558776994e-05
-0.475766918950103,-0.475766918950103,0.9999141324255442,9.012289682822417e-05
-0.4756562808288436,-0.4756562808288436,0.9999642858015413,9.580013242711308e-05
-0.47553415684524225,-0.47553415684524225,1.000087274510354,9.638215771110154e-05
-0.4754696797630459,-0.4754696797630459,0.9999354897066329,9.432547703883107e-05
-0.47533286274192504,-0.47533286274192504,0.9999675956579116,9.469397261397318e-05
-0.4752468018741638,-0.4752468018741638,0.9999499941203395,9.132974233445414e-05
-0.4750672746289638,-0.4750672746289638,1.0000718155230708,9.07558493584274e-05
-0.4749926691300061,-0.4749926691300061,0.9998913276735234,9.144838870993128e-05
-0.4748843725923507,-0.4748843725923507,1.0000044036854476,9.348332401473158e-05
-0.47475460151181326,-0.47475460151181326,1.000039971377105,9.162245452315843e-05
-0.4745749803019862,-0.4745749803019862,0.9999738329018468,9.404027206769548e-05
-0.47447629569724087,-0.47447629569724087,1.0000877338917273,9.14340376903366e-05
-0.47433354808672445,-0.47433354808672445,1.00002917559849,9.13296754741363e-05
-0.4741830214254151,-0.4741830214254151,1.000032961364477,9.298760628536727e-05
-0.47406691057185524,-0.47406691057185524,1.0001468867292331,9.058696877287678e-05
-0.4739612819677859,-0.4739612819677859,0.999972091749801,9.152914124529587e-05
-0.4737953452502552,-0.4737953452502552,0.9998785905490267,9.08757141688206e-05
-0.47371173830906627,-0.47371173830906627,0.999960049111104,9.377249921383793e-05
-0.47361256120639156,-0.47361256120639156,1.0001259208187663,9.643578802697933e-05
-0.47343564192706256,-0.47343564192706256,0.9999116547281404,9.328117135255685e-05
-0.4733458494309161,-0.4733458494309161,1.0000412829849126,9.242243507478882e-05
-0.47327268505832765,-0.47327268505832765,1.0001453151790585,9.219611499579594e-05
-0.4731908949026547,-0.4731908949026547,1.0000084473449802,9.331446829355631e-05
-0.47303605768101986,-0.47303605768101986,1.0000840212914892,9.166856839368785e-05
-0.4729093163710786,-0.4729093163710786,0.9999622111825748,9.316426286789395e-05
-0.4728151921488461,-0.4728151921488461,0.9998919475420237,9.127335471076478e-05
-0.4726944670932426,-0.4726944670932426,0.9999688340051607,9.294197781767347e-05
-0.47259670549901783,-0.47259670549901783,1.0001630237227417,9.254922575651061e-05
-0.47250833709113066,-0.47250833709113066,1.0000342970248735,9.085890429133954e-05
-0.47235581814893524,-0.47235581814893524,0.999924043452765,9.152998188896117e-05
-0.4722109135022038,-0.4722109135022038,0.9998536711604309,9.31096105751092e-05
-0.47214974823436934,-0.47214974823436934,1.0001030108945062,9.219640289640562e-05
-0.47207507677812827,-0.47207507677812827,0.9999766354860906,9.057260982131099e-05
-0.4719853387803596,-0.4719853387803596,0.9999497101604264,9.224863135015753e-05
-0.47180754298024113,-0.47180754298024113,0.9999640702547374,9.198299913010989e-05
-0.47167165231585384,-0.47167165231585384,0.9999185686885148,9.223492906849123e-05
-0.471601517736417,-0.471601517736417,0.999975127697876,9.367284439423581e-05
-0.4715218321085558,-0.4715218321085558,1.0001058640834788,9.066137406109368e-05
-0.4714503012968635,-0.4714503012968635,1.0001462981722624,9.287294575398278e-05
-0.47138961480304714,-0.47138961480304714,0.9999707124249617,9.170490645125755e-05
-0.4712928132881643,-0.4712928132881643,1.0000593595093603,9.396333288740115e-05
-0.4711420707295474,-0.4711420707295474,1.000095273528839,9.184059844770486e-05
