time,time,flux,flux_err
-0.4998685670264725,-0.4998685670264725,0.9997933469556143,0.0003941614021094426
-0.4996695510611365,-0.4996695510611365,0.9998182614442164,0.00043422997852982597
-0.4995389288815204,-0.4995389288815204,1.0002005363999467,0.0003450693251233018
-0.4993514868139755,-0.4993514868139755,1.000584774391535,0.0004249637069413603
-0.49926281430525704,-0.49926281430525704,1.0000233864480332,0.00036269245411572014
-0.49914689974393694,-0.49914689974393694,0.9999264928410225,0.00038624683723408954
-0.4990368718164973,-0.4990368718164973,0.9995188193210878,0.0003542141225833813
-0.4989493577100802,-0.4989493577100802,0.9998312258379265,0.0003804782982204488
-0.4988784284796566,-0.4988784284796566,1.0001566345270942,0.0004014157055333244
-0.49877826929441654,-0.49877826929441654,1.0000462467691331,0.0003933639231247331
-0.4984622708696406,-0.4984622708696406,1.0004336330732095,0.0003859097070018969
-0.4982450824347325,-0.4982450824347325,0.9999379329354575,0.0003205721735816536
-0.49811206269368996,-0.49811206269368996,0.9993267834642643,0.0003574956257003831
-0.4980203687533503,-0.4980203687533503,0.9995647468592139,0.00035451018787856697
-0.49791569251392503,-0.49791569251392503,1.0004243906487025,0.00038902004703270695
-0.4978511996654561,-0.4978511996654561,0.9997991710870098,0.0003967906859385328
-0.4977975847257767,-0.4977975847257767,1.0001300968714333,0.00035972046950053405
-0.4975972664367873,-0.4975972664367873,1.0000347361011133,0.0003368865606150202
-0.49747623545117675,-0.49747623545117675,0.9999885046837222,0.0003848548057882655
-0.49737832525570413,-0.49737832525570413,1.0001816304982973,0.00039675210545363616
-0.49724078025028573,-0.49724078025028573,0.9998290279321062,0.0004020548547729066
-0.49703211794840174,-0.49703211794840174,0.9998564365696785,0.0003285978586166644
-0.4969088858662872,-0.4969088858662872,1.0003827321310579,0.0003729980299506273
-0.49673663803841916,-0.49673663803841916,0.9998716242166044,0.0003490028789345118
-0.4966569175128825,-0.4966569175128825,1.0005013782713534,0.0003625818224519908
-0.4965533021430019,-0.4965533021430019,0.9996923368270767,0.0003533320609961988
-0.4963988767733099,-0.4963988767733099,0.999775610006971,0.0003736043351018803
-0.4962854688783409,-0.4962854688783409,0.9999047266148443,0.0003795364102339502
-0.49617418442212513,-0.49617418442212513,0.9995887677919615,0.00031546210279452465
-0.4960517333005555,-0.4960517333005555,0.9998277528864904,0.00037511610810920983
-0.49595959881262386,-0.49595959881262386,1.0000360404436726,0.00037561835587542156
-0.4958804590132786,-0.4958804590132786,1.0001071956497547,0.000379019804253361
-0.495785554201575,-0.495785554201575,0.9997952608870844,0.0003561540692744895
-0.4956401168223238,-0.4956401168223238,1.0002931766561336,0.0003717659346936505
-0.4954452626116108,-0.4954452626116108,0.9997416369173651,0.00036863639966565223
-0.4952791957563022,-0.4952791957563022,0.9997424430818853,0.00034818944192205857
-0.4952134729450336,-0.4952134729450336,0.9995753190861894,0.00034639087118930507
-0.49512649528915065,-0.49512649528915065,1.0001642169181977,0.00036219358728698615
-0.49501405078917743,-0.49501405078917743,1.000309201971716,0.0003872614419308082
-0.4948425890266662,-0.4948425890266662,0.9999086193247397,0.000352523132468152
-0.4947746480000205,-0.4947746480000205,0.99981026427336,0.0003796733052165036
-0.49466168802173344,-0.49466168802173344,1.0002806742059502,0.0003628411555500159
-0.4944801362056751,-0.4944801362056751,1.0002686647493895,0.00038248803042252653
-0.49439711403974795,-0.49439711403974795,1.000180092513673,0.00041084838328521895
-0.49431886156089605,-0.49431886156089605,1.0005276959081584,0.00035298717238006397
-0.4941715716064209,-0.4941715716064209,1.0001835724711623,0.000328960982449118
-0.49409561775974,-0.49409561775974,0.9999579340743361,0.00032690589292433034
-0.49395411797158884,-0.49395411797158884,1.0002026773658295,0.00038603709691790414
-0.493857358105015,-0.493857358105015,1.000281155373965,0.0003883665235255706
-0.4937565634463681,-0.4937565634463681,0.9997110396603046,0.00038398880660766655
-0.4936124240135541,-0.4936124240135541,0.999730108158871,0.00035914084705486693
-0.4934434980037622,-0.4934434980037622,1.0000316100574242,0.00039807188747829366
-0.4933420231915079,-0.4933420231915079,1.0002670403689575,0.0003429405447231213
-0.49330162729311267,-0.49330162729311267,1.000036548835824,0.00036473939819771617
-0.49321443327353337,-0.49321443327353337,0.9998950310307192,0.00038453286733138394
-0.493110765516758,-0.493110765516758,0.9999814707331869,0.00041296990513341907
-0.4930363153514918,-0.4930363153514918,0.9998583909208177,0.0003620265386643604
-0.492942078327178,-0.492942078327178,1.00010088651595,0.0003486761965140328
-0.49282668691594156,-0.49282668691594156,0.9999056467372018,0.00041057042660166894
-0.4925891112565296,-0.4925891112565296,1.000476588212845,0.0003896714029017747
-0.4924926663574297,-0.4924926663574297,0.9994776796989615,0.00038683841671822826
-0.49242560887360015,-0.49242560887360015,1.0005406048602778,0.00041676416457733296
-0.492328763572732,-0.492328763572732,0.9995213852657008,0.0003006405034705654
-0.4922345032071462,-0.4922345032071462,1.0002503828229572,0.00042284889502214724
-0.4921548768033972,-0.4921548768033972,0.9999863421211044,0.0004107263310279826
-0.4920348881161772,-0.4920348881161772,0.9998402410133856,0.0003849996314227463
-0.49192178909434003,-0.49192178909434003,1.0000133362695878,0.0003758668209226112
-0.49185474471596535,-0.49185474471596535,1.0004026460617823,0.0003451352954157553
-0.4917192924709525,-0.4917192924709525,0.9999622499553349,0.0003273172543706704
-0.49155927028041335,-0.49155927028041335,0.9996294222396636,0.0003595845274331107
-0.4914506618893938,-0.4914506618893938,1.0003721264729948,0.00036917405837276636
-0.491316168877529,-0.491316168877529,1.000192963933343,0.00039452472633096455
-0.49127106926753183,-0.49127106926753183,1.0004583751383194,0.0003940549923784517
-0.4911575948295649,-0.4911575948295649,0.9995145256381079,0.0003370185420736642
-0.4910239105549408,-0.4910239105549408,0.9999234032929218,0.00040319040529930615
-0.4909686441154918,-0.4909686441154918,0.9998328906375145,0.0003704798481907979
-0.4908661622292129,-0.4908661622292129,1.0000737004407145,0.000428348125378249
-0.4907518670632271,-0.4907518670632271,1.000094313758309,0.0004078989632463911
-0.4906535155954771,-0.4906535155954771,0.9998345664901581,0.000359205564861067
-0.49052641180460343,-0.49052641180460343,0.9999323592206603,0.00035255179886719537
-0.4903920477983775,-0.4903920477983775,0.9999894622510667,0.00038998185056525806
-0.4902554759086343,-0.4902554759086343,1.0001517060107012,0.00035659546616270357
-0.49013254497549497,-0.49013254497549497,0.9998968946869983,0.00039240337476292956
-0.49001113103295213,-0.49001113103295213,0.9999674742861272,0.000371137495798004
-0.48994719570328016,-0.48994719570328016,0.9998773274771582,0.00036866537607635594
-0.4898324609035626,-0.4898324609035626,1.0001341670132207,0.0003783876700729322
-0.4897457877988927,-0.4897457877988927,1.0000705470405118,0.000427589885766571
-0.4896239143010462,-0.4896239143010462,0.999891503939318,0.00035431285872746123
-0.48951397562923377,-0.48951397562923377,1.000120447724617,0.0003979712598420959
-0.48941049696295524,-0.48941049696295524,1.0002544477030697,0.00036092803414471337
-0.4893193783966126,-0.4893193783966126,0.9998635221018042,0.00041041985314688655
-0.4891326486162143,-0.4891326486162143,0.9995462971332593,0.00034740172762614093
-0.4890799965331098,-0.4890799965331098,1.000260459624918,0.00036597316504080845
-0.4889616736007156,-0.4889616736007156,0.9996668614031833,0.00036593308642447254
-0.4888593675364973,-0.4888593675364973,0.9995749720350181,0.00035241107172975263
-0.4886699383496307,-0.4886699383496307,1.0000676188373805,0.00036810102474055674
-0.4885552639578236,-0.4885552639578236,1.0003581848327308,0.00036720545910129355
-0.4884895085182507,-0.4884895085182507,1.0000730965384796,0.0004060467744764273
-0.4883773833280429,-0.4883773833280429,0.9998328319173913,0.0003546273820127063
-0.4882957037392771,-0.4882957037392771,1.0000735980397988,0.0003946541459350993
-0.48817614344879984,-0.48817614344879984,0.9999218918336844,0.00040840619413206344
-0.48800230615015605,-0.48800230615015605,1.0001130007483876,0.00037166523995266177
-0.48789273339789363,-0.48789273339789363,1.0002653686884595,0.00040300890111134364
-0.4877810349717038,-0.4877810349717038,1.0000649486865103,0.00037347182003386373
-0.48768259553180543,-0.48768259553180543,1.0004580403905483,0.00032620045902899045
-0.4875636565382592,-0.4875636565382592,1.0001678527996387,0.0003626915754384431
-0.48743215069698637,-0.48743215069698637,0.999902234164731,0.00036121295644495294
-0.4873210486286553,-0.4873210486286553,1.000012298823787,0.0003902717360499183
-0.48719819864491,-0.48719819864491,1.0000219009095885,0.0003772193739316026
-0.48715801035868933,-0.48715801035868933,0.9999612734048661,0.0003827542612240018
-0.4870120694482466,-0.4870120694482466,0.9997852031017394,0.00030611349431803404
-0.4868878826557193,-0.4868878826557193,1.000112350804618,0.00038844049767859147
-0.4867810785624897,-0.4867810785624897,1.0001183370770952,0.00040650314949980143
-0.48665228991594633,-0.48665228991594633,0.999998953487907,0.00038311394201716407
-0.48650468539854047,-0.48650468539854047,0.9997523937654129,0.0003261140224447026
-0.4864544584212126,-0.4864544584212126,1.0002175850295891,0.00035346972817727285
-0.4864000205649063,-0.4864000205649063,1.0001292804037818,0.00035456617594819634
-0.48631973878655116,-0.48631973878655116,0.9998565110340222,0.0003844793195320915
-0.4862567388365278,-0.4862567388365278,0.9996582693895693,0.00035488270403349686
-0.4861486238689395,-0.4861486238689395,1.000118211206891,0.0003424382382711135
-0.4860022037551971,-0.4860022037551971,1.0000455831712567,0.0003592965750863498
-0.4859319734707242,-0.4859319734707242,0.9999881692685735,0.0003626864671969959
-0.4858269623189699,-0.4858269623189699,1.0002716116286499,0.00036406689858865885
-0.4857286133512389,-0.4857286133512389,0.9995026357603543,0.00035469130691228874
-0.4856725085875951,-0.4856725085875951,0.9998052179303354,0.0003993414767036331
-0.48551939975004643,-0.48551939975004643,1.0001023742299437,0.00036507574937789163
-0.4853701132698916,-0.4853701132698916,0.9993512797269843,0.00037140320766873396
-0.4852160150854615,-0.4852160150854615,0.9996520213360338,0.00037244654708760516
-0.48511984789511187,-0.48511984789511187,0.9999548628109365,0.0003344842644133548
-0.48495674317819065,-0.48495674317819065,0.9998237437015558,0.0003629094410466644
-0.4848407892655814,-0.4848407892655814,0.9997459732744165,0.0004035306705152338
-0.4847431815374875,-0.4847431815374875,0.9998155092165917,0.00038233747119318566
-0.48468990447290705,-0.48468990447290705,0.9999544457444026,0.00029556532431971103
-0.4846199720050208,-0.4846199720050208,1.0002234041009272,0.00038625607257153653
-0.48451239978603555,-0.48451239978603555,1.000303173119543,0.0003800132877581606
-0.4843553407030413,-0.4843553407030413,1.0001889752188362,0.0003354352300054018
-0.4841927767120069,-0.4841927767120069,1.0003229496565127,0.000368860344693431
-0.4840704385453137,-0.4840704385453137,1.0001766663539133,0.0003555886212327736
-0.4838710229785647,-0.4838710229785647,1.0003411702923086,0.0003377625687274996
-0.4837746810691897,-0.4837746810691897,1.0000751803406431,0.0004207720588982072
-0.48371128415456044,-0.48371128415456044,1.0001973385530682,0.0003790969081718333
-0.4836297540401574,-0.4836297540401574,1.000035323221081,0.00036914833134636183
-0.48350888267159464,-0.48350888267159464,0.999940514902027,0.00039533890712771665
-0.48341741729236676,-0.48341741729236676,1.0002870691533854,0.0003584375973013287
-0.4832981696759816,-0.4832981696759816,1.0001711656101933,0.0003941778392149081
-0.48321889517537786,-0.48321889517537786,1.0000440628228109,0.0003882372946559239
-0.48315536680456717,-0.48315536680456717,0.9995473655989082,0.0003937355012518614
-0.48303071641421413,-0.48303071641421413,1.0005768566186557,0.0003548481515268825
-0.48289550525660163,-0.48289550525660163,0.9999951718475559,0.0003736187265585667
-0.48276755152910483,-0.48276755152910483,0.9995530343445143,0.0003797367388199184
-0.4826403033628594,-0.4826403033628594,0.9998266954457365,0.00034910356099016233
-0.4824943388259271,-0.4824943388259271,0.9995441162204391,0.00036814280198820194
-0.48228257792361545,-0.48228257792361545,0.9998717398316505,0.0003230151078503097
-0.4821860177529743,-0.4821860177529743,1.000495149751368,0.00038340482707344695
-0.4820701531571103,-0.4820701531571103,0.9998827790875288,0.00039726071680195647
-0.48197830710560086,-0.48197830710560086,1.0000557702487487,0.00031829137883981125
-0.48191410941944923,-0.48191410941944923,1.0000812623273991,0.000338981115298358
-0.4818658922798932,-0.4818658922798932,1.0000944641235616,0.00040349814786775197
-0.48179804696701467,-0.48179804696701467,1.0002805931224237,0.000347526605605871
-0.481699991269852,-0.481699991269852,0.99985554810442,0.0003778386263465584
-0.48161913141957485,-0.48161913141957485,0.9999650339276818,0.00038613665255516624
-0.4814785554859554,-0.4814785554859554,0.9998982226233293,0.0003643355668474227
-0.4813156299467664,-0.4813156299467664,1.0004773569460412,0.0004179778930792831
-0.4811986175860511,-0.4811986175860511,0.9999240393864929,0.0003220480254074277
-0.4810285501676844,-0.4810285501676844,1.0000177740700578,0.0003628640855453483
-0.480831813099212,-0.480831813099212,0.9996894708014373,0.0003062913289355162
-0.48070910377427933,-0.48070910377427933,0.9997801158058189,0.00042910419225249445
-0.4806102581351297,-0.4806102581351297,0.9999167903751065,0.0004146258347985407
-0.48049531775759535,-0.48049531775759535,0.9996430675299519,0.0003632330381477642
-0.4803801675734576,-0.4803801675734576,0.9994028718070324,0.0003976590434304981
-0.4802670903969556,-0.4802670903969556,1.0001759054032566,0.0003298253617642951
-0.48013831007119734,-0.48013831007119734,0.9997734133598742,0.00039284363392105414
-0.4800429848604836,-0.4800429848604836,0.9998218292247408,0.00036305893443294317
-0.4799234573234571,-0.4799234573234571,1.0000814767241124,0.0003546785927619875
-0.4797551735013258,-0.4797551735013258,0.9996463461280222,0.00040461995417240845
-0.4796164966741344,-0.4796164966741344,0.9995560991387196,0.0003464481610039246
-0.47926293535274456,-0.47926293535274456,1.000084907372711,0.0003082276001719636
-0.47914248129236514,-0.47914248129236514,0.9998843275778089,0.0004293918919882651
-0.4790589915064629,-0.4790589915064629,1.0008815623260656,0.00037231540042696704
-0.4789431969460566,-0.4789431969460566,1.0001540634616706,0.0003731228734303634
-0.4788055516488384,-0.4788055516488384,1.0002365846426593,0.00040448415334189787
-0.478720050980337,-0.478720050980337,1.0001238202305287,0.0003581426228793963
-0.4786231567210052,-0.4786231567210052,1.0002449669269589,0.00036753344800189976
-0.47853987232083456,-0.47853987232083456,1.00005039343478,0.00041728781567649815
-0.47835884369560516,-0.47835884369560516,1.0002574120750398,0.0003281212821874931
-0.4782069216162199,-0.4782069216162199,1.0001410324801434,0.0003818918233180372
-0.4780363716505235,-0.4780363716505235,0.9996884656361381,0.00033766449723911707
-0.47782542441273107,-0.47782542441273107,1.000450873505474,0.0003695553075158627
-0.4776112246036064,-0.4776112246036064,1.0000016979925075,0.0004088416988868644
-0.47742924092162864,-0.47742924092162864,0.9997707730625255,0.0003602741535371015
-0.47729451700579373,-0.47729451700579373,1.000390091302947,0.00040424183181790975
-0.4771868678013561,-0.4771868678013561,1.0001181801832026,0.0003763227381960817
-0.4770450067619095,-0.4770450067619095,0.9998384277608501,0.000409605319734675
-0.47686242464114914,-0.47686242464114914,0.9994295133405456,0.0003738062543109095
-0.47660021380579565,-0.47660021380579565,1.0000417599640017,0.00034977022497758344
-0.4764366009447258,-0.4764366009447258,1.000072655678944,0.00035150919623209704
-0.47632223665714263,-0.47632223665714263,1.0005486348201327,0.00035154695175400763
-0.47616556827852036,-0.47616556827852036,1.0001783027930233,0.0003132363314213985
-0.47599941966473125,-0.47599941966473125,0.9997063171850231,0.0004178281723771802
-0.475892524261144,-0.475892524261144,0.9993959163367336,0.0003522778731485328
-0.47571599028888156,-0.47571599028888156,0.9998111036802676,0.00038121060849262504
-0.47562236386002044,-0.47562236386002044,1.000131857066076,0.0003729930426686674
-0.47553258241387086,-0.47553258241387086,0.9998783237548411,0.0003785734619398189
-0.4754690253321314,-0.4754690253321314,0.9998437544315154,0.000363713794656168
-0.4753468674054602,-0.4753468674054602,1.000388517872956,0.00031091240808205496
-0.47517710068204905,-0.47517710068204905,1.0000374224661608,0.00036081346273756363
-0.47505956240056546,-0.47505956240056546,0.9997392791182665,0.0004227524942695013
-0.47493208064406645,-0.47493208064406645,0.9997991201988125,0.0003639123838615853
-0.4747983684646897,-0.4747983684646897,0.9996799180755787,0.0003705267793560272
-0.4746905173495179,-0.4746905173495179,0.9998345496879798,0.00031134327052380334
-0.47458396966103467,-0.47458396966103467,1.0000788525925,0.0003942156362016183
-0.4744750510988524,-0.4744750510988524,1.000089031642894,0.00035776301461108517
-0.4743710215669125,-0.4743710215669125,1.0003241623289791,0.0003662718440165261
-0.47421104459208435,-0.47421104459208435,0.9999892667102765,0.0004029847961233607
-0.4740896465838887,-0.4740896465838887,0.9998269426789003,0.00036910612797121437
-0.47401929354819006,-0.47401929354819006,0.9999963479121823,0.00037195980283974325
-0.4739128957036883,-0.4739128957036883,1.0000161281787634,0.0003632656359952559
-0.47368609435798137,-0.47368609435798137,1.0006195616770581,0.0003513370298643244
-0.4736153217556421,-0.4736153217556421,1.000209765890704,0.00034134667090514244
-0.47346951491490474,-0.47346951491490474,1.000169828775006,0.00038082725618778646
-0.4733824427501531,-0.4733824427501531,1.0001706069035181,0.00038193287532700004
-0.47320919623307417,-0.47320919623307417,0.99975759739968,0.00034958009970065013
-0.4730699535430176,-0.4730699535430176,0.9998287367589924,0.00037884050422136656
-0.4729998531547608,-0.4729998531547608,0.9997120220112891,0.00035240588417594283
-0.47291221356135793,-0.47291221356135793,1.0001537241275764,0.0003703430739169137
-0.4728486007254105,-0.4728486007254105,1.0002209002066256,0.0003941096609324615
-0.4726788314175792,-0.4726788314175792,1.0002398857777233,0.00037664366511273265
-0.4725881903519621,-0.4725881903519621,0.9996831194817062,0.0003636845243125647
-0.4725197344727349,-0.4725197344727349,1.0000142553943203,0.00043767126343492496
-0.472328671978903,-0.472328671978903,0.9997120086655137,0.00039479380561335126
-0.4721260334219551,-0.4721260334219551,1.0001063784750024,0.0003935402190758717
-0.47203157396579626,-0.47203157396579626,0.9994606892400292,0.0003394452678519508
-0.471932349583949,-0.471932349583949,0.9999750045106428,0.000358879696985125
-0.4718591487413505,-0.4718591487413505,0.9999490323723956,0.00037246620889065435
-0.47169074596022253,-0.47169074596022253,1.0000872147371977,0.000404910029629147
-0.47164524912077466,-0.47164524912077466,1.0003224265953956,0.00037823968677420304
-0.47158728358626834,-0.47158728358626834,0.9999559219590974,0.00037305752868447206
-0.4715303172532003,-0.4715303172532003,1.0000093373696548,0.00034745762245836547
-0.47146349857212044,-0.47146349857212044,0.9993845565172441,0.000326947975130961
-0.47125406688719523,-0.47125406688719523,1.000298769143792,0.00038730327977974644
-0.4711206158535788,-0.4711206158535788,0.9999296989307279,0.0003662674659117788
-0.47101433244533836,-0.47101433244533836,0.9999291565561877,0.00041110938796814567
-0.47089179779286494,-0.47089179779286494,1.0000041499232684,0.00034838459317867987
-0.4707684137421893,-0.4707684137421893,0.9992930493015224,0.00031358013529100414
