time,time,flux,flux_err
-0.4997565612240578,-0.4997565612240578,1.0002968923827051,0.0008633309053708713
-0.49944625976422685,-0.49944625976422685,0.9995679237694983,0.0007823834340315378
-0.4990995359814406,-0.4990995359814406,1.000014284736911,0.0008873199563690315
-0.49888579234466307,-0.49888579234466307,0.9999485813593403,0.0009161921450093685
-0.49861277935051473,-0.49861277935051473,1.000041711316963,0.0007110075723924523
-0.49814650567932406,-0.49814650567932406,1.0000206805449492,0.0008741545925904258
-0.4979466143278842,-0.4979466143278842,0.9995723760014934,0.0008626722654610309
-0.49772681119648043,-0.49772681119648043,0.9998639796037129,0.0009219779399274426
-0.49742796393948085,-0.49742796393948085,0.999361182433,0.0007187041544309428
-0.49715771436058276,-0.49715771436058276,0.9994026875885865,0.0008219990983244488
-0.49695071178357464,-0.49695071178357464,0.9995394532850529,0.000918117551541461
-0.4966306353737309,-0.4966306353737309,1.0000050401381952,0.0007181576386961983
-0.49618944817630106,-0.49618944817630106,0.9995309631042619,0.0008042059508274093
-0.49604790851299185,-0.49604790851299185,0.9997173822612029,0.0009146550887667153
-0.4957440488244174,-0.4957440488244174,0.999813422359809,0.0007752560093515464
-0.4952599084637768,-0.4952599084637768,0.9992576468435532,0.0007533618255510492
-0.4951206226804061,-0.4951206226804061,0.999613085854393,0.0008564088411860021
-0.49485336283505604,-0.49485336283505604,0.9996472136561934,0.0008420951595031342
-0.4944807005223993,-0.4944807005223993,1.0003569072040017,0.000846593554019294
-0.49415732457673583,-0.49415732457673583,1.0002973894251777,0.0008585908078919208
-0.49390220782406685,-0.49390220782406685,0.9992797274244797,0.0007893833945849355
-0.49351425315653613,-0.49351425315653613,0.9999013601183115,0.0008186680088782966
-0.4931753758683044,-0.4931753758683044,0.999844804201584,0.0008741839279162531
-0.49291656388486443,-0.49291656388486443,0.998838820761695,0.0007899637136934955
-0.49247718140140934,-0.49247718140140934,1.0000951770908428,0.0007302504499510365
-0.49221739315944435,-0.49221739315944435,1.0006157561632008,0.0008712997892089318
-0.4919861066457088,-0.4919861066457088,0.9993012833424642,0.0007966215157412377
-0.4915633975131641,-0.4915633975131641,0.99785489825271,0.00072667037339726
-0.49124687661133065,-0.49124687661133065,1.0000113574824963,0.0008220271464484984
-0.49104291983130677,-0.49104291983130677,0.9990417016745716,0.0008479678025841283
-0.4905180004774593,-0.4905180004774593,1.0001720852188254,0.0008119039675870115
-0.4901600511966535,-0.4901600511966535,0.9998856020487015,0.0007791942244768566
-0.48978536320646526,-0.48978536320646526,0.9991298430782676,0.0009179486023038342
-0.4894154973972036,-0.4894154973972036,0.9999444792802527,0.0008665268397016514
-0.4891728314283682,-0.4891728314283682,1.000689974253505,0.0007245603821427582
-0.488860344405839,-0.488860344405839,0.9997907796102826,0.0009037663706979272
-0.4883941422227508,-0.4883941422227508,0.9996930604285417,0.0008180536661966014
-0.4881380885202816,-0.4881380885202816,1.0004696690046158,0.0007810482346253605
-0.48777537005335037,-0.48777537005335037,1.0010034740768614,0.0008436067897392305
-0.4873165769804473,-0.4873165769804473,0.9993367058479157,0.0007077162714735878
-0.48708386492908173,-0.48708386492908173,0.999441042789482,0.0007823378460174805
-0.4865974213240406,-0.4865974213240406,0.998443485312025,0.0008552299207667212
-0.4861984877054056,-0.4861984877054056,0.9993965930994362,0.0007942018072827
-0.48575196327656156,-0.48575196327656156,0.9993376173495176,0.0007867741394903683
-0.48525570007150237,-0.48525570007150237,0.999853480683924,0.0007240232445686658
-0.48475051954737863,-0.48475051954737863,0.9998944865567353,0.000787555051461195
-0.48432063469408604,-0.48432063469408604,0.9987242412692536,0.0007548601416731097
-0.4839736423276918,-0.4839736423276918,1.0003057260252786,0.0007963132558097401
-0.48355911082908276,-0.48355911082908276,1.0001774121031672,0.0008663194186131767
-0.4832430633094191,-0.4832430633094191,0.999962675804632,0.0007153956542837746
-0.48277066342088804,-0.48277066342088804,1.0000112398984158,0.0008668676065976676
-0.48244149810088854,-0.48244149810088854,1.0006668722724492,0.0008020288174288417
-0.4821280539716099,-0.4821280539716099,1.000068402080073,0.0007908713741043574
-0.48169023882473994,-0.48169023882473994,1.0001802890077305,0.0008714323878302498
-0.48134521923857393,-0.48134521923857393,1.0001084237999627,0.0008491314478173957
-0.48071962089925363,-0.48071962089925363,1.000556349060878,0.0007598406936989875
-0.48043280631973173,-0.48043280631973173,1.000057293588458,0.0008505162558994012
-0.47996236617836985,-0.47996236617836985,0.9987404560129438,0.0007522376142439082
-0.47951685669249855,-0.47951685669249855,0.9999337372119337,0.0008555322523098142
-0.47899158021173205,-0.47899158021173205,1.0001273632026684,0.0007620285951089878
-0.4785693648958841,-0.4785693648958841,1.0004035309129098,0.0009040962703663835
-0.47827125473559134,-0.47827125473559134,1.0014692711860715,0.0008160395332103783
-0.4777637319675705,-0.4777637319675705,1.0001247622805938,0.0007309290925828536
-0.47734463050255727,-0.47734463050255727,1.0005558112499702,0.0008730495671934856
-0.4767855354137282,-0.4767855354137282,1.0004782449192084,0.0007115007476560248
-0.47645140381719103,-0.47645140381719103,1.0002429884372153,0.0007951709551913535
-0.4759124993310252,-0.4759124993310252,1.000052368310294,0.0009048072686400309
-0.475514341633243,-0.475514341633243,1.0012303347100475,0.0007870592345163624
-0.4749741667470516,-0.4749741667470516,0.9999453474020752,0.0009219828014222824
-0.47456920153053944,-0.47456920153053944,1.0005473158705511,0.0008108708452717334
-0.47428720938332847,-0.47428720938332847,0.999753751486454,0.0010277359120151736
-0.47371950119922984,-0.47371950119922984,1.0006686563111753,0.0007078815078416644
-0.4733304758941813,-0.4733304758941813,0.9990858518859216,0.0009823907023683216
-0.4729979836876737,-0.4729979836876737,0.9980670040736699,0.0008709071076935332
-0.4726479682973149,-0.4726479682973149,1.0006889389553915,0.0007676733706837701
-0.4722552836959949,-0.4722552836959949,0.9994865222560947,0.0009209457083227625
-0.47190918456108194,-0.47190918456108194,1.000486231537468,0.0007938361940234831
-0.4714820943765517,-0.4714820943765517,1.0006611456697612,0.0009272304222604632
-0.47122116095160893,-0.47122116095160893,0.9989995020285937,0.0008720418969109522
-0.47089518722532375,-0.47089518722532375,0.9995549101562448,0.0008581887886886696
-0.4705238871603797,-0.4705238871603797,1.000362667338838,0.0008566586474775064
-0.47016729144743297,-0.47016729144743297,0.9989954406341053,0.0008789172386934401
-0.46980091917757816,-0.46980091917757816,0.9995584946053517,0.0007111613894707234
-0.4693444375981926,-0.4693444375981926,1.0001578896142593,0.0008725662321566815
-0.46912342863615775,-0.46912342863615775,0.9996131639932887,0.000847819165634395
-0.46889274383538576,-0.46889274383538576,0.9995635765096609,0.0007906363107648131
-0.4684244862262858,-0.4684244862262858,1.0009293558402343,0.0008726980218838178
-0.4682147242663632,-0.4682147242663632,1.0000883821075441,0.0008742212912593982
-0.4679375091269321,-0.4679375091269321,0.99883038533595,0.0009203400320829597
-0.467634026415908,-0.467634026415908,0.9998206531995357,0.000792289328534212
-0.4673374862133642,-0.4673374862133642,0.9997729658285206,0.0008877189974519044
-0.46709574953893024,-0.46709574953893024,1.0000072524068389,0.0008483191045368521
-0.4668897401596041,-0.4668897401596041,0.9991543478116606,0.0008602342425643797
-0.46645255134499164,-0.46645255134499164,0.99951733810768,0.0008110502115624913
-0.46629455008624066,-0.46629455008624066,1.0003896902991365,0.0008706201850219305
-0.46599642349319764,-0.46599642349319764,0.9995358864285663,0.0007681807121992809
-0.46552666388488434,-0.46552666388488434,1.0001382486588988,0.0007508077382728307
-0.4653232282740646,-0.4653232282740646,0.9997172653510417,0.0008590928310184941
-0.4650041388100362,-0.4650041388100362,1.0003556692660696,0.0007696033763972228
-0.46446839587260913,-0.46446839587260913,1.0001880463735844,0.0007753221921586296
-0.4642138945284387,-0.4642138945284387,0.9995872709435284,0.0008446428408650997
-0.46397620187199207,-0.46397620187199207,1.0001810081105091,0.0007918885690695246
-0.46342989619224684,-0.46342989619224684,1.000253570912791,0.0008246940039948886
-0.4632833877290977,-0.4632833877290977,1.0006357058895916,0.0008518729589969421
-0.46292825243326663,-0.46292825243326663,1.000095670968244,0.0007756918159674491
-0.46244344702172385,-0.46244344702172385,1.0006106410593287,0.0008309801949293807
-0.462192702637185,-0.462192702637185,0.9999041503718651,0.0007933907903781946
-0.4617667519556562,-0.4617667519556562,1.000478379387293,0.0007292204043229556
-0.4613997818687494,-0.4613997818687494,0.9998253206979637,0.0007984372058501973
-0.46107069379722815,-0.46107069379722815,0.9987695900471969,0.0007847220176463831
-0.46053686490377005,-0.46053686490377005,0.9999633047015806,0.0007553388114289356
-0.4603582477899181,-0.4603582477899181,0.9998154289441287,0.0009258079630100715
-0.4600980382823764,-0.4600980382823764,0.9991464850471008,0.0008546937349979512
-0.45955603579714077,-0.45955603579714077,1.000058359451938,0.0007438228970418219
-0.4592810694968648,-0.4592810694968648,1.000312584269864,0.000780160836912237
-0.4588327739540546,-0.4588327739540546,1.0003997318712892,0.0008501447154191086
-0.45843974796589465,-0.45843974796589465,0.9998166725286699,0.000747775433505013
-0.4581660401287081,-0.4581660401287081,1.0002746900738138,0.0008376679107317533
-0.45765614858719345,-0.45765614858719345,1.0006007349251362,0.000825683745925827
-0.4574051736304682,-0.4574051736304682,1.0002620325785045,0.0007087704049411343
-0.4571323636042507,-0.4571323636042507,0.999230496452936,0.0008346794510573246
-0.45660827607462123,-0.45660827607462123,1.0000055377494275,0.000786646434006595
-0.4563386842590262,-0.4563386842590262,0.9999289947309581,0.0008630727260607153
-0.45574846854651696,-0.45574846854651696,0.9996952597762953,0.0007840752592016209
-0.455350170537713,-0.455350170537713,1.0005062615798246,0.0007877274580826531
-0.4548345716088079,-0.4548345716088079,1.000525758773363,0.0008023275857674232
-0.4544049850803276,-0.4544049850803276,0.9996167937879985,0.0007068710268828193
-0.45386957624759816,-0.45386957624759816,0.9991543508883748,0.0008035315438098295
-0.45349673965465626,-0.45349673965465626,0.9996958860776605,0.0007245888975813513
-0.45309321372515116,-0.45309321372515116,1.0001942462660256,0.0008767376492440207
-0.45276480398060814,-0.45276480398060814,0.9997705325905452,0.0009103185077259192
-0.4525470402695646,-0.4525470402695646,1.0003236497712973,0.0007326242566518992
-0.4520971694480977,-0.4520971694480977,0.9997521392973587,0.0007975478544177218
-0.4517038539179339,-0.4517038539179339,0.999281063886861,0.0008716142980487258
-0.4514106181504758,-0.4514106181504758,0.999930468581484,0.0007752496205618141
-0.4509054658246896,-0.4509054658246896,1.0004245775829712,0.0008166964684578493
-0.4504956318094628,-0.4504956318094628,1.000324562778379,0.0007846291613517728
-0.4500408148538554,-0.4500408148538554,1.000232008805091,0.0008195136541994825
-0.44976315696549135,-0.44976315696549135,0.9997176302957452,0.0008561379927220332
-0.4494170257668884,-0.4494170257668884,0.9994987871062138,0.0007334002388629575
-0.4488414738952997,-0.4488414738952997,0.9991029755493057,0.000802672491225459
-0.44856859299252394,-0.44856859299252394,0.9994795554760978,0.0008714364468562918
-0.44806902466916654,-0.44806902466916654,1.000500322091448,0.0008126323110776042
-0.44764267423161075,-0.44764267423161075,0.998832961293037,0.0008555924703838357
-0.44733889083363465,-0.44733889083363465,0.9988781935258173,0.0008056113949385594
-0.4467450963533338,-0.4467450963533338,1.0000470216637158,0.0007864042140280407
-0.4462910640046175,-0.4462910640046175,1.0007432464029007,0.0008127632334390218
-0.4457751308542356,-0.4457751308542356,0.9997969345050326,0.0007865786514310346
-0.44532735088541814,-0.44532735088541814,0.9999255478762217,0.0008413588542702166
-0.4447730391835648,-0.4447730391835648,0.9997822965197785,0.0007280668813503306
-0.44452606580198334,-0.44452606580198334,1.000387117098275,0.0009719592641022105
-0.44399032412511585,-0.44399032412511585,0.9997336494721278,0.0007888031162908724
-0.44362502901421974,-0.44362502901421974,1.000344927858226,0.0009209833581684037
-0.4431797514345817,-0.4431797514345817,0.9992820580535235,0.0008526455091098896
-0.4428638627301552,-0.4428638627301552,0.9986617912808919,0.0007707414727271301
-0.4425336623509793,-0.4425336623509793,0.9996992759743929,0.0009914592732131243
-0.44227792424971996,-0.44227792424971996,0.9999427606113234,0.0008582136898123482
-0.44188721012214954,-0.44188721012214954,1.0004562825662888,0.0008723429088797827
-0.44158105140013504,-0.44158105140013504,0.9987687296299175,0.0009670622974009037
-0.4412344076401496,-0.4412344076401496,1.0003505311230607,0.0008024205136559218
-0.44083545119174233,-0.44083545119174233,0.9997312579798299,0.0007863954260949119
-0.44043961786519503,-0.44043961786519503,0.9995065917264201,0.0008736869597729856
-0.44012476473908463,-0.44012476473908463,1.0000438103483469,0.0009213564326058446
-0.4398405776155414,-0.4398405776155414,0.9991302416522998,0.0007863165313850568
-0.43948689810240466,-0.43948689810240466,0.9995474860900438,0.0009345593919077644
-0.43918057413393397,-0.43918057413393397,1.0011554776017606,0.0008632401354381781
-0.4388269406030304,-0.4388269406030304,1.0002245223673936,0.0007849447344329113
-0.4384936303737049,-0.4384936303737049,1.0000687954124916,0.0008861907772846957
-0.43825305512655177,-0.43825305512655177,1.0004221099725776,0.0008496057130213646
-0.4379314838188293,-0.4379314838188293,0.9993338402621182,0.0007119563406699097
-0.4375405928763939,-0.4375405928763939,1.0006010041425983,0.0008881879450669853
-0.4373080182114791,-0.4373080182114791,1.000709079240371,0.0009194817880464378
-0.43713464974462113,-0.43713464974462113,1.0009087807924266,0.0008494446050433027
-0.43679091164631245,-0.43679091164631245,0.9996023074261778,0.0007240570730865072
-0.43658144751570943,-0.43658144751570943,0.9999122014483863,0.0008218875909915882
-0.43637499151700465,-0.43637499151700465,0.9988088241551274,0.0009170880167351858
-0.4360545965646452,-0.4360545965646452,1.0010213010187787,0.0007185469338973338
-0.43561345391317446,-0.43561345391317446,0.9998642717804153,0.0008044307641716231
-0.43540051601266894,-0.43540051601266894,0.9992794673844232,0.0008533643472046756
-0.43509875547970295,-0.43509875547970295,0.9993836413038839,0.0007986380640884812
-0.43462806611896665,-0.43462806611896665,0.9996161293280208,0.0008038477818508645
-0.43446949841782045,-0.43446949841782045,0.9999072499683386,0.0008521921799212531
-0.43418475324069733,-0.43418475324069733,1.0004022242574808,0.0007903352316465243
-0.4336892696428549,-0.4336892696428549,1.0000221135295175,0.0007788667868814369
-0.43350923653197243,-0.43350923653197243,1.0007219022858498,0.0008564144802455844
-0.43319496399853963,-0.43319496399853963,0.9988798721316454,0.0008607209614582424
-0.4327636758036533,-0.4327636758036533,1.0001953342905427,0.0007626609300699982
-0.432512624125593,-0.432512624125593,0.9996845851993752,0.0008570396094779225
-0.4322272416899068,-0.4322272416899068,0.9999000280973475,0.0008457005514846665
-0.4317969226714922,-0.4317969226714922,0.9999709505772982,0.0007484044295131712
-0.4315461150588817,-0.4315461150588817,0.9999686860224802,0.0008496453088231805
-0.4312928461946285,-0.4312928461946285,0.9994853583831164,0.0008042789487352848
-0.4307924740096496,-0.4307924740096496,0.999725893671358,0.0007568894819668816
-0.43058885290884064,-0.43058885290884064,0.9996501392958083,0.0008527752936694529
-0.4303080507917912,-0.4303080507917912,0.9998619775313087,0.0008545125149501922
-0.429763559298226,-0.429763559298226,1.00088372694587,0.0007500343081447297
-0.4295186287290562,-0.4295186287290562,0.9998906115097427,0.0008497268835810478
-0.42909988906103536,-0.42909988906103536,1.000826407177759,0.0009661771070022388
-0.42876418928462956,-0.42876418928462956,0.9998507304116234,0.0007391884253014773
-0.42849586123666084,-0.42849586123666084,1.0005372289924226,0.0007806443360655583
-0.42806842905192755,-0.42806842905192755,1.000079046678835,0.0009081359283957558
-0.42770446563445147,-0.42770446563445147,1.0000116770462006,0.0007600806676627961
-0.42744664358106094,-0.42744664358106094,0.9998234805918678,0.0008349413314598774
-0.4270106634317926,-0.4270106634317926,0.9995583166408588,0.000790981297289397
-0.4266249999847787,-0.4266249999847787,1.0004623296869313,0.0007102540720063497
-0.4263423133503238,-0.4263423133503238,0.9993742951633948,0.0008353837284292827
-0.4258257594734459,-0.4258257594734459,0.9990338926640512,0.0007857649938062039
-0.4255127920077939,-0.4255127920077939,0.999471277856862,0.0008641660847758129
-0.42493085267306013,-0.42493085267306013,0.9996329705163518,0.0007274788445061313
-0.4245212367408385,-0.4245212367408385,0.9998797815150346,0.0007850762829123923
-0.4240611246572371,-0.4240611246572371,1.0007058338834944,0.000856127250692221
-0.42374416636630485,-0.42374416636630485,1.000871918428063,0.0007547462579944065
-0.42346074321176275,-0.42346074321176275,0.9997288230608088,0.000848314726041256
-0.42302572421285733,-0.42302572421285733,0.9997521805521851,0.0008655662662516302
-0.4227487390187889,-0.4227487390187889,0.9997219040100027,0.0007320781139717981
-0.4223050063796109,-0.4223050063796109,1.0002919030924498,0.0007976904633032496
-0.42197401388511935,-0.42197401388511935,0.9991117941001523,0.0009240976021825754
-0.421790638764287,-0.421790638764287,0.9998095062393147,0.000788657849991917
-0.42148679974816333,-0.42148679974816333,0.9990283734415952,0.0008611681747994863
-0.42102772949510836,-0.42102772949510836,1.0000657005726787,0.0008710007684821953
-0.4206662807639077,-0.4206662807639077,0.9995511516337328,0.0007939982687719139
-0.42004487503290877,-0.42004487503290877,1.0004369417531982,0.0008172276787461053
-0.4197943876624777,-0.4197943876624777,1.0006800805376197,0.000785230901742302
-0.4192700058225455,-0.4192700058225455,1.000909166727362,0.0007622534823981721
-0.4188710663096572,-0.4188710663096572,0.9999934695139233,0.0008527449095902487
-0.4182808153469523,-0.4182808153469523,0.9993801465494144,0.0007491469095105211
-0.4178858201561525,-0.4178858201561525,0.9993721907849341,0.000852091492298894
-0.4175492012902396,-0.4175492012902396,0.9999670177680973,0.0008177287985179999
-0.4169750933357136,-0.4169750933357136,0.998959624770384,0.0007883876403041747
-0.4165770948158752,-0.4165770948158752,0.9997773305208597,0.0008063075311641705
-0.4160396410850808,-0.4160396410850808,0.9995836838925559,0.0007086782022362666
-0.415719980722497,-0.415719980722497,0.9991142253693557,0.000929445800461455
-0.4151389826776722,-0.4151389826776722,1.000344035794814,0.0007825916026016867
-0.414741757442971,-0.414741757442971,0.9999270964800349,0.0009215407088145966
-0.4141998572646116,-0.4141998572646116,0.9997046510196194,0.0007886781801459333
-0.41389726178822456,-0.41389726178822456,0.9999670838155534,0.0009277303719347485
-0.4134564025705913,-0.4134564025705913,0.9993438697049957,0.0009224303436770433
-0.4130055901059677,-0.4130055901059677,1.0000362040124782,0.0008390755634485374
-0.412630010045541,-0.412630010045541,1.000784280104084,0.0008729326245561966
-0.41228812284643934,-0.41228812284643934,0.9998320445214711,0.0008551356995265423
-0.41189923486235785,-0.41189923486235785,1.0004656129420852,0.0009086920155688853
-0.4115617418257898,-0.4115617418257898,0.9994700406508166,0.000863152703961142
-0.4111347140737053,-0.4111347140737053,0.9993044781878027,0.000725716705929158
-0.410735459559146,-0.410735459559146,1.0004097870224902,0.0009799852155719228
-0.410432615780519,-0.410432615780519,0.9992055006379671,0.0007908521775539278
