time,time,flux,flux_err
-0.4998271688103462,-0.4998271688103462,0.9999811148590991,4.9749436065890714e-05
-0.4995537867522216,-0.4995537867522216,0.9999889728092359,4.510218251312035e-05
-0.4992080011274084,-0.4992080011274084,1.0000385206248654,4.556022558012259e-05
-0.4988379852744401,-0.4988379852744401,0.9999927226985967,4.5133709357055927e-05
-0.4986138264721376,-0.4986138264721376,0.9999805320383274,4.48274068560118e-05
-0.498442085350689,-0.498442085350689,0.9999712069149655,4.534638350635373e-05
-0.49824854583566774,-0.49824854583566774,0.9999762743557221,4.4339078812846064e-05
-0.498074254146195,-0.498074254146195,0.9999408887075178,4.464265536125552e-05
-0.49772409911965954,-0.49772409911965954,0.9998972325437899,4.5871424892308886e-05
-0.4971562171485857,-0.4971562171485857,1.0000204110258952,4.48932759436359e-05
-0.4967511015900527,-0.4967511015900527,0.9999573930255188,4.4653596645065745e-05
-0.4963954974227818,-0.4963954974227818,0.9999858212372758,4.486203076658396e-05
-0.49616175937408113,-0.49616175937408113,1.0000081244811971,4.4655798707076794e-05
-0.4958466981071979,-0.4958466981071979,1.00002577816259,4.534250066733399e-05
-0.495351231067616,-0.495351231067616,0.9999503545634802,4.484991921309454e-05
-0.4950801782892086,-0.4950801782892086,1.0000596403461655,4.484732354179259e-05
-0.49488631036365405,-0.49488631036365405,1.0000357271730522,4.4666158239782994e-05
-0.49461020353628554,-0.49461020353628554,0.9999619727059657,4.500292715684865e-05
-0.4943976471884525,-0.4943976471884525,1.0000234364285758,4.48741729764121e-05
-0.49411479406117,-0.49411479406117,0.9999272875268626,4.5102330590570275e-05
-0.49363293403148417,-0.49363293403148417,1.0000170714997774,4.486840241739222e-05
-0.49334101820131765,-0.49334101820131765,0.9999676875749547,4.5603724992089803e-05
-0.4929939936060691,-0.4929939936060691,0.9999875258791231,4.4970944967010957e-05
-0.4925818691175664,-0.4925818691175664,1.000046263092229,4.480045882384571e-05
-0.4922025312029291,-0.4922025312029291,1.0000253968731274,4.417099708666442e-05
-0.49181846920691896,-0.49181846920691896,0.9999942411815645,4.476334079111085e-05
-0.4914613986373297,-0.4914613986373297,1.0000185435268754,4.436343630411719e-05
-0.4909957993178978,-0.4909957993178978,0.9999990899546045,4.515695848330251e-05
-0.49076762969198173,-0.49076762969198173,1.0000373066723849,4.5270056119326476e-05
-0.49047062517493034,-0.49047062517493034,1.000013958526736,4.5328558222417906e-05
-0.49019004848960324,-0.49019004848960324,0.9999927743648239,4.514453192891342e-05
-0.4899628293918795,-0.4899628293918795,1.0000165447332943,4.4852377291373454e-05
-0.48977349882770793,-0.48977349882770793,1.000032938826226,4.4839603050664095e-05
-0.48956716483662605,-0.48956716483662605,0.9999987509941952,4.513144476440414e-05
-0.4892816806008341,-0.4892816806008341,0.9999438310706369,4.4823100364884956e-05
-0.48891403735469796,-0.48891403735469796,0.9999997673869775,4.587128449569437e-05
-0.48861690467747393,-0.48861690467747393,0.9999719163330442,4.488646094693772e-05
-0.48826959252910457,-0.48826959252910457,1.0000388803761024,4.437901141888349e-05
-0.4878933944928576,-0.4878933944928576,1.0000857866667705,4.4885814129423654e-05
-0.48753198194754077,-0.48753198194754077,1.000051098071298,4.516382271302112e-05
-0.4872770088899415,-0.4872770088899415,0.9999965662464645,4.4860387856295435e-05
-0.48697220908798045,-0.48697220908798045,1.0000072489720038,4.463065363787491e-05
-0.48659922831575386,-0.48659922831575386,1.0000814872618453,4.487111029205478e-05
-0.4862596470222343,-0.4862596470222343,1.0000077866046544,4.4868386626208186e-05
-0.4860388895132928,-0.4860388895132928,1.000011501372134,4.463897663718804e-05
-0.48576387180073655,-0.48576387180073655,0.9999835650510066,4.467281570271215e-05
-0.48552812587731753,-0.48552812587731753,1.000048419477142,4.5097505636286535e-05
-0.4851741823804332,-0.4851741823804332,1.0000321897216855,4.4876697456936425e-05
-0.48483562368201094,-0.48483562368201094,1.0000044224645206,4.484763764099314e-05
-0.48455908504402034,-0.48455908504402034,1.0000257642819814,4.4880327925667744e-05
-0.48421597372798714,-0.48421597372798714,0.9999902959185153,4.537064630559618e-05
-0.4838651058729738,-0.4838651058729738,1.0000085243424772,4.439632125483815e-05
-0.4835387515006005,-0.4835387515006005,0.9999435585059716,4.441213776556957e-05
-0.48316202716960105,-0.48316202716960105,0.9999618102866972,4.4336960743367366e-05
-0.48283567430917174,-0.48283567430917174,1.0000860554235274,4.476474968761362e-05
-0.48245092741854023,-0.48245092741854023,0.9999555454472165,4.4683736378359784e-05
-0.4820876138212043,-0.4820876138212043,0.9999726150946492,4.5047970118944816e-05
-0.4819322665483924,-0.4819322665483924,1.0000148316034791,4.538109049383766e-05
-0.48150414538395125,-0.48150414538395125,1.0000130184431615,4.582811374651093e-05
-0.48114220657444096,-0.48114220657444096,0.9999632841600679,4.433610189844515e-05
-0.48093680462625343,-0.48093680462625343,1.0000579857473155,4.535381870459014e-05
-0.4807385820546187,-0.4807385820546187,1.0000272187267278,4.434721569783873e-05
-0.48046065775706664,-0.48046065775706664,1.0000015846200685,4.5644561493007036e-05
-0.48002730342122957,-0.48002730342122957,1.0000843049330665,4.537183954077644e-05
-0.4796568499688874,-0.4796568499688874,0.9999204827886491,4.465933487361989e-05
-0.4792799027010915,-0.4792799027010915,0.9999886146006624,4.48468712311569e-05
-0.47887309210345846,-0.47887309210345846,0.9999815252012245,4.488942435343407e-05
-0.4785119861335261,-0.4785119861335261,1.0000003218922913,4.48456768019828e-05
-0.478160108863085,-0.478160108863085,0.9999631220010649,4.512956409472329e-05
-0.47786931865557564,-0.47786931865557564,0.9999960425378177,4.486339687936474e-05
-0.47745972364209593,-0.47745972364209593,1.000060895097893,4.486411164364182e-05
-0.47722404307860417,-0.47722404307860417,0.9999801366465668,4.4639825806388296e-05
-0.4769924982538214,-0.4769924982538214,1.000012476409606,4.467501391686138e-05
-0.4767966392028029,-0.4767966392028029,0.9999477871988394,4.4584993551435953e-05
-0.4765918930614134,-0.4765918930614134,1.0000897102369706,4.486691500443557e-05
-0.47624020562507213,-0.47624020562507213,0.9999847510322475,4.468948293986093e-05
-0.4759481347471592,-0.4759481347471592,0.9999751464748572,4.506784929621314e-05
-0.4756290230012382,-0.4756290230012382,1.000006530159311,4.4734659085238245e-05
-0.47541052390879485,-0.47541052390879485,1.000029833665149,4.488709657825622e-05
-0.47514656568382635,-0.47514656568382635,1.0000274088575378,4.502881671335063e-05
-0.4746731118619209,-0.4746731118619209,1.0000227314322978,4.440009011667482e-05
-0.47438028242322616,-0.47438028242322616,1.0000328040326516,4.451898632554499e-05
-0.4741371504176641,-0.4741371504176641,1.0000645409927564,4.482625935818037e-05
-0.4737013812133227,-0.4737013812133227,1.0000843059079159,4.4153295198115364e-05
-0.47331202969071456,-0.47331202969071456,1.0000744572454807,4.507170334800356e-05
-0.47312406593700873,-0.47312406593700873,0.9999962566575658,4.5398942445959253e-05
-0.4728062418129412,-0.4728062418129412,0.999928845224319,4.534541979476924e-05
-0.47254024354333524,-0.47254024354333524,0.9999993574546615,4.5124314308266666e-05
-0.47223454390477854,-0.47223454390477854,1.0000066699511128,4.504262661115436e-05
-0.4720091828436125,-0.4720091828436125,1.000007711777716,4.4832592387055046e-05
-0.47166064079356146,-0.47166064079356146,1.00001720093799,4.516728373045033e-05
-0.4713345669952105,-0.4713345669952105,0.9999970870493937,4.5383048058735535e-05
-0.4710773565879208,-0.4710773565879208,0.9999687891727577,4.466762812804373e-05
-0.4707739572666469,-0.4707739572666469,0.999998450776887,4.4866484411189465e-05
-0.4703411995098577,-0.4703411995098577,0.9999863063479152,4.466437964828643e-05
-0.4699956275537261,-0.4699956275537261,1.0000592871000358,4.487378551565751e-05
-0.4696378007894964,-0.4696378007894964,0.9999554365666568,4.536551540351145e-05
-0.46923839174123716,-0.46923839174123716,1.0000524605574836,4.485678019295135e-05
-0.46898661237355554,-0.46898661237355554,0.999982947318783,4.463632977266784e-05
-0.4686173413589131,-0.4686173413589131,1.0000480243562184,4.486198419026759e-05
-0.46836440401675644,-0.46836440401675644,1.000000226839458,4.466389951479163e-05
-0.4681647450357559,-0.4681647450357559,0.9999889009771238,4.4675746281267084e-05
-0.46795119835442167,-0.46795119835442167,1.0000491911512552,4.5103671553976245e-05
-0.4676834427576978,-0.4676834427576978,1.0000244963263494,4.487645540356058e-05
-0.46731881776067896,-0.46731881776067896,0.9999074832024247,4.4366086788305094e-05
-0.4670517850478063,-0.4670517850478063,1.0000650496569976,4.5408118540761066e-05
-0.46687022048572546,-0.46687022048572546,1.0000322398723511,4.458205012410089e-05
-0.46666157532308716,-0.46666157532308716,0.9999440723939511,4.490445414948487e-05
-0.466472308311495,-0.466472308311495,1.0000147126380365,4.494131301676646e-05
-0.46619756366417275,-0.46619756366417275,0.9999943253939112,4.440775206504904e-05
-0.46588587374862983,-0.46588587374862983,1.0000103694601692,4.437434671034666e-05
-0.46559871210338316,-0.46559871210338316,1.0000523808246373,4.432226582686364e-05
-0.4653907293337397,-0.4653907293337397,1.000074836347069,4.457012323868285e-05
-0.4650874066806864,-0.4650874066806864,0.9999205082731665,4.433848805246497e-05
-0.4648498836599174,-0.4648498836599174,1.000065520653792,4.4237718333738876e-05
-0.4645499228819972,-0.4645499228819972,1.00003971271109,4.502572416571338e-05
-0.46434259228844893,-0.46434259228844893,1.000053180411201,4.511061656338855e-05
-0.4639911362377461,-0.4639911362377461,1.0000287929221225,4.5632767553470875e-05
-0.4637530435677036,-0.4637530435677036,0.9999977151792138,4.464622351529299e-05
-0.4635229152758257,-0.4635229152758257,1.0000383419841714,4.5036220985975335e-05
-0.46336602672963634,-0.46336602672963634,1.0000349189399997,4.484532868369076e-05
-0.4631303858302999,-0.4631303858302999,1.0000203569105215,4.482063752457929e-05
-0.46288023343659007,-0.46288023343659007,0.9999417046982613,4.518257680645593e-05
-0.46261377022165107,-0.46261377022165107,1.0000176608619717,4.484342607066008e-05
-0.46235080914775606,-0.46235080914775606,0.9999086002342807,4.5361980045725104e-05
-0.462122225863277,-0.462122225863277,0.9999321625443333,4.466663541764325e-05
-0.46162023199140095,-0.46162023199140095,1.000033855963617,4.520463620021698e-05
-0.4613162738358369,-0.4613162738358369,1.0000202427242226,4.4403964736783815e-05
-0.46102502787834965,-0.46102502787834965,1.0000001485670715,4.534976625877707e-05
-0.46055941880331375,-0.46055941880331375,1.000043876926893,4.4676649928553464e-05
-0.46037517598451816,-0.46037517598451816,0.9999865979666268,4.485600134515434e-05
-0.46013111576321536,-0.46013111576321536,0.9999775080151407,4.4680918383375186e-05
-0.45988087090372576,-0.45988087090372576,1.0000944140580668,4.4890727037651733e-05
-0.45958364742691626,-0.45958364742691626,0.9999916847507839,4.4645123022483975e-05
-0.45925227093830473,-0.45925227093830473,1.0000507880418357,4.509814097653326e-05
-0.45899629224149974,-0.45899629224149974,0.9999817902131211,4.486743771009548e-05
-0.45871278011763933,-0.45871278011763933,0.9999116451967252,4.4638428714117844e-05
-0.4584546983096516,-0.4584546983096516,1.0000127925454985,4.4386751430883545e-05
-0.45825131249293916,-0.45825131249293916,1.0000073925397153,4.4873672174052376e-05
-0.45801265667250846,-0.45801265667250846,1.0000436892008058,4.504725019546833e-05
-0.45782087895058793,-0.45782087895058793,1.0000041575324548,4.4941002853729306e-05
-0.4575672786697396,-0.4575672786697396,1.0000345243610342,4.499135840261123e-05
-0.4572270642849617,-0.4572270642849617,1.000039012621302,4.4409644748388706e-05
-0.45684145916457053,-0.45684145916457053,0.9999412545287131,4.433218599024043e-05
-0.45659195690677734,-0.45659195690677734,1.0000554575177465,4.4570202532770315e-05
-0.45625016856356526,-0.45625016856356526,0.9999871495070186,4.439487114485755e-05
-0.4559844160889043,-0.4559844160889043,1.0000054154955957,4.4281870278360395e-05
-0.45566429224272725,-0.45566429224272725,1.00003223724902,4.526802951821881e-05
-0.45532030398317147,-0.45532030398317147,1.0000582617402243,4.532621685175408e-05
-0.45499643925577404,-0.45499643925577404,1.000002228548928,4.515274783651281e-05
-0.45475859393336576,-0.45475859393336576,1.0000024518205872,4.482986545770298e-05
-0.45459540819720134,-0.45459540819720134,1.0000370010309108,4.503681235050556e-05
-0.45437671064864843,-0.45437671064864843,0.999990080011828,4.481229976278392e-05
-0.45420406875637126,-0.45420406875637126,1.0000249627511213,4.465468575249657e-05
-0.45381821128394223,-0.45381821128394223,0.9999758376451033,4.535251633397853e-05
-0.45358820640540215,-0.45358820640540215,1.0000051285198468,4.4876589346835624e-05
-0.4533645388015429,-0.4533645388015429,1.000037862739642,4.5166155617321385e-05
-0.45291173755540515,-0.45291173755540515,1.0000674978989361,4.453774581655927e-05
-0.45258737448602915,-0.45258737448602915,0.999986233343391,4.4871233092352655e-05
-0.45221979397902035,-0.45221979397902035,1.0000085161428922,4.534839592171392e-05
-0.45176629436027727,-0.45176629436027727,0.9999759113257618,4.469613740980991e-05
-0.4516085709867184,-0.4516085709867184,0.9999594316433884,4.4854590512282316e-05
-0.4513698071867111,-0.4513698071867111,0.9999443421543166,4.465349568470664e-05
-0.451168760843575,-0.451168760843575,1.0000241933155956,4.439788802737825e-05
-0.4509588882647222,-0.4509588882647222,1.0000119329574932,4.493766443569739e-05
-0.4506852962775156,-0.4506852962775156,1.0000618199273688,4.4857474951613596e-05
-0.4503902334967279,-0.4503902334967279,0.9998928116653902,4.5106892829865905e-05
-0.45009048831125253,-0.45009048831125253,0.9999677686068855,4.515920382059555e-05
-0.4497941527180956,-0.4497941527180956,1.0000736868960822,4.466350907074412e-05
-0.44947131103108406,-0.44947131103108406,0.9999907606747162,4.5111470958090196e-05
-0.44926847838505635,-0.44926847838505635,0.9999941442971501,4.505940129966761e-05
-0.4489760290220147,-0.4489760290220147,1.000008822699963,4.493558425963296e-05
-0.4486335597699508,-0.4486335597699508,0.9999799933265543,4.452310357107632e-05
-0.4481272782082669,-0.4481272782082669,0.9999727394760944,4.4336159914630044e-05
-0.4478023524017772,-0.4478023524017772,1.0000382378404626,4.478227759071812e-05
-0.44745308836572806,-0.44745308836572806,1.000102158460594,4.417657074246268e-05
-0.4472058138038847,-0.4472058138038847,1.000057294346907,4.423399497584112e-05
-0.44688008458906553,-0.44688008458906553,0.9999467459840767,4.526588767168133e-05
-0.44657563101209236,-0.44657563101209236,1.0000257067785483,4.532241491897227e-05
-0.44618032490689075,-0.44618032490689075,0.9999665134583464,4.533467624930087e-05
-0.44592379589157644,-0.44592379589157644,0.9999939646406244,4.4833951058444003e-05
-0.44562804518354826,-0.44562804518354826,0.9999316901061874,4.5038348479462935e-05
-0.44535137721977663,-0.44535137721977663,1.0000115324795051,4.567726509458274e-05
-0.44494929744687395,-0.44494929744687395,0.9999549059559755,4.4885402300973094e-05
-0.44466403118567543,-0.44466403118567543,0.9999870337858706,4.485565603891796e-05
-0.44421018915454624,-0.44421018915454624,0.9999837782603203,4.4854156570948245e-05
-0.4438414894393645,-0.4438414894393645,1.0000870414241867,4.4866079098779346e-05
-0.4434875810125959,-0.4434875810125959,1.0000307347178228,4.4854999321905094e-05
-0.44306939182570204,-0.44306939182570204,0.9999925006056035,4.5174954224603174e-05
-0.4428613635682268,-0.4428613635682268,0.9999246870132371,4.4372112086603834e-05
-0.4425630869358429,-0.4425630869358429,1.0000565572066702,4.515180399677187e-05
-0.44236788453272313,-0.44236788453272313,0.9999585777370686,4.4371038651234095e-05
-0.4421254480155767,-0.4421254480155767,0.9999451536230483,4.492805018332834e-05
-0.44181656984001166,-0.44181656984001166,1.0000776673295553,4.486002302437685e-05
-0.44158082154463046,-0.44158082154463046,0.9999278551457456,4.51079381140623e-05
-0.441220901934139,-0.441220901934139,1.0000785087148016,4.545733603103174e-05
-0.44100937246985267,-0.44100937246985267,1.0000028804076218,4.414078228475945e-05
-0.44081043223995947,-0.44081043223995947,1.0000232842290264,4.4887186010308805e-05
-0.44064533249184024,-0.44064533249184024,0.9999145667422129,4.507503464977146e-05
-0.4403652063148911,-0.4403652063148911,0.9999181570315321,4.4894548905971004e-05
-0.4401624817808624,-0.4401624817808624,1.0000690253809057,4.491637328001587e-05
-0.4398774199085892,-0.4398774199085892,0.9999663239812842,4.456826581755989e-05
-0.4394618771460955,-0.4394618771460955,0.9999724846181943,4.414343200764239e-05
-0.4390995588808437,-0.4390995588808437,1.0000504296521056,4.456419338998137e-05
-0.43882041630422464,-0.43882041630422464,0.999998482390016,4.4464923946621604e-05
-0.43856583955639505,-0.43856583955639505,0.9999884950079764,4.4180453622452624e-05
-0.4382307817708352,-0.4382307817708352,0.9999953383604053,4.4609125398955155e-05
-0.43805146786617116,-0.43805146786617116,0.9999607050228928,4.4874159723644403e-05
-0.4377585686481325,-0.4377585686481325,0.9999899937785554,4.532888022876675e-05
-0.43751579435484017,-0.43751579435484017,1.0000256596618118,4.464126834997746e-05
-0.4372691113108885,-0.4372691113108885,0.9998912296653355,4.485663619394672e-05
-0.43710156107263176,-0.43710156107263176,0.9999554740012646,4.456215917487216e-05
-0.436824739423173,-0.436824739423173,1.0000073926141684,4.535602012591615e-05
-0.4363912036889815,-0.4363912036889815,1.000074293889492,4.5856084364947594e-05
-0.4360986915431567,-0.4360986915431567,1.000000567918163,4.504126984428014e-05
-0.43576729618362153,-0.43576729618362153,1.0000355816220805,4.519334267426453e-05
-0.4354528464973555,-0.4354528464973555,0.9999223220498491,4.4569650971172705e-05
-0.43504159813164733,-0.43504159813164733,0.9999890798319336,4.48670007144166e-05
-0.43472638377716066,-0.43472638377716066,1.0000571417801762,4.4846241865566865e-05
-0.4343563589209225,-0.4343563589209225,1.0000110084511833,4.5168631233835606e-05
-0.43409602288156746,-0.43409602288156746,1.000039353591601,4.439886110580578e-05
-0.43387343935028183,-0.43387343935028183,0.9999447780918288,4.464403513403181e-05
-0.4336433410004247,-0.4336433410004247,0.9999588238014573,4.4856585821416474e-05
-0.43339178133755923,-0.43339178133755923,1.0000826384392125,4.495511376211394e-05
-0.433147878262389,-0.433147878262389,1.0000160318411566,4.4664123126302426e-05
-0.4328366632689722,-0.4328366632689722,1.0000033211888932,4.482092253508815e-05
-0.43253256754251196,-0.43253256754251196,0.9999507655418249,4.4655382259061575e-05
-0.43226800061238463,-0.43226800061238463,1.0000143360933493,4.495883614444031e-05
-0.4320320344704669,-0.4320320344704669,1.000076001725835,4.513079237993943e-05
-0.4317973683893797,-0.4317973683893797,1.0000586898868962,4.5078703470452766e-05
-0.4315225165220909,-0.4315225165220909,1.0000071456433792,4.46826767347914e-05
-0.431246963510057,-0.431246963510057,0.9999932708166334,4.4935190805518937e-05
-0.4309625538910041,-0.4309625538910041,0.9999951146580294,4.452945044184308e-05
-0.43060326097038343,-0.43060326097038343,0.9999683654701977,4.4344099535004405e-05
-0.4301173992862459,-0.4301173992862459,0.9999684905425476,4.442365481675957e-05
-0.42985194977518404,-0.42985194977518404,1.000064953825539,4.4131197692050584e-05
-0.42962792544713013,-0.42962792544713013,1.0000234752985429,4.419253051062352e-05
-0.4293706008742447,-0.4293706008742447,0.9999746682537166,4.4554849859295304e-05
-0.4291862260433845,-0.4291862260433845,1.0000583103879337,4.5104400425549313e-05
-0.4288947802371695,-0.4288947802371695,1.0000293820358215,4.515254657852249e-05
-0.42867625502258305,-0.42867625502258305,1.000080828012512,4.464230902916653e-05
-0.428491977394151,-0.428491977394151,1.000023512016295,4.485743752819737e-05
-0.42831214094767345,-0.42831214094767345,0.9999180423530782,4.50682994144593e-05
