time,time,flux,flux_err
-0.499191204959061,-0.499191204959061,0.9997639221794916,0.00038512717878730443
-0.49845413735844585,-0.49845413735844585,1.000162246797923,0.00039874702225564955
-0.49748561912808026,-0.49748561912808026,1.000106915447672,0.00039016430724628394
-0.49667490193096453,-0.49667490193096453,1.0000490879983346,0.0003584706247801689
-0.49623024109750985,-0.49623024109750985,0.9995054856679522,0.0003524391110332573
-0.49524769148556513,-0.49524769148556513,0.9995320458308374,0.0003535041351561298
-0.49466211632243356,-0.49466211632243356,1.0002631293198716,0.00036014376445114686
-0.49400744698359633,-0.49400744698359633,1.0003679810801631,0.0003551408983010484
-0.4930307420407189,-0.4930307420407189,0.9996992912094527,0.00035293381832573616
-0.4925928120268509,-0.4925928120268509,1.000188091175761,0.00035870348262440614
-0.4916676213062601,-0.4916676213062601,0.9996322378663349,0.000367935541734017
-0.4910327144898474,-0.4910327144898474,1.0001645253467313,0.00035451727608672444
-0.49067996481608134,-0.49067996481608134,0.9996036931231531,0.0003582008469022251
-0.48965029124810827,-0.48965029124810827,1.0003719542452196,0.00035263433083836614
-0.48906044588948133,-0.48906044588948133,1.0000724287997922,0.0003556848183653907
-0.48883612077333966,-0.48883612077333966,1.0005512808714765,0.00035942103352629075
-0.48815596266358624,-0.48815596266358624,0.9997583110818569,0.00034698371498071
-0.4872124614659697,-0.4872124614659697,1.000616466600239,0.0003493758615793738
-0.4869156709755771,-0.4869156709755771,0.9996186652349974,0.000363894794319025
-0.4860835431783926,-0.4860835431783926,1.0000971626207467,0.0003529459202510058
-0.48530788317730184,-0.48530788317730184,0.9997031556123043,0.00034936202509771116
-0.48474964004708454,-0.48474964004708454,1.0001813912221436,0.00035622295040020705
-0.48381966914166696,-0.48381966914166696,0.9999300521165075,0.0003528124171129951
-0.48310446258401496,-0.48310446258401496,0.9999682659543782,0.0003548062019670108
-0.4824960360158002,-0.4824960360158002,1.0001325147526487,0.0003795895363061213
-0.48175328070647083,-0.48175328070647083,0.9995787958377896,0.0003472802050271011
-0.48108790456317363,-0.48108790456317363,0.9998053197758988,0.0003615763140026308
-0.48015260994725395,-0.48015260994725395,0.999784887928087,0.00035239914345134573
-0.4794429770350689,-0.4794429770350689,1.0001271207227145,0.00034796952087426316
-0.47861811895272693,-0.47861811895272693,0.999727315028584,0.00035933191799269364
-0.47785497482691425,-0.47785497482691425,1.0000292168654679,0.0003496103322040213
-0.47723013029026334,-0.47723013029026334,0.9996257123104467,0.0003604362837486358
-0.4765068996901391,-0.4765068996901391,0.9999848255069805,0.00035766093443095973
-0.47583772712678185,-0.47583772712678185,0.9993484260683869,0.00045719802560621764
-0.4751525502681034,-0.4751525502681034,0.9996705276737119,0.0003721577325163145
-0.47459848775179125,-0.47459848775179125,1.0002971792028696,0.00035090075954156914
-0.47396147119870874,-0.47396147119870874,1.0003442151157187,0.0003476250584725935
-0.4733430340624182,-0.4733430340624182,0.9993687216783561,0.00043832802823809256
-0.47262386219517794,-0.47262386219517794,0.9996634513139748,0.00035211634478262663
-0.47217376921908,-0.47217376921908,0.9999342586159129,0.0003560967575917032
-0.4715935979940696,-0.4715935979940696,1.0005294571085352,0.0004167293125110063
-0.4707943172485102,-0.4707943172485102,1.0002397057544168,0.00035790927096367864
-0.4702671339269727,-0.4702671339269727,0.9997074171120769,0.00035702332119170804
-0.46950862593075726,-0.46950862593075726,1.0003916394104682,0.0004058743120180737
-0.4688518200593535,-0.4688518200593535,1.0001215377548873,0.00036598453534776663
-0.46838359332468826,-0.46838359332468826,0.9996936958285392,0.00035472978742910215
-0.46770510608912447,-0.46770510608912447,1.000174229967006,0.0003973757065040432
-0.467021313868463,-0.467021313868463,0.9998396768684387,0.00036905384845805137
-0.46653918217052703,-0.46653918217052703,0.9998259187340336,0.00035518468917039944
-0.46597307695483325,-0.46597307695483325,0.9994433549814538,0.00040154093687704207
-0.46525678255420644,-0.46525678255420644,0.9993651649164008,0.0003737482779547144
-0.46479196508880705,-0.46479196508880705,1.0000345992761053,0.000354053753318526
-0.4643181820400059,-0.4643181820400059,1.000294488229187,0.00038749450476070253
-0.4635047088551801,-0.4635047088551801,0.9999723861731658,0.00036237131394043263
-0.4630798019003123,-0.4630798019003123,0.9999425449941546,0.000363151903410341
-0.46263354616239666,-0.46263354616239666,0.9998605197515096,0.0003587001958940633
-0.4618411382398335,-0.4618411382398335,0.999771404963397,0.00038205221095472506
-0.46117072615015786,-0.46117072615015786,0.9998937547465736,0.0003570107583148111
-0.4608083198894747,-0.4608083198894747,1.0000475149259052,0.00036791329325120407
-0.46041347222344486,-0.46041347222344486,0.9998823757066339,0.00037316880685898685
-0.459567994918325,-0.459567994918325,0.9995943444413321,0.0003543519637612931
-0.4590990229189629,-0.4590990229189629,0.9999910622398192,0.0003511696364707446
-0.45871310683724004,-0.45871310683724004,1.0000317238917071,0.00035180501482908974
-0.4580253967200406,-0.4580253967200406,1.0001299529256398,0.00037094531447366523
-0.4573158325714758,-0.4573158325714758,0.9998388488572859,0.0003624556825604264
-0.4569912046456011,-0.4569912046456011,0.9999915114510272,0.00034256523565947856
-0.45673841157113204,-0.45673841157113204,0.9995317286220805,0.00035212847614988086
-0.4558975743042538,-0.4558975743042538,0.999775359665129,0.00037448561520565815
-0.4553422884317115,-0.4553422884317115,1.0000393733257766,0.0003724297680879888
-0.45512551844585686,-0.45512551844585686,1.000136634912876,0.0003435975608421382
-0.4548954713041894,-0.4548954713041894,1.0006115028385416,0.0003569823709668974
-0.4542479118972551,-0.4542479118972551,0.9993970167742257,0.00036623878133497904
-0.45352439509006215,-0.45352439509006215,1.0000654843737713,0.0003558667904358426
-0.4532126693724422,-0.4532126693724422,0.9997222020931179,0.0003424242661119607
-0.4529136329918401,-0.4529136329918401,0.9992990587014404,0.00035691437806947504
-0.45209116375772285,-0.45209116375772285,0.9999649722132414,0.00036921310592373275
-0.4514636903302744,-0.4514636903302744,0.9997848060315958,0.0003487269319402253
-0.4511310345027596,-0.4511310345027596,0.9999912902630254,0.0003570905161430014
-0.45081375823938286,-0.45081375823938286,0.9999346742921927,0.0003616728531757986
-0.4497848624247126,-0.4497848624247126,0.9998714659382995,0.00035486683732716324
-0.4494284760090522,-0.4494284760090522,0.9996926009257251,0.0003482056626607248
-0.44907830020529216,-0.44907830020529216,0.9992411867303485,0.0003773298504865639
-0.4485931065049954,-0.4485931065049954,0.9998480301772297,0.00036075643326471306
-0.44779358394735025,-0.44779358394735025,1.0005169261845415,0.00035484120272879187
-0.4474265817727428,-0.4474265817727428,1.0002678396053666,0.00034829239086530767
-0.44713050694554113,-0.44713050694554113,0.9999794330091604,0.00035659463808365726
-0.4461421062442241,-0.4461421062442241,1.0000470298089894,0.00048359032824393095
-0.44575985459960066,-0.44575985459960066,0.9999811863439103,0.0003486135371579776
-0.44532467645185536,-0.44532467645185536,1.0001700131483062,0.0003561411221176707
-0.4449463759374339,-0.4449463759374339,0.9994730591058966,0.00037473840111917195
-0.44419619475083894,-0.44419619475083894,0.9998778562979096,0.00034890139721860207
-0.44354417599970475,-0.44354417599970475,0.9994343966493245,0.0003545254363555111
-0.4430002513778163,-0.4430002513778163,0.9996709256544303,0.0003635422284731601
-0.4420328672364121,-0.4420328672364121,0.9999725541899898,0.0003557023678016936
-0.4414174191188067,-0.4414174191188067,0.9996677252604268,0.00035477948953795396
-0.4408491809823317,-0.4408491809823317,0.9996050098218667,0.00035760302084304974
-0.43994721184135416,-0.43994721184135416,0.9992444499761198,0.00036051766513694534
-0.43933650631806814,-0.43933650631806814,0.9995707270971865,0.00037691690577665505
-0.43857152916898484,-0.43857152916898484,0.9996363468084948,0.00036678588341264697
-0.4378477951453533,-0.4378477951453533,0.9995059351190243,0.0003547383935866617
-0.4368367519462481,-0.4368367519462481,0.9999537684348754,0.0003605554203840433
-0.435775082159671,-0.435775082159671,0.9999035981587447,0.0003547125602769437
-0.4347486733458936,-0.4347486733458936,0.9997850907603436,0.00044147694365221653
-0.4338645197771257,-0.4338645197771257,1.000362553423135,0.00035477426102992736
-0.4327809137379518,-0.4327809137379518,1.0002072646969524,0.00042165404978843947
-0.4320682697725715,-0.4320682697725715,0.9996933184144563,0.0003546596078286955
-0.4310677767120069,-0.4310677767120069,1.0003151032077302,0.00035548163311116765
-0.43031026388925964,-0.43031026388925964,0.9994344554931157,0.00040758660265255604
-0.4297195328545058,-0.4297195328545058,0.9994871551205465,0.0003852565498653265
-0.42860191242652945,-0.42860191242652945,1.000165048992552,0.00035501960705982297
-0.42790231554827185,-0.42790231554827185,1.0000167479738242,0.0003593147268490599
-0.4264136491518002,-0.4264136491518002,0.9994715067322429,0.00035820968411418496
-0.42558930687082464,-0.42558930687082464,0.9995221594199377,0.000351095342000422
-0.42465289373940324,-0.42465289373940324,0.999904688990304,0.00035493784994852
-0.42353475509153216,-0.42353475509153216,1.0001754615689005,0.0003561204813740113
-0.4227214872022159,-0.4227214872022159,0.9997729821021674,0.00035491251328568694
-0.4218027484283084,-0.4218027484283084,1.0000492034287642,0.00035586876953569863
-0.42099132693838326,-0.42099132693838326,0.9995296002686482,0.00036328675064968883
-0.42028988409147133,-0.42028988409147133,1.0005954380028317,0.0003548799840191047
-0.41933108592929785,-0.41933108592929785,1.0008649372958416,0.0003503217619947128
-0.4187362241442315,-0.4187362241442315,1.0001584006958772,0.0003699973975541654
-0.41817680694512094,-0.41817680694512094,0.9999381668758849,0.00034981186379427954
-0.4172841177904047,-0.4172841177904047,1.0001933914766277,0.0003552024193275988
-0.4166736499493709,-0.4166736499493709,1.0000645320705428,0.00036970757515190786
-0.41574537656561006,-0.41574537656561006,1.0001404999420132,0.00036934853358285257
-0.41480295355722774,-0.41480295355722774,1.000393340934115,0.00036887823997392425
-0.4138582879822934,-0.4138582879822934,0.9995323229532094,0.00036245027875615824
-0.41294352398253975,-0.41294352398253975,1.0002914729695753,0.0003680948511089584
-0.4117158844484948,-0.4117158844484948,1.0000283932966858,0.00037358715127681403
-0.4108503586030565,-0.4108503586030565,0.999592683941142,0.00035557050731844256
-0.4094381747301668,-0.4094381747301668,0.9996643349454327,0.00036156326371034725
-0.4085657725838246,-0.4085657725838246,1.0001618687761353,0.0003584052373737384
-0.40720356271485797,-0.40720356271485797,0.9997693007185298,0.00035446722240970395
-0.4061964786844328,-0.4061964786844328,1.0001807793181583,0.00035681223505570567
-0.4050017305940855,-0.4050017305940855,0.9993659975988306,0.0003545275130871353
-0.4042915019672364,-0.4042915019672364,0.9999726196242855,0.0003653494034100415
-0.4033736325247446,-0.4033736325247446,1.0000193597758331,0.00035453195591568694
-0.40267964491504243,-0.40267964491504243,1.0002138305199613,0.0003554883221003745
-0.4019005523645319,-0.4019005523645319,1.0003662909170534,0.00037643947337959703
-0.40119986614445224,-0.40119986614445224,1.0000008938075962,0.0003660227299941186
-0.40054428281728177,-0.40054428281728177,0.999966435394619,0.0003538915882679983
-0.3994694693799829,-0.3994694693799829,0.9999176801635891,0.0003549264732281132
-0.3989891433273442,-0.3989891433273442,1.0001363085442165,0.00036403161171493653
-0.3981668756925501,-0.3981668756925501,0.9996180036199684,0.0003543752672498003
-0.3973933111381484,-0.3973933111381484,1.0000517244663993,0.00037992229201136315
-0.39697977600153533,-0.39697977600153533,0.9998809715356177,0.0003581397820424996
-0.3960436216730159,-0.3960436216730159,1.0001020449868565,0.0003534957474047188
-0.3953279236826347,-0.3953279236826347,0.9998838565450713,0.0003581165990751954
-0.3947782420844305,-0.3947782420844305,1.0005747696349572,0.00035717483808874123
-0.3937463254085742,-0.3937463254085742,1.0002341047477585,0.00034696947150160656
-0.39325531336653513,-0.39325531336653513,1.0000642098115553,0.0003659142565062385
-0.3922488216398051,-0.3922488216398051,1.0006917125909,0.00034662507639158564
-0.3915361371240579,-0.3915361371240579,1.0001518573712158,0.00036056385034009163
-0.3911189227423165,-0.3911189227423165,0.9998048790669332,0.0003529852827384898
-0.39022187018126714,-0.39022187018126714,0.9999569417281797,0.00035255840780782277
-0.3896355237142416,-0.3896355237142416,0.9998880723004598,0.00035558909917823356
-0.3894094388466328,-0.3894094388466328,0.9995917247753052,0.00035960892424968593
-0.38873770423815585,-0.38873770423815585,0.9993332703965212,0.00034902146926424127
-0.3879934549506288,-0.3879934549506288,1.0001811198390587,0.0003476666550663463
-0.38759373662178404,-0.38759373662178404,1.0002740980832616,0.00035698914870994816
-0.3871936257230118,-0.3871936257230118,0.9997126159335107,0.0003572196195647437
-0.38629151179629845,-0.38629151179629845,1.0000059901356746,0.0003468845477777464
-0.38569701154192443,-0.38569701154192443,1.0002877606158005,0.00036121011605758194
-0.38508095153956673,-0.38508095153956673,0.9998842296627812,0.00035040871683427507
-0.3842176479724003,-0.3842176479724003,1.0002550879615815,0.00034755452337672285
-0.3835958093899535,-0.3835958093899535,1.0000421530663488,0.00036191298277948105
-0.3828497120790416,-0.3828497120790416,0.9997937896424819,0.00038190760497297966
-0.38204833953932393,-0.38204833953932393,0.9999095805478747,0.00034838566738018653
-0.3815875909815077,-0.3815875909815077,0.9994876767451777,0.00036881519600912883
-0.3807215535576688,-0.3807215535576688,0.9998618439464731,0.00035248423753632977
-0.3800117116683396,-0.3800117116683396,0.9996727056579877,0.00034803436368921817
-0.37919482279685324,-0.37919482279685324,0.9996974831858985,0.0003594448593009356
-0.3784119487041607,-0.3784119487041607,1.0007371524330009,0.00034814409503589814
-0.37766468242043627,-0.37766468242043627,0.9999394652455731,0.00036215980811649416
-0.37692893483617806,-0.37692893483617806,0.9995481804386424,0.0003516786408892641
-0.37626517209864685,-0.37626517209864685,0.9993481728863693,0.00046850548698610447
-0.37561883187736383,-0.37561883187736383,1.0002457386558825,0.0003558308214958113
-0.37503047679783774,-0.37503047679783774,0.9997660669460746,0.0003522056660906701
-0.37453041059779935,-0.37453041059779935,1.0001089363945372,0.0003411138696664651
-0.3739182181452634,-0.3739182181452634,1.0001754828348781,0.00044572716734423356
-0.373277773449081,-0.373277773449081,0.9994641588528012,0.0003679474717200442
-0.37274132556049155,-0.37274132556049155,0.9996285439289825,0.00035778879273269616
-0.37200095610460265,-0.37200095610460265,1.000155109164952,0.0004238179366579018
-0.3713527585932752,-0.3713527585932752,0.9998095371815875,0.00035190863520480353
-0.3708380856522126,-0.3708380856522126,0.9997527373967474,0.0003571459789625358
-0.37008376614539884,-0.37008376614539884,1.0000888767311313,0.00040936372282313554
-0.36942908551718573,-0.36942908551718573,0.9995027227789783,0.00036632242743285304
-0.36886280549515504,-0.36886280549515504,0.9999441119848512,0.000404215811497794
-0.36808244220737835,-0.36808244220737835,1.0001671813581645,0.00034919294362930367
-0.36750490983831696,-0.36750490983831696,1.0001553385882151,0.0003652807131404747
-0.36698923356016167,-0.36698923356016167,0.9995363302268482,0.0003922217236761588
-0.36636926886276344,-0.36636926886276344,1.0000815439447446,0.0003934155761603026
-0.36571843295241707,-0.36571843295241707,0.9997825010278266,0.00037399329171884465
-0.3652878503984539,-0.3652878503984539,0.9997697700776923,0.0004631799105643648
-0.3649469710624544,-0.3649469710624544,1.000083480902115,0.00038234016292851985
-0.36439145065960477,-0.36439145065960477,1.0004606192511478,0.0003903624825728056
-0.36376677340595054,-0.36376677340595054,0.9998366376465263,0.00037331001420727605
-0.3633797274902463,-0.3633797274902463,0.9998225218205263,0.00034807758195199486
-0.36282785848598,-0.36282785848598,0.9996563568942758,0.0003835770983159017
-0.36193504261027554,-0.36193504261027554,1.0002182928019967,0.0003620525352263408
-0.3616341601969907,-0.3616341601969907,0.9993450970605864,0.00034545681125545556
-0.3612621971173212,-0.3612621971173212,1.0001259549628645,0.0003584724684938444
-0.3604995776229771,-0.3604995776229771,0.9996073951012192,0.0003794594311132825
-0.35982736315927466,-0.35982736315927466,0.9999432193650447,0.00035681262495600977
-0.3594146606978029,-0.3594146606978029,1.0001328043296627,0.0003456914924711233
-0.35908108740404715,-0.35908108740404715,1.0000789409376991,0.0003489938628576284
-0.35821963905764276,-0.35821963905764276,1.0000583336558846,0.00038303609320785334
-0.35776228026952595,-0.35776228026952595,0.9998543391136643,0.00035100739075486897
-0.3573839278978994,-0.3573839278978994,1.000072550451796,0.0003513203119336997
-0.35669538731162903,-0.35669538731162903,0.9996254316390131,0.00036972886438780487
-0.3559589677432086,-0.3559589677432086,0.9994572544822861,0.00036249979719517707
-0.3556913347216323,-0.3556913347216323,0.9997665825505262,0.0003436052337913193
-0.3554694827122148,-0.3554694827122148,0.9993977192500061,0.00035707348929042346
-0.3547931343637174,-0.3547931343637174,1.0004545274708956,0.0003670272069262657
-0.3540189654217102,-0.3540189654217102,1.0001768188408948,0.0003564001518714658
-0.3537605475925375,-0.3537605475925375,1.0000236792598847,0.00034311272057082704
-0.3535230748093454,-0.3535230748093454,1.0001689356364074,0.0003756544461732559
-0.35289100381196475,-0.35289100381196475,1.0002762760798534,0.0003642629723954966
-0.35208501695888117,-0.35208501695888117,1.0001358010242312,0.00035480853468293293
-0.35177783158433157,-0.35177783158433157,0.9999477320745086,0.0003490979290719495
-0.351504157128511,-0.351504157128511,1.0003519163519479,0.00035070834864250986
-0.35052244922844694,-0.35052244922844694,0.9999607821917582,0.0003734860396250154
-0.3500763691117754,-0.3500763691117754,1.0001746838078258,0.00034239007949411223
-0.3497016853332752,-0.3497016853332752,0.9997561070069864,0.00036248278403639556
-0.3491627091600094,-0.3491627091600094,0.9998890120018217,0.0003610913223925481
-0.34836439913487993,-0.34836439913487993,1.0003497612727064,0.00035481215824617694
-0.3479998059832724,-0.3479998059832724,1.0002571377878737,0.00035452377956529777
-0.3477043936261907,-0.3477043936261907,1.00012903791419,0.000350529374791271
-0.34671205591002946,-0.34671205591002946,0.9995227034790858,0.0003649020706385515
-0.3462644636660116,-0.3462644636660116,0.9997909370479366,0.00034854989997915346
-0.3458279354585102,-0.3458279354585102,1.0004478059149022,0.0003624737045779529
-0.34516019945731385,-0.34516019945731385,0.9998030782034826,0.00035797690768136147
-0.3443826545990305,-0.3443826545990305,0.9993991212541523,0.00037958488099171163
-0.34390729224542155,-0.34390729224542155,0.9997617415425809,0.00036213113825102783
-0.3432491262268741,-0.3432491262268741,1.0001420264114365,0.00035658382554441185
-0.34252251267898826,-0.34252251267898826,1.0002078625588415,0.00036765916264841063
-0.342053147466504,-0.342053147466504,0.9999240962854887,0.0003491121566376233
-0.341438465702231,-0.341438465702231,0.9998976147745056,0.0003629138372734807
-0.34058118248940444,-0.34058118248940444,0.9999752785159929,0.00035536371903729334
-0.3399083934171358,-0.3399083934171358,0.9998083165124954,0.00035480719168672217
-0.3389079084648984,-0.3389079084648984,1.0003460473666648,0.0003669483548276584
-0.3381857567030238,-0.3381857567030238,1.0000989904628508,0.0003688198389304446
-0.337117061126628,-0.337117061126628,0.9999680694820151,0.0003606443169600451
