time,time,flux,flux_err
-0.4998529424192384,-0.4998529424192384,1.0010128127268847,0.0014089613335401
-0.49961927710198023,-0.49961927710198023,0.9999942756021811,0.0017005534306512395
-0.4994625692003562,-0.4994625692003562,0.9997261364674088,0.0016938101402880286
-0.49925182031438453,-0.49925182031438453,0.999749933611813,0.0016273054291809925
-0.49910455498611556,-0.49910455498611556,1.0005811064426777,0.0015699760282187226
-0.49894558741070794,-0.49894558741070794,1.0010335141156863,0.0013122226132877251
-0.4988360332325101,-0.4988360332325101,1.0021249962876557,0.0018801957156295529
-0.4986992009435198,-0.4986992009435198,1.0007961738092384,0.001257005570985551
-0.49853847266640516,-0.49853847266640516,0.9987152460665513,0.0015899239417666963
-0.4984306131242192,-0.4984306131242192,1.0008768577226275,0.0013199825465491637
-0.49825053787062645,-0.49825053787062645,0.9996621440892156,0.001316303071497999
-0.49811038222542264,-0.49811038222542264,1.0001788288747604,0.001589952471588958
-0.4979375118797179,-0.4979375118797179,0.999340978260786,0.0012483276138047065
-0.4978317397617502,-0.4978317397617502,0.999981444541767,0.001490434650464564
-0.4976262545271311,-0.4976262545271311,1.001965487602456,0.0016046363914368998
-0.4975293175550178,-0.4975293175550178,1.0011824887634004,0.0013769878412679187
-0.4973859401390655,-0.4973859401390655,1.0002142272300696,0.001166707790069539
-0.4972276775646606,-0.4972276775646606,0.9990597333503249,0.0016043105158371866
-0.49704900540818925,-0.49704900540818925,0.9991946726124059,0.0012975846320533886
-0.4969039685325697,-0.4969039685325697,0.9999688350346538,0.001614393933860989
-0.49673750260699306,-0.49673750260699306,1.0009161464114231,0.001131262821874389
-0.49664893552544526,-0.49664893552544526,0.9994028969580236,0.0016216690416075753
-0.4965259268588852,-0.4965259268588852,0.9992880066744803,0.0014296572526548217
-0.49642744201846656,-0.49642744201846656,0.9996910322888184,0.0016393663016436675
-0.49635743486287537,-0.49635743486287537,0.9993451809206316,0.001361281305424859
-0.4962400055315811,-0.4962400055315811,1.0006323381595323,0.0012844801644367157
-0.49610669903922827,-0.49610669903922827,0.9997419305186369,0.0016577409713263587
-0.495980567393417,-0.495980567393417,0.9998649942496357,0.0013102171625148636
-0.4958475965046091,-0.4958475965046091,0.9991340320493745,0.0015204619535871921
-0.49577334754139885,-0.49577334754139885,0.9982663946893384,0.001639360441051952
-0.4956213699682849,-0.4956213699682849,0.9999172646819844,0.0013007020900109123
-0.49550485094368923,-0.49550485094368923,1.000732097050117,0.0017274192774279992
-0.4954283777915407,-0.4954283777915407,1.002152497057831,0.0013348220995381568
-0.4953013068356086,-0.4953013068356086,0.9994137419911446,0.0011306650151310094
-0.49520968870201615,-0.49520968870201615,1.0001696006899006,0.0014456971174608548
-0.49511489522701596,-0.49511489522701596,1.0013126477960186,0.0013213566602298733
-0.494978121353779,-0.494978121353779,0.999137835444437,0.0014042296444267547
-0.4948284559286549,-0.4948284559286549,1.0003408445066255,0.0012689086803884817
-0.49472799627983477,-0.49472799627983477,0.9999728374921599,0.0013563742788305785
-0.49463136673730335,-0.49463136673730335,1.0006830353490346,0.0013698317332603881
-0.4945299276805599,-0.4945299276805599,0.9978696018814894,0.0013456504594718405
-0.49442677189363166,-0.49442677189363166,0.9992909065990705,0.0014039202599362502
-0.4943094778805971,-0.4943094778805971,1.0005884026234766,0.0013315648075821892
-0.49418934840068685,-0.49418934840068685,0.9991099185493922,0.0013540123196985941
-0.4940983339576633,-0.4940983339576633,0.9984776340720343,0.0012992654428431523
-0.4939982238531229,-0.4939982238531229,1.0010313675259108,0.001287808973650569
-0.49384935548441716,-0.49384935548441716,0.9993689271777934,0.0013627906492957797
-0.49369106235390064,-0.49369106235390064,0.9992376640969024,0.0015751922072997037
-0.49357739517145094,-0.49357739517145094,0.99987668060703,0.0012887238276185803
-0.4934110190428328,-0.4934110190428328,0.9992442009098594,0.0013729006258930722
-0.49325042312557343,-0.49325042312557343,0.9990723952365188,0.0015124316864767902
-0.4931361222144915,-0.4931361222144915,1.000754041760048,0.0014416156058762214
-0.49299041591293646,-0.49299041591293646,0.9988839007084991,0.0012758641841024286
-0.49285723364155276,-0.49285723364155276,1.001978859911209,0.00135640296341686
-0.49267386887659087,-0.49267386887659087,1.0013503242980792,0.0013736430367602425
-0.4925838305367506,-0.4925838305367506,0.9989325605852366,0.001418177360470071
-0.4924382018783945,-0.4924382018783945,0.9999834607707839,0.001170461024548306
-0.4922938841744326,-0.4922938841744326,1.0008275509887354,0.0013687773575973667
-0.4921257311361842,-0.4921257311361842,0.9999589081331346,0.0013519138150222187
-0.4920498418796342,-0.4920498418796342,0.9992124792375154,0.0014275250208602808
-0.4918202848653891,-0.4918202848653891,1.0001008743725235,0.0016412378300009172
-0.491572767526668,-0.491572767526668,1.0013093921894296,0.001730234343042588
-0.491286834681523,-0.491286834681523,0.9995214141759678,0.001678217866032829
-0.49101772208960026,-0.49101772208960026,1.0011220444953837,0.0012822098081309468
-0.4908184782791068,-0.4908184782791068,0.9981213768719186,0.0016271627941408001
-0.49066178088542073,-0.49066178088542073,0.9984881559311468,0.0012857957547226218
-0.49044233970780626,-0.49044233970780626,0.9990552768254723,0.0016006311170280174
-0.49028559697326274,-0.49028559697326274,1.00108091693015,0.001792630784360499
-0.4901722198686912,-0.4901722198686912,1.000831291211516,0.0013066078197700815
-0.4900473486748524,-0.4900473486748524,0.9999130945535228,0.001454822743937129
-0.48990185530419694,-0.48990185530419694,1.0009249065374517,0.0016602618032344485
-0.48974925560469273,-0.48974925560469273,1.0022660662388934,0.001467403229143831
-0.4896684355786419,-0.4896684355786419,0.999840786011241,0.0015180778417451404
-0.4895227346147294,-0.4895227346147294,0.9988263515121526,0.0017219856319096254
-0.48931743462599114,-0.48931743462599114,1.0000708991593823,0.002068156438898055
-0.4891548055005842,-0.4891548055005842,1.0012911067752723,0.0015706459815108937
-0.488995177007746,-0.488995177007746,0.9984517283834723,0.0015557538039556672
-0.4888335353927687,-0.4888335353927687,0.9995008369941359,0.001509395709404345
-0.48868477209907724,-0.48868477209907724,1.0007184860075196,0.001205311220922882
-0.4886095828624093,-0.4886095828624093,0.9987343848313396,0.001630219043682625
-0.4884565750064212,-0.4884565750064212,1.000254479634258,0.001710036605591242
-0.48823590114479887,-0.48823590114479887,1.0004549864915178,0.0015491909050706402
-0.48810535538068506,-0.48810535538068506,1.000159460430913,0.0011616422260376682
-0.487890503698145,-0.487890503698145,1.00076398898879,0.0015765601903065004
-0.4877851780373021,-0.4877851780373021,1.0003963529841946,0.0013923597689357722
-0.4876513067123597,-0.4876513067123597,0.9995928357657007,0.0014831980777503665
-0.4873722308373544,-0.4873722308373544,1.0001719332857153,0.0011644765988746573
-0.48727448372374055,-0.48727448372374055,1.0006596948439994,0.0016795265201314299
-0.4871196901469375,-0.4871196901469375,0.9991507459428656,0.0013774388267540183
-0.487040487867489,-0.487040487867489,0.9989093870941522,0.0015050187660438496
-0.4868309231329476,-0.4868309231329476,1.000004989721816,0.0014074021710277708
-0.4867383902936126,-0.4867383902936126,1.0010352424556843,0.0016947615637234689
-0.4865905203274451,-0.4865905203274451,1.000728567886338,0.0016155572304112804
-0.4863770103387651,-0.4863770103387651,1.0001626547055804,0.0012348002744234897
-0.48622346204938366,-0.48622346204938366,1.0005782394505698,0.0015785896852780808
-0.4860501779345213,-0.4860501779345213,1.0002203262262652,0.001645333607384676
-0.48585006349167087,-0.48585006349167087,0.9992718690212022,0.0011523185461016368
-0.485606485545577,-0.485606485545577,1.000865988896841,0.0013483749323047775
-0.4854277814330999,-0.4854277814330999,0.999962495371058,0.0014150944148364824
-0.48516013273911085,-0.48516013273911085,1.0013275940917497,0.0013245472943864023
-0.4850248802424176,-0.4850248802424176,0.9982692208331236,0.0014161474010972916
-0.484760855489003,-0.484760855489003,0.9995904866499391,0.0013406769098446003
-0.48459119804465445,-0.48459119804465445,1.0014150450192003,0.0016378273745834056
-0.4844558621160104,-0.4844558621160104,0.9998131754599271,0.0013588332253912044
-0.4843179284260259,-0.4843179284260259,0.9982033250514201,0.0016834020365642248
-0.4841671294736443,-0.4841671294736443,0.9997890495287821,0.0012774681906774007
-0.4840501648854115,-0.4840501648854115,0.9999587466411708,0.0016021417011793271
-0.48388848580798366,-0.48388848580798366,0.998866320222386,0.001491429930834311
-0.4837924341292819,-0.4837924341292819,0.999282290429028,0.0016404998853695222
-0.48371062028600137,-0.48371062028600137,1.0013164668989125,0.00180948190573593
-0.48358696961804526,-0.48358696961804526,0.9995443564017616,0.0011359191860117826
-0.48346790851355764,-0.48346790851355764,0.9999298342978278,0.0016688483132411569
-0.4833169033823651,-0.4833169033823651,1.0002814350193878,0.001746727819243507
-0.48322526764823126,-0.48322526764823126,0.9994828415143452,0.0015209500719955947
-0.4831004900523112,-0.4831004900523112,0.998735930625789,0.001551526219431457
-0.4829736056504771,-0.4829736056504771,1.0001277762974756,0.001536123153163265
-0.4828275546562509,-0.4828275546562509,1.0015417318946027,0.001336184370437193
-0.4827296118150116,-0.4827296118150116,0.9988985508904673,0.001652904468695314
-0.48259298344346463,-0.48259298344346463,0.9988525329407105,0.001561367794897999
-0.4824285899405368,-0.4824285899405368,0.9996400964597527,0.002078150814351737
-0.48235569287935504,-0.48235569287935504,0.9996368801739066,0.001264503064608381
-0.48222793257882585,-0.48222793257882585,1.001625756472454,0.0017133087865039292
-0.4820959062577458,-0.4820959062577458,1.0009877721302514,0.0018233930815205583
-0.482001093600411,-0.482001093600411,0.9995348068400005,0.0018661967352386212
-0.4818609924521297,-0.4818609924521297,1.001100990919862,0.0015741858932111798
-0.48173662055050953,-0.48173662055050953,1.0008036482936429,0.0018926533490766242
-0.481624868408835,-0.481624868408835,1.0006089083880592,0.0018825159994733513
-0.48152366230642657,-0.48152366230642657,1.000648822144871,0.0012625668287597495
-0.4814086708240211,-0.4814086708240211,0.9997688066024673,0.0018821638661417953
-0.48132298650452865,-0.48132298650452865,0.9999949507539807,0.0017966613809500217
-0.48116331593482753,-0.48116331593482753,0.9988425571104506,0.0012072995311707938
-0.4810914719608263,-0.4810914719608263,0.9987376402631087,0.001855800446359823
-0.48101118956546995,-0.48101118956546995,0.9998454373395465,0.0018938473021240065
-0.48081498836836545,-0.48081498836836545,0.9989136557697809,0.0018586586522703178
-0.4806838317599613,-0.4806838317599613,0.9993611731159475,0.0015254113849268996
-0.48052063323266336,-0.48052063323266336,0.9997532033133011,0.00157539117937244
-0.48043969053978797,-0.48043969053978797,1.0016015215563248,0.0013042081950243411
-0.4803204532217933,-0.4803204532217933,1.0003527659953124,0.0013058934694703476
-0.4802188351372024,-0.4802188351372024,1.0020470070916008,0.0013603220418052025
-0.48006584648392164,-0.48006584648392164,1.000938725259863,0.0013366906421888127
-0.47994139680376974,-0.47994139680376974,1.0010529816054778,0.0012412495058686229
-0.47981133193388814,-0.47981133193388814,1.0006124946651025,0.0014044638128927023
-0.47971243727661206,-0.47971243727661206,0.9984181502571463,0.0011885665725195785
-0.47955670199007727,-0.47955670199007727,1.001318139690452,0.0013694855048713348
-0.4794730830573826,-0.4794730830573826,1.0005548963750084,0.001443365660511291
-0.4794026447503711,-0.4794026447503711,1.001447888881375,0.0012288981445295105
-0.47927007941761984,-0.47927007941761984,0.9999800954875953,0.0013334895638048882
-0.4791586470528273,-0.4791586470528273,0.999396458542131,0.001300356221329299
-0.4789878063820652,-0.4789878063820652,1.0016917119728912,0.001392105535671055
-0.47891682520275936,-0.47891682520275936,1.0001262820091252,0.0012705513688612512
-0.478811860231508,-0.478811860231508,0.9991672353618808,0.0013083517067049321
-0.47869825453381054,-0.47869825453381054,0.9994075445897929,0.0014230298262469837
-0.4786295107682236,-0.4786295107682236,1.0012307190472645,0.0014337898951341322
-0.4784716713213129,-0.4784716713213129,0.9987325383080335,0.0012070233940473523
-0.4783991196440184,-0.4783991196440184,1.0009337871628623,0.0013943236316324625
-0.4783377455445589,-0.4783377455445589,1.0001784378940235,0.0013480865608809613
-0.47821085227042204,-0.47821085227042204,1.0004154024002987,0.0012373382941646377
-0.47813584645628,-0.47813584645628,1.0010320833027229,0.001340351284154617
-0.4780369055515621,-0.4780369055515621,1.0004948885738656,0.0012601781346718356
-0.47794092195399573,-0.47794092195399573,0.9995898758477415,0.0012646326778413034
-0.47785210115398513,-0.47785210115398513,1.0003921334686945,0.0015337938085327198
-0.47773978708137294,-0.47773978708137294,0.9993566481852889,0.0012666341683488596
-0.4776131341612199,-0.4776131341612199,0.9992246910252636,0.001491552871634791
-0.47753759103652554,-0.47753759103652554,1.0005619883395984,0.0012808722208991067
-0.47742954383575126,-0.47742954383575126,0.9982188546912971,0.001455003580110461
-0.4773258793647983,-0.4773258793647983,1.0003530733849975,0.0015075757620638473
-0.47723028137697837,-0.47723028137697837,1.0010241415489076,0.0014763050610150659
-0.47711436781246447,-0.47711436781246447,0.9995139160914169,0.0012759550670250854
-0.4770062682873686,-0.4770062682873686,0.9994106939546485,0.0013258125898615459
-0.4768503578234231,-0.4768503578234231,1.0025946531205074,0.0016812212046947244
-0.47674032390350474,-0.47674032390350474,0.9992131642973605,0.0013865579727310065
-0.4766477853685501,-0.4766477853685501,1.0001099682020747,0.0013188482622351794
-0.47653663907549343,-0.47653663907549343,0.9995388270701907,0.0014381653767577803
-0.476436288561672,-0.476436288561672,0.9988966720437829,0.0013386515730544118
-0.47630955997738056,-0.47630955997738056,0.9989295631492956,0.001298025518739215
-0.47617093918233877,-0.47617093918233877,1.000823035079891,0.0012896785715090556
-0.476008109319082,-0.476008109319082,1.000242982032041,0.0012957428542852768
-0.47579290028952526,-0.47579290028952526,0.9990792219205588,0.0012319478538276969
-0.4756263990449952,-0.4756263990449952,1.0003052464479754,0.0013515068214682495
-0.4755020118347602,-0.4755020118347602,1.000759603742447,0.0013600383919568336
-0.47534053881536237,-0.47534053881536237,0.9990236110611977,0.0016636025976563614
-0.4752218744193669,-0.4752218744193669,0.9988289774484487,0.0012780631165056704
-0.4750326113135088,-0.4750326113135088,0.9998345043731691,0.0016610790952852044
-0.4748696891765576,-0.4748696891765576,0.9994051531216336,0.0013090009096559786
-0.47467612119653496,-0.47467612119653496,1.0004097023888012,0.001655144856433946
-0.47453014810016614,-0.47453014810016614,1.0005297563971574,0.001650008864408112
-0.47440398440230636,-0.47440398440230636,0.9999194355365842,0.0015878100224458315
-0.47422858931822703,-0.47422858931822703,1.0015191609948402,0.0017767002405550045
-0.4740876388765173,-0.4740876388765173,0.999138668314326,0.001332738256123864
-0.4739822434959933,-0.4739822434959933,0.9990190849700454,0.0015455785913139422
-0.47380334069021046,-0.47380334069021046,1.0006600831738255,0.0016034398270417846
-0.4736727939423872,-0.4736727939423872,0.9997170800833064,0.0014654171845481403
-0.47352195317216683,-0.47352195317216683,1.0010987103756008,0.0012690490257169897
-0.4734394544211682,-0.4734394544211682,1.0010086146714945,0.0018451269011464737
-0.4733033464464825,-0.4733033464464825,0.9985997598565101,0.0013620374106568757
-0.4731684425772983,-0.4731684425772983,0.9996862971538963,0.0015993073064430035
-0.473013406645623,-0.473013406645623,0.9993367546467535,0.0016242583531754988
-0.4728459178862977,-0.4728459178862977,0.9990336065256201,0.001717752013077224
-0.472752095296164,-0.472752095296164,1.0004980466876159,0.0016824306213435755
-0.472577212593751,-0.472577212593751,0.9997133369746873,0.0015559941022872288
-0.47242306037514936,-0.47242306037514936,0.9993547657544444,0.001617484796779041
-0.4723067220082157,-0.4723067220082157,0.9999959257688655,0.0014489550647342685
-0.4722231558160274,-0.4722231558160274,1.00059128461561,0.0016619721169404734
-0.47205337535851866,-0.47205337535851866,1.0004828038027664,0.001664075217010394
-0.4719337162314332,-0.4719337162314332,1.0006790001710621,0.001643909604374038
-0.4718505338169052,-0.4718505338169052,1.0002366079397162,0.0012301157515662506
-0.4717241341553745,-0.4717241341553745,0.9986110066916278,0.0012684025476624276
-0.4716138945703278,-0.4716138945703278,1.0000618486157875,0.0016643460999811442
-0.47143569618347103,-0.47143569618347103,0.999592096013496,0.0013062886988351255
-0.4713859239098383,-0.4713859239098383,0.9995377489771092,0.0016124959029869576
-0.4712652842339594,-0.4712652842339594,1.0002224130701383,0.001188628571667592
-0.47104666569648546,-0.47104666569648546,0.999869076085209,0.001444845697514407
-0.47089464884047627,-0.47089464884047627,1.0015343576423479,0.0013285043767662205
-0.4706853365627467,-0.4706853365627467,0.9999483005946559,0.001356163296416257
-0.47038690912158926,-0.47038690912158926,1.0006651664815833,0.0013633597292088623
-0.4702059558156179,-0.4702059558156179,1.0004950224168918,0.001309832387329466
-0.4700270479734172,-0.4700270479734172,1.0005438190871794,0.0013408072577724404
-0.4698742014021263,-0.4698742014021263,1.0008274669544597,0.001446145282858748
-0.4696961821653531,-0.4696961821653531,1.000275464446076,0.0013848337811860631
-0.4695489946374437,-0.4695489946374437,1.0020925932227374,0.0013447503637180926
-0.46945149882958503,-0.46945149882958503,1.001289197002411,0.0013345589008983204
-0.46925434574659447,-0.46925434574659447,1.0004145017471247,0.0013301086103302293
-0.4691114189889049,-0.4691114189889049,0.9996704134454536,0.0013516140161179348
-0.46898032109456833,-0.46898032109456833,0.9991261622959009,0.0012564756688008833
-0.46872861980082237,-0.46872861980082237,1.0004500640037652,0.00147130323680664
-0.46853616782755125,-0.46853616782755125,1.001818839386607,0.001275544581610572
-0.468285481769999,-0.468285481769999,1.0001068543366667,0.001347796171720894
-0.46807465363381195,-0.46807465363381195,0.9995900067304962,0.0011380266655066414
-0.4678602082058205,-0.4678602082058205,0.9984104309827595,0.0013587721202562996
-0.4676909699526732,-0.4676909699526732,1.0008268757657048,0.0013368850986909503
-0.46748554140795023,-0.46748554140795023,0.9984036824386235,0.0012253423147992636
-0.4673390037598438,-0.4673390037598438,1.0001683664655636,0.0016338362907282566
-0.467190967334318,-0.467190967334318,0.9991963367185364,0.0015659795695583977
-0.4670480228844099,-0.4670480228844099,0.9996098787711046,0.001560266317640204
-0.4669135843025288,-0.4669135843025288,0.9994061253046626,0.0014925414124137095
-0.4667861250505666,-0.4667861250505666,1.000505209167113,0.0013084554273605545
-0.466650757259049,-0.466650757259049,1.001056101332533,0.001968173541748959
-0.46653924545971676,-0.46653924545971676,1.0006254238896368,0.0012566251079912769
-0.4663706542312866,-0.4663706542312866,1.000336983765772,0.0012173288343026553
-0.4662312604283215,-0.4662312604283215,0.9995697593990981,0.0016272330604333676
-0.4660522439211491,-0.4660522439211491,0.9997220413617474,0.0016576965455697209
-0.4658981252432568,-0.4658981252432568,1.0005108701781258,0.0013683243983836284
-0.4657557879516389,-0.4657557879516389,1.0002702430001666,0.0015577223928091553
-0.4656212755377055,-0.4656212755377055,0.9985262569163478,0.001206859194093147
-0.46547716896311614,-0.46547716896311614,0.9987468050762128,0.0014680490837065351
-0.4653629165768507,-0.4653629165768507,1.0010503002213273,0.0016111528653454383
