time,time,flux,flux_err
-0.4994763706854428,-0.4994763706854428,1.000008993815765,0.00014821569677937795
-0.49895898581307846,-0.49895898581307846,1.0001564489526924,0.00014012128800905884
-0.498289446378476,-0.498289446378476,1.00012446165364,0.00013902687999453305
-0.49767899876169397,-0.49767899876169397,0.9998933388518211,0.00014110638873585554
-0.49683246185304597,-0.49683246185304597,1.0000277058960187,0.0001373684101091505
-0.4961781013029395,-0.4961781013029395,1.0000512957017513,0.00014056389486086817
-0.49545106092409696,-0.49545106092409696,0.9999634306526254,0.00014496256405098474
-0.49506694661395156,-0.49506694661395156,1.0000245976800253,0.00014003695534192385
-0.4946090590499807,-0.4946090590499807,0.9999894715548029,0.00014041190712762097
-0.49413741794705857,-0.49413741794705857,1.0001626661756002,0.0001408780781094526
-0.4936538550799014,-0.4936538550799014,1.0000287676691257,0.00013422321851765324
-0.4926491584861651,-0.4926491584861651,1.0002252362506683,0.00014066179775879036
-0.49201412183465437,-0.49201412183465437,1.0001958230083947,0.0001411557318646435
-0.4916053810971789,-0.4916053810971789,1.00009795021127,0.00013999205281963077
-0.4911748980171978,-0.4911748980171978,1.0001423142098491,0.0001384709424777646
-0.4908884159318404,-0.4908884159318404,0.9999973945133018,0.00013337040650430543
-0.490547621215228,-0.490547621215228,0.9998609256897432,0.00014448849486435657
-0.4897433639707742,-0.4897433639707742,1.0002964953296267,0.00012761450369826996
-0.48881914387166037,-0.48881914387166037,0.999929399086397,0.00013711358558291935
-0.4884141531219939,-0.4884141531219939,1.0000885207879375,0.00014179049359582866
-0.4878936960973078,-0.4878936960973078,1.000089255219763,0.00013223123286547895
-0.4873331725015305,-0.4873331725015305,1.0001638440938976,0.00014304231624888381
-0.4868205085629597,-0.4868205085629597,1.0001629198683626,0.0001411380785861662
-0.48581811171025036,-0.48581811171025036,1.0000009725343229,0.00013363007333035677
-0.485207975123194,-0.485207975123194,1.0001301974457966,0.000137393068604358
-0.48453337237006056,-0.48453337237006056,0.9998504391196572,0.0001436199051205668
-0.48410120778135024,-0.48410120778135024,0.9998864331092158,0.0001405463330344291
-0.4834822889562929,-0.4834822889562929,1.0000026064035645,0.00014053983081974898
-0.4830591772304615,-0.4830591772304615,0.9999191273469104,0.00013441087416329861
-0.48220660906517876,-0.48220660906517876,0.9998124808456176,0.00013438524560493181
-0.48133010377641766,-0.48133010377641766,0.9998647298707299,0.0001405772253843073
-0.48075711010606026,-0.48075711010606026,0.9997419484285579,0.00014359733605821817
-0.480385475847288,-0.480385475847288,0.9999820326086557,0.0001388412891775082
-0.4799998912785668,-0.4799998912785668,0.9999641012175129,0.00013773950807800434
-0.47959792910551186,-0.47959792910551186,1.0000059903949472,0.0001422450867116795
-0.4787708914198447,-0.4787708914198447,0.9999149849308406,0.00012807588977920988
-0.47795764736365526,-0.47795764736365526,0.9999033492861841,0.0001416326181482238
-0.477541447270778,-0.477541447270778,1.000369096689441,0.00014243444237090893
-0.477046486036852,-0.477046486036852,1.000056729373735,0.00013223248684451964
-0.4763531039614463,-0.4763531039614463,0.9997808642601639,0.00014331286113915953
-0.4759564620879246,-0.4759564620879246,0.9999632457723076,0.00013666952929722526
-0.4749177270452492,-0.4749177270452492,0.9999993535421424,0.00013497897453813095
-0.4741944258654257,-0.4741944258654257,0.9999743092751544,0.00013734871184021113
-0.4735925576736918,-0.4735925576736918,1.0000711300064822,0.00014350387849514185
-0.47320581415551716,-0.47320581415551716,0.9999349704351873,0.0001404894685240994
-0.47280805111222435,-0.47280805111222435,0.9996930161039993,0.00014050266371412796
-0.4723745021678042,-0.4723745021678042,1.0002077092811006,0.00013834609146096214
-0.4719552744034445,-0.4719552744034445,1.000360854960758,0.00013409503136692963
-0.47065177765034605,-0.47065177765034605,1.0003137371206625,0.0001407838525616453
-0.4699463363562245,-0.4699463363562245,1.0000362056484895,0.00014382339215845245
-0.4695437316811876,-0.4695437316811876,0.9999256319248113,0.00013845515905414415
-0.46915097294549923,-0.46915097294549923,0.9999995160408309,0.0001380631251224362
-0.46882524887041654,-0.46882524887041654,1.0000856503809923,0.00014445829068707468
-0.46794535584340335,-0.46794535584340335,1.000174732927324,0.00012997610856860532
-0.46725911331886893,-0.46725911331886893,1.0000350317538538,0.00013769715686020055
-0.4667529530153843,-0.4667529530153843,1.00026486397087,0.0001429077663031101
-0.46627957254240754,-0.46627957254240754,1.0000119851275602,0.00013616240115448634
-0.4656619918008801,-0.4656619918008801,0.9999704989430228,0.00013918926522021798
-0.4651035741902888,-0.4651035741902888,1.0000651255828044,0.00014116248888629992
-0.4640694265399361,-0.4640694265399361,0.9999595272366377,0.0001350258913883228
-0.4633459673234029,-0.4633459673234029,0.9999288123532732,0.00013733084652795552
-0.46278920735639983,-0.46278920735639983,1.0000237080182086,0.00014765426229598348
-0.4624434184865095,-0.4624434184865095,1.0000609624606926,0.00013610554801079888
-0.4618635916762287,-0.4618635916762287,1.0001531209191994,0.0001405396012272414
-0.4614191884349566,-0.4614191884349566,1.000022473987379,0.00014130029105028692
-0.46087435019726397,-0.46087435019726397,1.0001340437647244,0.00012971026076565386
-0.4597706505475799,-0.4597706505475799,1.0000586075171654,0.0001365272590697647
-0.459035080470494,-0.459035080470494,0.999973796640999,0.0001435842856335462
-0.4585846208559815,-0.4585846208559815,1.0001603568759179,0.0001339399814361492
-0.45821737965452486,-0.45821737965452486,1.000148711705651,0.0001386980422141475
-0.45785622973344287,-0.45785622973344287,0.9999840411224202,0.0001405416589869277
-0.45690825128403956,-0.45690825128403956,0.99988311653155,0.00013264955716455165
-0.45608585177687927,-0.45608585177687927,0.9998373314634448,0.00013699707553235376
-0.45565115607460027,-0.45565115607460027,0.9999257598060117,0.00014247423467599074
-0.45513138131063896,-0.45513138131063896,1.0000649605743261,0.00013523575251768075
-0.45435941066825764,-0.45435941066825764,0.9999892616619597,0.00014557473552992073
-0.4539131859550253,-0.4539131859550253,1.0000358582552349,0.0001335260244151972
-0.45283067274140193,-0.45283067274140193,1.0002008511934293,0.0001376848460398629
-0.45195817383646497,-0.45195817383646497,1.0001193421632848,0.00014472960020858774
-0.4515945027087582,-0.4515945027087582,1.0000091201060184,0.00013612538137548644
-0.45100378334173,-0.45100378334173,0.9998920702033212,0.00014059143272877585
-0.4505663454096066,-0.4505663454096066,0.9999836732077909,0.00014128875334805152
-0.4497535754257115,-0.4497535754257115,0.9999420284808114,0.00013386805875137208
-0.4487095489515923,-0.4487095489515923,0.9999808025591683,0.00014036685148331268
-0.4481430504354648,-0.4481430504354648,0.9998889382144442,0.00013998251320321915
-0.44773965887143274,-0.44773965887143274,0.9998375602511442,0.00013373706006301433
-0.4473589795117732,-0.4473589795117732,0.9999099719049116,0.0001343929691392462
-0.44686226538324264,-0.44686226538324264,1.0001687049983574,0.00014053533592481147
-0.4457285810116446,-0.4457285810116446,1.0002479272793476,0.00013328672948438055
-0.44508290715457405,-0.44508290715457405,0.9999607983380399,0.00014233784935299454
-0.4445681693352526,-0.4445681693352526,1.000034882431169,0.00013632301183393486
-0.44393395602237434,-0.44393395602237434,1.0001010587764336,0.00014370661848284183
-0.44338670393044594,-0.44338670393044594,0.9999635146241523,0.00014121339863013758
-0.4428033929783851,-0.4428033929783851,0.9999620876960573,0.00013494203979871493
-0.4419300304551143,-0.4419300304551143,1.0001584840153277,0.00014053903700929278
-0.4410965598479379,-0.4410965598479379,1.0003497795750722,0.0001447612661298022
-0.44068726093391886,-0.44068726093391886,0.9999821910258586,0.00013630190155309706
-0.4401440006506164,-0.4401440006506164,1.0001683040601341,0.0001406191790021428
-0.43972765606013126,-0.43972765606013126,0.9999655891643361,0.00013438102777113423
-0.43856649869994724,-0.43856649869994724,1.0000647215659575,0.0001322388668301349
-0.437552338745445,-0.437552338745445,0.9997851488736773,0.00014014438016553407
-0.43711330824007744,-0.43711330824007744,0.9999479987779051,0.00013724094849959585
-0.4365965974080609,-0.4365965974080609,1.0000013143916664,0.00013664587025186202
-0.43613972736347933,-0.43613972736347933,1.0002821116462268,0.00014058390263561312
-0.435322705694125,-0.435322705694125,1.0000616961374866,0.00013918440828381001
-0.43438929443946106,-0.43438929443946106,1.0000750625723387,0.0001352927380270183
-0.4339375683513936,-0.4339375683513936,0.9998965632240873,0.0001440089075610908
-0.4333360087854089,-0.4333360087854089,0.9998381099360529,0.00013938388460881787
-0.43260215991176665,-0.43260215991176665,1.000107859368246,0.00014142175167579097
-0.4320427451806609,-0.4320427451806609,1.0000028360645534,0.00013645751703298854
-0.431076755860704,-0.431076755860704,1.0000797793069474,0.00014058286308506033
-0.4303015933226561,-0.4303015933226561,0.9999267165855803,0.0001412740559741098
-0.4299397920141928,-0.4299397920141928,0.9998838286904416,0.00014007679067480673
-0.42943941965640986,-0.42943941965640986,1.0000839651527746,0.00013679246659895614
-0.42905552504817024,-0.42905552504817024,1.0000679899126204,0.00013678357940929297
-0.4282479065383086,-0.4282479065383086,0.9999455786905653,0.00013428311059225366
-0.4268361342634307,-0.4268361342634307,1.000124907717931,0.00014385751195937808
-0.4262404613487888,-0.4262404613487888,1.0000508113279218,0.00014140081610999227
-0.4257244487089338,-0.4257244487089338,1.0001590562663574,0.00013417130153108335
-0.4253241573343985,-0.4253241573343985,0.999989713838054,0.00014032172760403104
-0.4245291305502178,-0.4245291305502178,0.9999850334736603,0.00013675263284620163
-0.4236418764281552,-0.4236418764281552,1.000152637165851,0.00013922901957202
-0.42318774585437496,-0.42318774585437496,0.9999632810304011,0.00014025872315626494
-0.42270046788326,-0.42270046788326,1.0000860672717446,0.0001408661430162288
-0.4217822578706546,-0.4217822578706546,0.9999524132494744,0.00014142359880314583
-0.42112271567166315,-0.42112271567166315,1.0000227505829675,0.0001403973490423065
-0.42019148465478795,-0.42019148465478795,0.9999635535047974,0.00014080044018412497
-0.4193130097584799,-0.4193130097584799,1.00011716834386,0.0001434487607198522
-0.4189652809669496,-0.4189652809669496,1.0001410889972924,0.0001363953700669205
-0.41826360885752367,-0.41826360885752367,1.0000018660528522,0.00013689759615639774
-0.4177433062228374,-0.4177433062228374,0.9998329440462925,0.00013426455226062115
-0.4167700336285634,-0.4167700336285634,1.0001612108871654,0.000136148680857031
-0.4159971868270077,-0.4159971868270077,0.9998727966891078,0.00014042886016873803
-0.41554552369925657,-0.41554552369925657,1.0000260002041377,0.00014398673984928045
-0.41502592647448183,-0.41502592647448183,1.0000619238790018,0.00013535205894821246
-0.41468271059566175,-0.41468271059566175,1.000196907710221,0.0001367684453237232
-0.41426631362119226,-0.41426631362119226,1.0001466535121364,0.00014053406764828237
-0.4132433116727043,-0.4132433116727043,1.0001909860785947,0.00013738059675275668
-0.41259056505805347,-0.41259056505805347,1.000198214430187,0.00013816890663193292
-0.4121280412888154,-0.4121280412888154,0.9999364979760674,0.0001401983587660284
-0.4111316039692611,-0.4111316039692611,1.0001115737070054,0.0001416824182334543
-0.4104800725734094,-0.4104800725734094,0.9998351458686283,0.0001402317455018001
-0.4094907238759333,-0.4094907238759333,0.9999859335729211,0.0001363517423736233
-0.4086820952827111,-0.4086820952827111,1.000168859942677,0.00014452812666641482
-0.408274379192153,-0.408274379192153,1.000089419389763,0.0001440829371090069
-0.4077464620670071,-0.4077464620670071,1.0000288344572832,0.00013218213468350182
-0.4072784833348123,-0.4072784833348123,1.0000754922379471,0.0001370115770362394
-0.406804271688452,-0.406804271688452,1.000106209625082,0.0001345028788742969
-0.40606552974204535,-0.40606552974204535,1.0000183626101342,0.0001364056521550295
-0.4052259098272771,-0.4052259098272771,1.0001279984076283,0.00014034237045371892
-0.40465176687575877,-0.40465176687575877,1.0000379727494175,0.0001444868099610181
-0.40409873019962106,-0.40409873019962106,1.00016867284845,0.0001344714460057201
-0.4037527587584918,-0.4037527587584918,0.9999873126591208,0.00013649189542303743
-0.4032246721966658,-0.4032246721966658,1.0000620259611097,0.00013630207308561206
-0.40224152473383584,-0.40224152473383584,0.9999086370280293,0.00013745962991820924
-0.40158899253001434,-0.40158899253001434,0.9998322605994895,0.00014376769604562695
-0.4011297941440716,-0.4011297941440716,0.9997920665218167,0.00013249424868131958
-0.4001765033346601,-0.4001765033346601,1.000025525636896,0.00014500301009044274
-0.3998142300610198,-0.3998142300610198,0.9998196499572973,0.00014078018472241091
-0.39887651361641474,-0.39887651361641474,1.0001589536807618,0.0001281887826209497
-0.3979966159822652,-0.3979966159822652,0.9999786137262365,0.00014415337906811858
-0.3974704523687251,-0.3974704523687251,1.0002737058637428,0.0001443511676891294
-0.39698011542786843,-0.39698011542786843,1.0001660312518177,0.00013597025790437382
-0.3964295383979334,-0.3964295383979334,0.9999035035959924,0.0001369989049582605
-0.395839521966991,-0.395839521966991,0.9999478056351314,0.00012994129943916816
-0.39452472566918007,-0.39452472566918007,0.9998828418064362,0.00014039758894014432
-0.3938711707654875,-0.3938711707654875,1.0000244385307553,0.0001435705003088879
-0.39343997720570767,-0.39343997720570767,1.0000406177835734,0.00013749947471196848
-0.3929984425456496,-0.3929984425456496,0.9998062760813674,0.0001407341238975867
-0.39265926358057185,-0.39265926358057185,0.9999373406319652,0.00014034446337851298
-0.39165651907969734,-0.39165651907969734,1.0001764518660576,0.0001362829613993045
-0.39120768202119505,-0.39120768202119505,0.9999679171845411,0.0001410326886052914
-0.3906235094618751,-0.3906235094618751,1.0000323889469331,0.00014029151176537505
-0.3898762649449054,-0.3898762649449054,0.9998396534899671,0.00014027069652935937
-0.38908578765986024,-0.38908578765986024,1.00018077601619,0.00014101238162949145
-0.38798151111986956,-0.38798151111986956,0.9998947249493678,0.00013635657305662675
-0.3872698309685802,-0.3872698309685802,1.0000874772111623,0.00014020109941412288
-0.3866726442647632,-0.3866726442647632,0.9998759795328931,0.00014386103466785852
-0.38627367262961343,-0.38627367262961343,1.0000910383239088,0.0001365936282812208
-0.3856573079421651,-0.3856573079421651,0.9999667601984074,0.00013687724688280455
-0.38521648648602425,-0.38521648648602425,0.9998197185556336,0.00013826973078280276
-0.3843128754408099,-0.3843128754408099,1.0001843004301294,0.0001365359162795045
-0.38338470679009334,-0.38338470679009334,1.000131279564899,0.00014016138317136966
-0.38294029393582607,-0.38294029393582607,1.0002032821119964,0.0001479639723610022
-0.38247624690993687,-0.38247624690993687,1.0001328109066403,0.00013347501531852589
-0.3820801940426463,-0.3820801940426463,1.0004710040687024,0.00014058411821149362
-0.38180252179736274,-0.38180252179736274,0.9998520815956322,0.0001403512446400714
-0.3809619241335895,-0.3809619241335895,0.9999437570585629,0.0001328975465134937
-0.3802362771646585,-0.3802362771646585,0.9999692186264844,0.00013690894067517234
-0.37967701648303775,-0.37967701648303775,1.0002104353943657,0.00014041995635416914
-0.3787919736932963,-0.3787919736932963,0.9998878736905146,0.00014423724372209832
-0.378234506942681,-0.378234506942681,1.0000681406934286,0.0001410304548910125
-0.3774064016615739,-0.3774064016615739,1.000134812617658,0.00013630057614597127
-0.3762032525381073,-0.3762032525381073,1.0001036417096816,0.00014805121991516392
-0.37569206609914546,-0.37569206609914546,1.0000303370408232,0.00014408681113040032
-0.3751150721189333,-0.3751150721189333,0.9999346515450671,0.00013190067717980033
-0.37464375104173087,-0.37464375104173087,0.9997457901552131,0.00013906150339284802
-0.37381096030876504,-0.37381096030876504,1.0000415113689283,0.0001368559700340374
-0.37280282616266047,-0.37280282616266047,1.0000411794393023,0.0001402021961002174
-0.3721501453313977,-0.3721501453313977,1.000079177181168,0.00014360929634036175
-0.37174038620432837,-0.37174038620432837,0.9997508681296292,0.00013751193096663098
-0.3712922696460737,-0.3712922696460737,1.0000079705177352,0.00014075752885715325
-0.37094579681870526,-0.37094579681870526,1.0000964977394873,0.00014036239145231148
-0.3702245872991625,-0.3702245872991625,0.9998507754719361,0.00012822647605730195
-0.36940959096536974,-0.36940959096536974,1.0001193181625445,0.00013694075225630992
-0.36891410063253716,-0.36891410063253716,0.9998676197703344,0.00014030698168268564
-0.3682261137815658,-0.3682261137815658,0.9999953291687952,0.0001397138126971196
-0.36751884084951597,-0.36751884084951597,0.9999125861309215,0.0001371017265134712
-0.3670729901321465,-0.3670729901321465,0.9999634881553007,0.00014829762251575927
-0.3660327313904418,-0.3660327313904418,1.0000642626830902,0.0001365895025705699
-0.3650742963160155,-0.3650742963160155,0.9999220885777632,0.00014003356571740916
-0.3647012467990862,-0.3647012467990862,0.9999961458164182,0.00014027054354711607
-0.3640336100477725,-0.3640336100477725,1.0001088462881598,0.00013263605183033359
-0.36354982790944634,-0.36354982790944634,0.9999776912739125,0.0001386147635212472
-0.3626306682475843,-0.3626306682475843,0.9999615965505942,0.00013240715513867943
-0.36180346979235767,-0.36180346979235767,1.0001098789955036,0.00014035425355223897
-0.3612414965755306,-0.3612414965755306,0.9998590961861625,0.00014348426058781856
-0.3608906094945269,-0.3608906094945269,1.0000302853777436,0.00013746839711877595
-0.3604391873959685,-0.3604391873959685,0.9996915996100755,0.00014072243243792967
-0.3600890868867282,-0.3600890868867282,0.9999678189941406,0.00014039096243520342
-0.3592672297469107,-0.3592672297469107,1.0000988105667084,0.00013359778728103984
-0.3585457818582654,-0.3585457818582654,1.0000426626607075,0.00013782555266049338
-0.35804393712314775,-0.35804393712314775,1.0002252136369323,0.0001365089067991532
-0.3572603584412718,-0.3572603584412718,0.9999015130179119,0.00013561867528321677
-0.35660101723042315,-0.35660101723042315,1.0000445442684665,0.0001412318719340429
-0.35616120357590264,-0.35616120357590264,1.0000391137132116,0.0001404083018884083
-0.3549562737462111,-0.3549562737462111,1.0000570064553205,0.00013679054440097346
-0.35410178897727745,-0.35410178897727745,0.999870990969951,0.0001435292710469071
-0.3537256716954289,-0.3537256716954289,0.9998985645257331,0.00013660114073232716
-0.3531088538293261,-0.3531088538293261,0.9997853700726008,0.00013701081600674014
-0.35255934450542553,-0.35255934450542553,1.0001356829102428,0.00013479833733117034
-0.3510590458696242,-0.3510590458696242,1.0000141599257981,0.00013652129647168015
-0.35045125217875467,-0.35045125217875467,1.0000414853008253,0.00013559429665615095
-0.3502077360579278,-0.3502077360579278,1.0000708320746134,0.00014532150286680003
-0.34966172573913357,-0.34966172573913357,1.000107212872276,0.00013628751057407962
-0.34923239330819345,-0.34923239330819345,0.9998549385462677,0.00014034474189587114
-0.3484270199463936,-0.3484270199463936,1.0002817034412121,0.000133659973482066
-0.34754687563108744,-0.34754687563108744,1.000211795624074,0.00013995971758716904
-0.3469434612954501,-0.3469434612954501,0.9998111405052436,0.00013638920682446275
-0.3458655968337553,-0.3458655968337553,1.0001734509163762,0.00014099852750367007
-0.34549202262423934,-0.34549202262423934,0.9999790023176967,0.0001441719791571805
-0.34447564083966425,-0.34447564083966425,1.00017202583877,0.00013663878477302647
-0.3436719887744403,-0.3436719887744403,0.9999805766187327,0.00014017212803156288
