time,time,flux,flux_err
-0.49992534784663195,-0.49992534784663195,0.9998866603715769,9.8498210436597e-05
-0.4998227608424107,-0.4998227608424107,0.9999631449775882,9.792913632242774e-05
-0.49974414499107905,-0.49974414499107905,1.0000255939604508,9.799963942747222e-05
-0.499602552370925,-0.499602552370925,0.9997932131369694,9.04805669825801e-05
-0.49947820046363633,-0.49947820046363633,0.9999062986220256,9.020250557554877e-05
-0.49938201465120075,-0.49938201465120075,0.9999938112532616,8.875794843812839e-05
-0.49928792673599676,-0.49928792673599676,1.0000532888075095,8.870585641176706e-05
-0.49926044181338514,-0.49926044181338514,0.9999443209154245,8.820212042700935e-05
-0.49911619806371166,-0.49911619806371166,1.00001604883458,8.996433431730077e-05
-0.4990332934394246,-0.4990332934394246,0.9999903301800517,8.82030420072406e-05
-0.4988971313199727,-0.4988971313199727,0.9999934976052314,8.833613161908975e-05
-0.4987686179840239,-0.4987686179840239,1.0002297648540257,8.835223906131631e-05
-0.498675566392194,-0.498675566392194,1.0002061776640634,8.800892045978358e-05
-0.4984755218232749,-0.4984755218232749,0.9999866500871842,8.84685198898359e-05
-0.4983008269031416,-0.4983008269031416,0.9999388716272503,8.836768634661843e-05
-0.4981244334441726,-0.4981244334441726,1.0001518958508855,8.930218178814329e-05
-0.4979814840247855,-0.4979814840247855,1.000064211522341,8.835676256860371e-05
-0.49784514650527856,-0.49784514650527856,0.9998570111847792,8.831057004714489e-05
-0.4976856139182928,-0.4976856139182928,1.0001353879040074,8.915586980230583e-05
-0.49747876828332666,-0.49747876828332666,0.9999751514686975,8.781245165222708e-05
-0.49725449737306915,-0.49725449737306915,0.99990914015838,8.893043798588545e-05
-0.49712627663393505,-0.49712627663393505,1.0000119294417438,8.862160603251674e-05
-0.4969664304051548,-0.4969664304051548,1.0000760984108188,8.948151919748185e-05
-0.4967700247012544,-0.4967700247012544,0.9999953774556642,9.04928815182906e-05
-0.4966651882030419,-0.4966651882030419,1.0001226053200252,8.886941400887635e-05
-0.4965240260688006,-0.4965240260688006,0.9999918876247571,9.038106462419652e-05
-0.49631129206245533,-0.49631129206245533,0.99989103513308,8.998939872598525e-05
-0.49615808496164393,-0.49615808496164393,1.0000157272706731,8.89301884385023e-05
-0.49607973554666385,-0.49607973554666385,1.000196840521055,8.962624954318601e-05
-0.49599299265391894,-0.49599299265391894,1.000179578992682,8.948026820007519e-05
-0.4958307384775253,-0.4958307384775253,1.0001316225974246,9.08132687386635e-05
-0.4957156132775708,-0.4957156132775708,1.0002181961243581,8.918000927234053e-05
-0.4956367416511057,-0.4956367416511057,0.9999595290234968,8.890485588893565e-05
-0.49551093679474434,-0.49551093679474434,0.9999429796522863,8.933264638350147e-05
-0.49541525674721926,-0.49541525674721926,0.999942646423419,9.018589548631427e-05
-0.4953080134670017,-0.4953080134670017,0.9997523356876148,9.011882129478612e-05
-0.4952199636056321,-0.4952199636056321,1.0000143699436497,8.897502625820046e-05
-0.49507180467480794,-0.49507180467480794,0.9999737167844464,9.009001250283693e-05
-0.4949321627151221,-0.4949321627151221,1.0000006989960486,8.838892840230545e-05
-0.4948854301532265,-0.4948854301532265,1.0001855482056095,8.931219222505186e-05
-0.4948263094309368,-0.4948263094309368,1.0000624862186693,8.885479379883675e-05
-0.49474822760093956,-0.49474822760093956,1.000039347321863,8.887409716449626e-05
-0.49465237736003476,-0.49465237736003476,0.9998895044041534,8.751420318985968e-05
-0.4945522169888136,-0.4945522169888136,1.0001498605493637,8.89839113709348e-05
-0.4944055253959959,-0.4944055253959959,1.0001050971664491,8.899817313924879e-05
-0.4941956877722987,-0.4941956877722987,0.9998791182122542,9.00344679341557e-05
-0.4939406523975777,-0.4939406523975777,0.9999169822170606,8.955927633932072e-05
-0.49373436855967157,-0.49373436855967157,1.0000302664802905,8.84032676682648e-05
-0.4936267076860531,-0.4936267076860531,1.0001128687188579,8.924411826122944e-05
-0.49351561866787963,-0.49351561866787963,0.9998916495877843,8.853619231540622e-05
-0.493424332383438,-0.493424332383438,1.0001347216266594,8.721785335662847e-05
-0.4932449867104879,-0.4932449867104879,1.0002702608522818,8.859580661405974e-05
-0.4930997397459578,-0.4930997397459578,1.00013238501857,8.958675371178739e-05
-0.4930072178947739,-0.4930072178947739,0.999957607680497,8.79414524564616e-05
-0.4929306999998516,-0.4929306999998516,0.9998696066516368,8.856573853132331e-05
-0.4927460706923739,-0.4927460706923739,1.0001063418396907,8.97570897182411e-05
-0.49256679794634695,-0.49256679794634695,1.0000232407074496,8.776564003880391e-05
-0.49247094300808386,-0.49247094300808386,1.0000742602286476,8.828939460421684e-05
-0.4923200315388385,-0.4923200315388385,0.9999075683061331,8.745518393542929e-05
-0.49225634568283566,-0.49225634568283566,1.0000982779810208,8.96122826419875e-05
-0.4921730096655665,-0.4921730096655665,0.9999239137001552,8.875863346360806e-05
-0.49199114726652626,-0.49199114726652626,0.9999906117162352,8.766357084761625e-05
-0.4918532978525036,-0.4918532978525036,0.999971439233887,8.952043289617936e-05
-0.49175124877947385,-0.49175124877947385,1.0001502543277627,9.11732762467474e-05
-0.49162457836791873,-0.49162457836791873,1.000042365591245,8.865946157524278e-05
-0.49150063436536584,-0.49150063436536584,0.9998812265295053,9.025819961373634e-05
-0.49134918771742375,-0.49134918771742375,0.9997714251827479,8.777381713707876e-05
-0.4912658945831936,-0.4912658945831936,1.00007490010571,9.005328658793818e-05
-0.4911817813292146,-0.4911817813292146,1.0000213639295585,8.876239882133907e-05
-0.4911288002083893,-0.4911288002083893,1.0000712124335052,8.906724453137091e-05
-0.4910593786204117,-0.4910593786204117,0.9999415141096633,8.995806371981353e-05
-0.4909348666158621,-0.4909348666158621,1.0001520764668403,9.028047048557624e-05
-0.4908432538839406,-0.4908432538839406,0.9999670449042354,8.926515908224956e-05
-0.49073532659676855,-0.49073532659676855,0.9999242927509148,8.96749236093734e-05
-0.4906457192395465,-0.4906457192395465,1.0000641646557464,8.941886742744184e-05
-0.4905374305380974,-0.4905374305380974,1.0000718905826018,8.879384004641882e-05
-0.4904538878501626,-0.4904538878501626,0.9998605210769356,9.013589450127633e-05
-0.4902925484959269,-0.4902925484959269,1.0001714750101165,8.933324709047619e-05
-0.49017529784177893,-0.49017529784177893,1.0001202954113162,8.809107113601267e-05
-0.4900789721272304,-0.4900789721272304,1.000091989786702,8.837229228734702e-05
-0.48988661144685464,-0.48988661144685464,1.00003850599567,8.710111916998583e-05
-0.4897323844852508,-0.4897323844852508,0.9999208079654588,9.018673756954169e-05
-0.48953607291477963,-0.48953607291477963,1.0001581321386281,8.949834844126994e-05
-0.48933532757801,-0.48933532757801,1.000041230967569,8.746759995311016e-05
-0.489240802002314,-0.489240802002314,1.000086545427208,8.807485030908955e-05
-0.4891629301564535,-0.4891629301564535,1.0000375876449665,8.904012226756925e-05
-0.48904153116454835,-0.48904153116454835,0.9999920548562127,8.906991346331668e-05
-0.48894855785474645,-0.48894855785474645,1.0000915538839592,8.869106161911832e-05
-0.4888077661235002,-0.4888077661235002,0.9999822942193142,8.815616994109517e-05
-0.4886151236249134,-0.4886151236249134,0.9999607638093677,8.992432476261532e-05
-0.48852614928619004,-0.48852614928619004,0.9999117221313083,8.97785984560737e-05
-0.4883924502893933,-0.4883924502893933,0.9999636357515789,8.864451903118763e-05
-0.48809619187086356,-0.48809619187086356,0.999865822064773,8.712950458062571e-05
-0.4879942736908561,-0.4879942736908561,0.9999511299728209,8.82618999582427e-05
-0.48789056351379256,-0.48789056351379256,1.0002008266671087,8.702012058985425e-05
-0.4877729013605858,-0.4877729013605858,0.999870941493549,9.034035685633876e-05
-0.4876724081754219,-0.4876724081754219,1.0000751100215273,8.991799241069061e-05
-0.4875462296811747,-0.4875462296811747,0.9999587754091328,8.675035801958211e-05
-0.48740700718772134,-0.48740700718772134,1.000125851710445,9.018574590494536e-05
-0.48730469114525476,-0.48730469114525476,0.9997266711725272,8.948130743492072e-05
-0.4872333033927134,-0.4872333033927134,1.0000117196588663,8.898832463439728e-05
-0.4870912718630279,-0.4870912718630279,0.9997923998927167,8.796599776241407e-05
-0.4869384836521931,-0.4869384836521931,0.9999511509060192,9.104476385062891e-05
-0.4868037560416269,-0.4868037560416269,1.000034862586016,8.764615716531292e-05
-0.4867462165871984,-0.4867462165871984,1.000005125802216,9.05435041027935e-05
-0.4866726517328061,-0.4866726517328061,1.0001594512517529,8.814744626823745e-05
-0.48659517845371736,-0.48659517845371736,1.0000058100995504,9.057451040516414e-05
-0.4864673555755871,-0.4864673555755871,0.9999707328363009,8.848814405136068e-05
-0.4863327157741878,-0.4863327157741878,0.9999352444844251,9.018854718915722e-05
-0.4862046899914276,-0.4862046899914276,0.9999473740017997,8.87360022814864e-05
-0.4861387172946706,-0.4861387172946706,1.0000015308155852,8.836410562498524e-05
-0.48603557061142055,-0.48603557061142055,0.9999432786899606,8.925399243498979e-05
-0.48593805624113884,-0.48593805624113884,0.9998496650284568,8.889425959137604e-05
-0.48585117770999203,-0.48585117770999203,0.9999587006633766,8.8362844980673e-05
-0.48571770679554904,-0.48571770679554904,1.0001189890160165,8.916035886537307e-05
-0.48549993261694907,-0.48549993261694907,0.9999230459960302,8.708542870462612e-05
-0.485342812493036,-0.485342812493036,1.0001322704144964,8.938215226881932e-05
-0.48521830483950906,-0.48521830483950906,0.9999619142087882,9.024917253674328e-05
-0.4850535748511902,-0.4850535748511902,1.000044397908017,8.84285144336399e-05
-0.48489634667057546,-0.48489634667057546,0.9998960876248667,8.885903406729548e-05
-0.4847690415539546,-0.4847690415539546,0.999996163650658,8.79509987187715e-05
-0.4846345269907033,-0.4846345269907033,0.9999860546629978,8.826248190806249e-05
-0.48455039211548867,-0.48455039211548867,1.0000942716879677,8.958517307873458e-05
-0.4844788305621478,-0.4844788305621478,0.9999247840587568,9.070240196132425e-05
-0.48440723200619684,-0.48440723200619684,0.9999910829606902,8.756013447002681e-05
-0.4841769384540385,-0.4841769384540385,0.9999992947949503,8.904112014197028e-05
-0.48405466837866695,-0.48405466837866695,1.0000761774641622,8.795236783826072e-05
-0.48394186427030944,-0.48394186427030944,1.0000276059313333,8.980971762575692e-05
-0.4836539989555604,-0.4836539989555604,1.000035007581309,8.820810220555761e-05
-0.4835031564653036,-0.4835031564653036,1.0000407068700132,8.818038867517055e-05
-0.4834064591806964,-0.4834064591806964,1.0000158730097262,8.846598773177754e-05
-0.48331275876844304,-0.48331275876844304,0.9998785033098464,9.019995179327539e-05
-0.48309800314018503,-0.48309800314018503,1.0000540461346168,8.93355005051419e-05
-0.4829496899896185,-0.4829496899896185,0.9999088711378962,8.955297152170937e-05
-0.48289308554085436,-0.48289308554085436,1.0001301281392727,9.050505702290764e-05
-0.4827759992345818,-0.4827759992345818,1.000048329218758,9.048608163731383e-05
-0.48265419973758983,-0.48265419973758983,1.0001616070358188,8.99131743534104e-05
-0.482436446029169,-0.482436446029169,1.0000534085436812,8.920484297639196e-05
-0.4823289087114972,-0.4823289087114972,1.0002028789666917,9.166620518890118e-05
-0.4822458651702618,-0.4822458651702618,1.0000215304846063,8.963284583109893e-05
-0.4821698899744661,-0.4821698899744661,1.000111541845362,8.989119719651163e-05
-0.48200914650806226,-0.48200914650806226,1.0000537100111038,8.917890106351871e-05
-0.4818739779875614,-0.4818739779875614,0.9999493868125733,8.884732962435109e-05
-0.48176748606638287,-0.48176748606638287,0.9999954234531196,8.975682221817489e-05
-0.4817007580582867,-0.4817007580582867,1.000055342471395,8.77874335768159e-05
-0.48167541318543955,-0.48167541318543955,1.000034733343974,8.879175111367112e-05
-0.4816033669616445,-0.4816033669616445,1.0001077614599807,8.902504283294076e-05
-0.4815057669839007,-0.4815057669839007,0.9999618658761683,8.925426507100198e-05
-0.48140134479908736,-0.48140134479908736,1.000102220419437,8.746650453791933e-05
-0.4812549901558668,-0.4812549901558668,1.0000633100162943,9.01185792332607e-05
-0.4811528623933555,-0.4811528623933555,1.0000151915577438,8.746455695429689e-05
-0.4809335377052776,-0.4809335377052776,1.000022524839111,8.737679589375166e-05
-0.48074317114951554,-0.48074317114951554,1.0000571645881098,9.074858070613513e-05
-0.48058988803386454,-0.48058988803386454,0.9999393879638534,8.827005921653334e-05
-0.48037661314592695,-0.48037661314592695,1.0001275704176595,8.81213244286678e-05
-0.480281594407279,-0.480281594407279,0.9999704648562913,8.738960957602418e-05
-0.48018242610414746,-0.48018242610414746,0.9998042143880497,8.890623976798663e-05
-0.4799885854779859,-0.4799885854779859,0.9999669747176073,8.957031685940828e-05
-0.47983073571376733,-0.47983073571376733,0.9998911689840005,8.975403778404334e-05
-0.47965738806087754,-0.47965738806087754,0.9999256337693451,9.259465470156782e-05
-0.4794925878813956,-0.4794925878813956,1.0001444953561671,8.960041090221759e-05
-0.4793100318784127,-0.4793100318784127,0.9999331612170694,8.964489505793358e-05
-0.47915774051944027,-0.47915774051944027,0.9999404398814796,8.860090153806527e-05
-0.47901705436088376,-0.47901705436088376,0.9999654098274166,8.77198676715051e-05
-0.478936896698724,-0.478936896698724,1.000009083122908,8.902989659355955e-05
-0.47885714821168224,-0.47885714821168224,0.999992877051526,8.851484836427401e-05
-0.47872117040969897,-0.47872117040969897,1.0000340691412188,8.880230040394996e-05
-0.47862640119856226,-0.47862640119856226,1.0000662786312677,8.841710837278868e-05
-0.47849587422824696,-0.47849587422824696,0.9999176587307776,9.007646624171185e-05
-0.4784062751146848,-0.4784062751146848,1.0001415580702293,9.00596663271552e-05
-0.47821683369838863,-0.47821683369838863,1.0000601319278177,9.039771229091432e-05
-0.4780888774708728,-0.4780888774708728,0.9999086745152146,8.984465488900615e-05
-0.47797693256725327,-0.47797693256725327,1.0000636426210456,8.90585091220472e-05
-0.47786976771312767,-0.47786976771312767,0.999975209277418,8.931227204650224e-05
-0.4777406970184529,-0.4777406970184529,1.0000234008583913,8.928751563878323e-05
-0.4776722667840659,-0.4776722667840659,1.0000108725231072,8.910072183859722e-05
-0.47756098279205617,-0.47756098279205617,1.000036236147799,8.832581843349657e-05
-0.4774701897345949,-0.4774701897345949,0.999961691228728,9.024577834295874e-05
-0.4773334551791777,-0.4773334551791777,0.999995195036352,8.831303093889555e-05
-0.4772598096096772,-0.4772598096096772,1.0000582971340535,8.941473181898159e-05
-0.47717403272690717,-0.47717403272690717,0.9999860932044049,8.845713507633304e-05
-0.47711142524203753,-0.47711142524203753,0.9999331298644648,8.879988608701786e-05
-0.4769861267064698,-0.4769861267064698,0.9998897819089707,8.923684461135447e-05
-0.476931015237642,-0.476931015237642,1.0000294947214166,8.825883219554687e-05
-0.4768490193266189,-0.4768490193266189,0.9999218872214339,8.816023851281937e-05
-0.4766768724861322,-0.4766768724861322,1.0000205991235465,8.946394485385571e-05
-0.47642555560451,-0.47642555560451,1.0001690740936113,8.915378199696316e-05
-0.47626216683274836,-0.47626216683274836,0.9999088055137564,8.873249182594773e-05
-0.4761006472195731,-0.4761006472195731,1.0001363738795879,8.899248405657413e-05
-0.47598175230814377,-0.47598175230814377,1.000114570782155,8.902653050680629e-05
-0.4758764339159825,-0.4758764339159825,0.999875668333908,8.816427586218529e-05
-0.4757311373919947,-0.4757311373919947,0.9999171497123054,8.864555468987926e-05
-0.4755327702849172,-0.4755327702849172,0.9999878425043722,8.918614463446922e-05
-0.47544227999605937,-0.47544227999605937,1.0001305158384528,8.745142278082212e-05
-0.4753897641261574,-0.4753897641261574,0.9998929460507717,8.807465530517344e-05
-0.47528689555765596,-0.47528689555765596,0.9998679140276903,8.856845715137022e-05
-0.4751149356612586,-0.4751149356612586,1.0000901725445153,8.874133470336521e-05
-0.47493806290003704,-0.47493806290003704,1.0000505694166717,8.888738555497594e-05
-0.47480391141725703,-0.47480391141725703,1.0000252169626764,8.730103670007879e-05
-0.47470908373361453,-0.47470908373361453,1.0002744256492868,8.767146939287004e-05
-0.47464590661547845,-0.47464590661547845,1.0001770955281724,8.896239278636026e-05
-0.47450686395022784,-0.47450686395022784,1.000081350907257,8.758251332522867e-05
-0.4743147316694376,-0.4743147316694376,0.9998822987674865,8.876906455255699e-05
-0.47417062440508745,-0.47417062440508745,0.9999504836674978,9.060271675004553e-05
-0.47403891793073855,-0.47403891793073855,0.9999167446142027,9.073455935501348e-05
-0.47395417556981556,-0.47395417556981556,0.9999864794175151,8.833851381735775e-05
-0.47381906292284837,-0.47381906292284837,1.000108442441919,8.973028140582889e-05
-0.473723096807953,-0.473723096807953,1.000175460317448,8.892378103878724e-05
-0.47362921918393114,-0.47362921918393114,0.9998075309028888,8.917383350115089e-05
-0.47353217251074964,-0.47353217251074964,0.9999783288262927,8.8928245727948e-05
-0.4733962359663565,-0.4733962359663565,0.9998581519203888,8.959676476205871e-05
-0.4733260432869429,-0.4733260432869429,1.0002433455783628,8.929474564159827e-05
-0.47324519461544695,-0.47324519461544695,1.0000660690873713,8.921045250337846e-05
-0.47315977527177894,-0.47315977527177894,1.0001527392841958,8.994827166460042e-05
-0.4730841438722564,-0.4730841438722564,0.9997820360156678,8.821342444240573e-05
-0.4729449354694225,-0.4729449354694225,1.0000391153485868,8.909193289378419e-05
-0.4728577782210778,-0.4728577782210778,0.9998708281699935,9.09057833674646e-05
-0.4727698036716902,-0.4727698036716902,0.9999447142059044,9.006794825834437e-05
-0.4726172842521919,-0.4726172842521919,0.9999422551516209,8.832673981168359e-05
-0.47252103991195327,-0.47252103991195327,0.9999605551953186,8.826313607195063e-05
-0.47237258060922616,-0.47237258060922616,1.000004736324639,8.693525435990268e-05
-0.47214740048075327,-0.47214740048075327,0.9999702832190124,8.931816726575787e-05
-0.47192719563900026,-0.47192719563900026,1.0000110607723567,8.797930599223646e-05
-0.4718025631227647,-0.4718025631227647,1.0000507789793036,8.866580574715474e-05
-0.47166195955942386,-0.47166195955942386,1.0000165483767907,8.830903099151208e-05
-0.47154012961109404,-0.47154012961109404,1.0001289714798263,8.890908899494048e-05
-0.4714287376453285,-0.4714287376453285,0.9999791172092181,8.919968883198808e-05
-0.47134350425039884,-0.47134350425039884,1.0000625978898017,8.773634613351157e-05
-0.4712366595762433,-0.4712366595762433,1.00000205315804,8.991236758272464e-05
-0.4710572525422322,-0.4710572525422322,0.9999688547613076,8.922739653437975e-05
-0.4709253356981208,-0.4709253356981208,0.999885220137642,8.891661118079174e-05
-0.4706867423694348,-0.4706867423694348,1.0001252716056501,8.967198871199964e-05
-0.47046482848818416,-0.47046482848818416,1.0000116052113859,8.828507622233264e-05
-0.4703751135326456,-0.4703751135326456,1.0000081499657356,8.805544554321067e-05
-0.47027643617911963,-0.47027643617911963,0.9999919693883426,8.70843699108456e-05
-0.4701538264009287,-0.4701538264009287,0.9998333888500998,9.050575278405601e-05
-0.4700663517214707,-0.4700663517214707,0.9998309886842213,9.07573376249742e-05
-0.4698843703852617,-0.4698843703852617,1.0001165433920172,8.86343635204606e-05
-0.46976090608513915,-0.46976090608513915,1.0000234541812163,8.912567836803684e-05
-0.46966394227347336,-0.46966394227347336,1.0000250274233504,9.0035792505378e-05
-0.46950655508553607,-0.46950655508553607,1.000032528576774,9.013905273207072e-05
-0.4693289353395812,-0.4693289353395812,1.0000157769038351,8.942047813032027e-05
-0.4692070088756736,-0.4692070088756736,0.9999106415662371,8.936464645565552e-05
-0.46915215350163636,-0.46915215350163636,1.000012471667954,8.866023395584715e-05
-0.4690824968274683,-0.4690824968274683,0.9999603430570521,8.813432939778777e-05
