time,time,flux,flux_err
-0.49922410236710374,-0.49922410236710374,0.9999581144782564,0.0005759163145378414
-0.4967476954819479,-0.4967476954819479,0.999771657509819,0.0005758152385152653
-0.4948800685767007,-0.4948800685767007,1.0006069698973212,0.000603044230406338
-0.49355763558414767,-0.49355763558414767,0.9992308054077593,0.0005305541811610986
-0.4919195662980201,-0.4919195662980201,1.000169025830888,0.0005313636768346515
-0.4904845139652025,-0.4904845139652025,1.0002175950913426,0.0005295754412720599
-0.48868637478735766,-0.48868637478735766,1.0002265818034821,0.0005261268714760417
-0.4870260529307416,-0.4870260529307416,1.0016559827089062,0.000526663467711914
-0.4852353379421402,-0.4852353379421402,1.0000624754992462,0.0005579213414608243
-0.48360853411722926,-0.48360853411722926,1.0006604705537505,0.0005259442067004833
-0.482436191875604,-0.482436191875604,0.9999450877503746,0.0005501336498181721
-0.4809253886109218,-0.4809253886109218,0.9997204820448253,0.0005303168010210144
-0.4792762463184772,-0.4792762463184772,1.0000562748929949,0.0005306015123982814
-0.47785748858586885,-0.47785748858586885,1.0004615773611711,0.0005290909008390485
-0.4755862392979907,-0.4755862392979907,1.0001583079235439,0.000526771753841472
-0.4737037594080903,-0.4737037594080903,1.000393356208283,0.0005256145259358383
-0.47190212865534703,-0.47190212865534703,1.0004771920808833,0.0005530535228697232
-0.47049995877896433,-0.47049995877896433,1.0003506687553798,0.0005355323390024286
-0.46915931842231656,-0.46915931842231656,0.9994268282148852,0.0005403968914800708
-0.46794280415051615,-0.46794280415051615,1.0001329481156587,0.0005333946908044582
-0.46624445091001687,-0.46624445091001687,0.999744364288507,0.000526995947785089
-0.4644501967559336,-0.4644501967559336,1.000372948231346,0.0005275276350462561
-0.46200136370607653,-0.46200136370607653,0.9996388292393311,0.0005264927241483073
-0.4605240884673549,-0.4605240884673549,0.9999144801495289,0.0005255048531873139
-0.458989276207285,-0.458989276207285,1.0001808772092078,0.0005498922256181253
-0.457582081653527,-0.457582081653527,0.999907552994231,0.0005342346305363032
-0.4562466877629049,-0.4562466877629049,1.0001166538027113,0.0005378693103571026
-0.4550387746014167,-0.4550387746014167,0.9998612974215166,0.0005324725123013121
-0.4533825815102318,-0.4533825815102318,1.000390941170321,0.0005795387694472892
-0.4519385492108995,-0.4519385492108995,0.9993619717932216,0.0005282574776913472
-0.45000645657710264,-0.45000645657710264,0.9997843873567536,0.0005261664778630494
-0.4480327560304431,-0.4480327560304431,1.0001448599766793,0.000525234576759269
-0.4471590948785888,-0.4471590948785888,1.0001689072344195,0.0005933126469680332
-0.44607265067170376,-0.44607265067170376,1.000003791290713,0.0005513773108945187
-0.4448819260083837,-0.4448819260083837,1.000606050159304,0.0005328461339576404
-0.4435405793657992,-0.4435405793657992,1.0005018349085668,0.0005322506462635045
-0.4421088961273199,-0.4421088961273199,0.9993766652252664,0.0005313054881325305
-0.4401504938228754,-0.4401504938228754,1.0007023638811812,0.0005278070849400085
-0.43859671244572385,-0.43859671244572385,1.0003409521330204,0.0005268658730322102
-0.43712809882417786,-0.43712809882417786,1.0001381186955498,0.0005255249513127708
-0.43535162817861417,-0.43535162817861417,1.0003789139277433,0.0005253095477271671
-0.4340877167909639,-0.4340877167909639,0.9996474741929671,0.0005879621509369533
-0.4328372489690082,-0.4328372489690082,0.9994302939956994,0.0005313830256736874
-0.4315263395081274,-0.4315263395081274,0.9995266700063622,0.0005317882176342996
-0.43005095480475575,-0.43005095480475575,1.000646877478916,0.0005292818665726482
-0.42910352813778446,-0.42910352813778446,0.9999715490901255,0.0005302352632414424
-0.42740675682143775,-0.42740675682143775,0.9999944666453867,0.0005261074453451639
-0.4258702204708243,-0.4258702204708243,0.9996396424964018,0.0005266451360255843
-0.4239086909306934,-0.4239086909306934,0.9997730427318675,0.0005255266597555356
-0.4221784253808437,-0.4221784253808437,1.0000518800147797,0.0005400177925354935
-0.4207276561239269,-0.4207276561239269,1.0002269574421696,0.0005427772681126997
-0.4195497791952221,-0.4195497791952221,1.001438287105754,0.0005307984940008036
-0.4179142767970916,-0.4179142767970916,1.000532250257059,0.0005313653772994283
-0.41647548277978785,-0.41647548277978785,1.0003430283733041,0.0005292815853198392
-0.4146818875160534,-0.4146818875160534,0.9996617038132417,0.0005264038312969939
-0.41306197738449557,-0.41306197738449557,1.0001552957685906,0.0005263666701186602
-0.41164372212369926,-0.41164372212369926,0.9998168047310786,0.0005594909304083723
-0.40984861533215733,-0.40984861533215733,0.9999448438225957,0.000525707565694434
-0.4084305637748912,-0.4084305637748912,1.000093927604555,0.0005512161774463927
-0.4069173898140434,-0.4069173898140434,0.9997705763323672,0.0005302480769703033
-0.4052707945636939,-0.4052707945636939,1.000447164957397,0.0005311958569499872
-0.40400517621601467,-0.40400517621601467,0.9997999429065789,0.0005292127520765377
-0.4021052965865238,-0.4021052965865238,1.0001528371958053,0.0005266028331783375
-0.4000317704572808,-0.4000317704572808,1.0000017761093367,0.0005253872612913408
-0.3982295303634601,-0.3982295303634601,1.000025852450768,0.0005540731267567563
-0.39678205653617626,-0.39678205653617626,1.0000907842130786,0.0005360962657934794
-0.39543718268105293,-0.39543718268105293,1.0002398717900536,0.0005410080012799013
-0.39414563137397635,-0.39414563137397635,1.0006310245662255,0.0005292175353582885
-0.3926280268206028,-0.3926280268206028,1.0004913503974233,0.0005303844660453945
-0.3912219039251795,-0.3912219039251795,1.000123270521553,0.0005286993692866181
-0.3889383875502972,-0.3889383875502972,1.0007364578851863,0.0005268435029023972
-0.3868868966324953,-0.3868868966324953,0.9999298696972614,0.0005256880979099481
-0.38525762993085666,-0.38525762993085666,1.0004154245487915,0.0005506411125486251
-0.3838621834758669,-0.3838621834758669,1.0007776488339342,0.0005347319568815379
-0.3825135147344554,-0.3825135147344554,0.9991203311874146,0.0005384019499087429
-0.3812833813834004,-0.3812833813834004,0.9999065160329248,0.0005323590545253866
-0.37962632286071313,-0.37962632286071313,0.9999546931677561,0.000526670095143464
-0.3779358063533437,-0.3779358063533437,0.999570119001022,0.0005284291003552525
-0.3757763499539578,-0.3757763499539578,1.0001188947229267,0.0005262514490662084
-0.3739625189191429,-0.3739625189191429,1.0001605365768735,0.0005254671920210608
-0.37292522203060796,-0.37292522203060796,0.9998325948235495,0.0005965427814881252
-0.3715229622175684,-0.3715229622175684,1.0006298406124805,0.0005333148432314016
-0.3705045499227708,-0.3705045499227708,0.9994944180164511,0.0005323974597638248
-0.3690633575519314,-0.3690633575519314,0.9996655746827392,0.0005318542934256015
-0.3677393294929061,-0.3677393294929061,1.000210180211265,0.0005293154582737314
-0.3656242490746081,-0.3656242490746081,1.0007288020610239,0.0005287507921232232
-0.36390137238195164,-0.36390137238195164,1.0003968767295996,0.0005256869423416707
-0.3620171806862345,-0.3620171806862345,1.000034960406863,0.0005261000437554331
-0.36061384389759044,-0.36061384389759044,0.9996493157674495,0.0005684776924919151
-0.3593607191374758,-0.3593607191374758,1.0000150469032492,0.0005482136647270447
-0.3580477037874516,-0.3580477037874516,1.000209845372264,0.0005379254053605095
-0.3565978653525235,-0.3565978653525235,0.9997470190613947,0.0005277172598625829
-0.3554814233444631,-0.3554814233444631,1.0006923073593796,0.0005318389867766367
-0.35411407618958035,-0.35411407618958035,1.0007276732290302,0.0005264970554167987
-0.3524557005323004,-0.3524557005323004,0.9998126421360019,0.0005264420148387542
-0.3509232860902557,-0.3509232860902557,1.0002350289710908,0.0005255626648712033
-0.3489173329697223,-0.3489173329697223,0.9996387236554508,0.0005257328752789009
-0.3473119571513962,-0.3473119571513962,1.0001032070560985,0.0005579504985638576
-0.3459134619712131,-0.3459134619712131,1.0002051209886957,0.0005307942175259376
-0.3446990026161075,-0.3446990026161075,1.0005655116694825,0.0005316476728938174
-0.34295518741128034,-0.34295518741128034,1.0004543006866562,0.0005294908941095172
-0.3414813631010475,-0.3414813631010475,1.0005144830056385,0.0005265439112190524
-0.3397939027810935,-0.3397939027810935,1.0000610780554926,0.0005264798813407151
-0.33830943557841237,-0.33830943557841237,0.9996345281288075,0.0005256290705516643
-0.33652739810349885,-0.33652739810349885,0.999138838974806,0.0005615794156609611
-0.3349574401654536,-0.3349574401654536,0.999534973694711,0.0005382932830620237
-0.3335011901479447,-0.3335011901479447,1.0000685524500814,0.0005447080159289644
-0.33207022620772475,-0.33207022620772475,1.0005292162391315,0.0005312258201982534
-0.33031014290172606,-0.33031014290172606,0.9994297837482673,0.0005288525890767103
-0.3286817942978814,-0.3286817942978814,0.9997449003182087,0.0005259830309187929
-0.3263763139984803,-0.3263763139984803,0.9996880319233215,0.0005263101685137816
-0.32457653362944255,-0.32457653362944255,1.0006739754094311,0.0005549868265089527
-0.3229628196189879,-0.3229628196189879,1.0002932740009631,0.0005257052886666186
-0.3217828037508298,-0.3217828037508298,0.9996301924565213,0.0005477586328367163
-0.3202992852166062,-0.3202992852166062,1.000344238873285,0.0005338357188386329
-0.3190189868560992,-0.3190189868560992,0.9990250521013812,0.0005301649678952334
-0.317447806923883,-0.317447806923883,0.9998271388131995,0.0005288528952542027
-0.3154510043852497,-0.3154510043852497,0.9996376202735544,0.000526569221182362
-0.31353504247963426,-0.31353504247963426,1.000187110008135,0.0005255701696102826
-0.3119248352450086,-0.3119248352450086,0.9998463034070373,0.0005512407513445802
-0.31033561378135344,-0.31033561378135344,1.0000015961048763,0.0005255774381060051
-0.30914135070051996,-0.30914135070051996,1.0001400074099451,0.0005443976711510341
-0.30767592884367334,-0.30767592884367334,0.9993915034081657,0.0005323905463306241
-0.3063759210635908,-0.3063759210635908,0.9997349932214086,0.0005296123278145545
-0.3045868416695157,-0.3045868416695157,1.0005945463313366,0.0005281814451695141
-0.30273235483909955,-0.30273235483909955,1.000069191269658,0.0005273330257855036
-0.3004693997063441,-0.3004693997063441,0.9996264267061725,0.000525577428942034
-0.2993178408534732,-0.2993178408534732,0.9989273826014065,0.0005659955775943958
-0.2977913291368168,-0.2977913291368168,1.0005598221996919,0.0005256413000727636
-0.29669183397782034,-0.29669183397782034,1.0009329754498903,0.0005407744103288274
-0.2953494630783098,-0.2953494630783098,1.0001785940188832,0.0005293713743422803
-0.29409201598900836,-0.29409201598900836,1.0000464317104025,0.0005317714773893355
-0.2920062618679367,-0.2920062618679367,1.0005559549439833,0.0005279396460667665
-0.29028005921572914,-0.29028005921572914,1.0002754627892911,0.0005268215298626354
-0.28838694930891506,-0.28838694930891506,0.999753286325648,0.0005255992452485904
-0.28701377488905566,-0.28701377488905566,1.0002050808319904,0.0005253627115988958
-0.2858891944633797,-0.2858891944633797,0.9998635608196651,0.0005919867604776492
-0.28453124171646776,-0.28453124171646776,0.9992034814888602,0.0005321783225142377
-0.2831907729705563,-0.2831907729705563,0.9996769406110252,0.000531889967146898
-0.2818068216292886,-0.2818068216292886,1.0004549618160787,0.0005298248696573372
-0.28064535320154393,-0.28064535320154393,1.0002548207966633,0.0005312897199574315
-0.2786680878140032,-0.2786680878140032,0.9999249252604068,0.0005263736880014494
-0.2769167216232745,-0.2769167216232745,0.9997388903165924,0.0005254472401691209
-0.2749116841732757,-0.2749116841732757,1.000941203732928,0.0005257638274748309
-0.27330919027444905,-0.27330919027444905,1.0000747561200947,0.0005594381684384481
-0.27190508268831765,-0.27190508268831765,0.9997316653188004,0.0005309630256619224
-0.27088132564676926,-0.27088132564676926,0.999766929746835,0.000531663536481585
-0.2692107040144037,-0.2692107040144037,1.0001791822574577,0.0005267747791193576
-0.26784868228423875,-0.26784868228423875,0.9993439551086825,0.0005288835907454848
-0.26608781517425084,-0.26608781517425084,1.0000843563657855,0.000526241002043673
-0.2647703857917804,-0.2647703857917804,1.000190430630313,0.00052555022682488
-0.2626170842529973,-0.2626170842529973,1.0000287727117643,0.0005258323596453309
-0.2609518029552419,-0.2609518029552419,1.0002563535732727,0.0005388476234660517
-0.25949611426040065,-0.25949611426040065,1.000055739439993,0.0005454468905706288
-0.2580614193779184,-0.2580614193779184,1.000214658055167,0.0005313782043775391
-0.25630508273898156,-0.25630508273898156,1.0001059329449524,0.0005292181907521263
-0.2546737135475269,-0.2546737135475269,1.0002305290098419,0.000526024475829954
-0.252369041275233,-0.252369041275233,0.9997664137815698,0.0005264387760177466
-0.25057314830773975,-0.25057314830773975,0.9998299216005471,0.0005558604803289042
-0.2489538149209693,-0.2489538149209693,0.9989027593660964,0.0005258059033945826
-0.24777708870533388,-0.24777708870533388,0.9993668113897247,0.0005486852157409094
-0.24626943668117746,-0.24626943668117746,1.0005450968146559,0.0005300257978943936
-0.24479636937612667,-0.24479636937612667,0.9998351269145239,0.0005323448526883524
-0.24343860185472294,-0.24343860185472294,1.0000782920976374,0.000528779740028653
-0.2414472605800256,-0.2414472605800256,1.0003374460316237,0.0005264021750362152
-0.23952269926667213,-0.23952269926667213,0.9992222246753022,0.0005257203225795896
-0.23792133734677917,-0.23792133734677917,1.0001706301183781,0.0005520331766521782
-0.23632644183235244,-0.23632644183235244,0.9996790549639814,0.0005256081500844194
-0.23513546675967517,-0.23513546675967517,0.9999933293283597,0.0005452213589978085
-0.23366588473727462,-0.23366588473727462,0.9999699010082022,0.0005328483336028183
-0.2323704072070541,-0.2323704072070541,0.9992504549903998,0.0005295407682453471
-0.23057730462751352,-0.23057730462751352,1.0001574911563198,0.000528097079279233
-0.2287303306191461,-0.2287303306191461,1.0000992507067896,0.000527411796304949
-0.2264593642525142,-0.2264593642525142,0.9995666380800776,0.000525474384924939
-0.22508796880429144,-0.22508796880429144,0.9997946167900083,0.000567409019315177
-0.22350578238256275,-0.22350578238256275,0.9996644601388172,0.0005338581620148252
-0.22249066263611894,-0.22249066263611894,0.9992135666791194,0.0005333546724358307
-0.22104296716570387,-0.22104296716570387,0.9992809290506166,0.0005321168660051246
-0.2197279151267139,-0.2197279151267139,0.9992842533122127,0.000529320916930534
-0.21761885112791787,-0.21761885112791787,0.999031225610875,0.0005288551822292626
-0.21588885689270682,-0.21588885689270682,0.9999845752013794,0.000525582363428969
-0.21404279333073645,-0.21404279333073645,1.0004851914021764,0.0005259967409687986
-0.2127875105390558,-0.2127875105390558,1.0002663798041536,0.0005421549923125468
-0.21169732731359545,-0.21169732731359545,0.9988417298657499,0.0005789659494651351
-0.21042512755375356,-0.21042512755375356,0.999905546894223,0.000532388036997247
-0.2091831255936995,-0.2091831255936995,0.99906391414384,0.0005318834993816609
-0.20773085331602487,-0.20773085331602487,1.0000409141345117,0.0005312682469029781
-0.20624269976397044,-0.20624269976397044,0.9994770174360772,0.0005278028753053616
-0.20462128416693304,-0.20462128416693304,0.999597668166851,0.0005278975224309832
-0.2029101952299243,-0.2029101952299243,0.9996742644728336,0.0005254546672563465
-0.20090607510064729,-0.20090607510064729,0.9992928790365478,0.0005254804157859111
-0.19930644576670603,-0.19930644576670603,1.000506014988979,0.0005611798360303265
-0.19789746805618053,-0.19789746805618053,0.9992336616937033,0.0005310620043848127
-0.19687200672924518,-0.19687200672924518,1.0001393575958737,0.000531872148813498
-0.19534043918538374,-0.19534043918538374,0.999856083300207,0.0005274402503556081
-0.1941910148918396,-0.1941910148918396,1.000000600684586,0.0005296666805831246
-0.19236998022824991,-0.19236998022824991,1.0000583062365354,0.0005261812652910512
-0.1911321402527392,-0.1911321402527392,1.0002194962523843,0.0005266141466869005
-0.18898271426733118,-0.18898271426733118,0.9997192642392957,0.0005259912376025749
-0.1872395300626522,-0.1872395300626522,0.9992787220452899,0.0005389649892882222
-0.1858170083083678,-0.1858170083083678,0.9994909280606254,0.0005461125891286663
-0.18467944864241873,-0.18467944864241873,1.0004948677803636,0.0005315355503204219
-0.18287247914995533,-0.18287247914995533,1.0004916438720055,0.0005257783125222515
-0.1815374470723327,-0.1815374470723327,0.9989039600106311,0.0005290790339594325
-0.17956404571596069,-0.17956404571596069,0.9999965712415602,0.0005272562357377333
-0.17766506976622623,-0.17766506976622623,1.000593790196107,0.0005258245752553637
-0.1758758725511143,-0.1758758725511143,1.0006989936634354,0.0005573059278694084
-0.1744669315230567,-0.1744669315230567,1.00002062272977,0.0005371172863049012
-0.1731338028650498,-0.1731338028650498,0.9999927580919371,0.0005429109398809435
-0.17175660196808168,-0.17175660196808168,0.9999741032248473,0.0005306602656790641
-0.1701302088215016,-0.1701302088215016,1.0002131572269068,0.0005271463893009411
-0.16880349883285817,-0.16880349883285817,0.9995964122966876,0.000529524470579997
-0.16657373716880103,-0.16657373716880103,0.9999559922665029,0.0005261341912920173
-0.16485711067507508,-0.16485711067507508,1.0004776869897776,0.0005256119253245274
-0.16323766462446657,-0.16323766462446657,0.9995294052074165,0.0005529515297179736
-0.16183616369962692,-0.16183616369962692,0.9991534128226187,0.0005352829205008431
-0.16049471627920867,-0.16049471627920867,0.9993839228217771,0.0005403274731018928
-0.15927685169153846,-0.15927685169153846,0.9999818021331597,0.0005331140127493391
-0.1575826054060599,-0.1575826054060599,0.9993967056484623,0.0005267112641991657
-0.15592773094249424,-0.15592773094249424,1.00021690408573,0.0005286665368885342
-0.1541119045665255,-0.1541119045665255,1.000010261987089,0.0005262504141676329
-0.15232596445130184,-0.15232596445130184,0.9999297679901759,0.0005253967839232546
-0.1510835706081707,-0.1510835706081707,0.9999074566012105,0.0005687002888521283
-0.14969049456121866,-0.14969049456121866,1.0002919417188771,0.0005257999757072532
-0.1484885735437274,-0.1484885735437274,0.9994847595248608,0.0005426249348433634
-0.14703281874535606,-0.14703281874535606,1.0003680800661328,0.0005322171769020492
-0.14572226467425936,-0.14572226467425936,1.0000836978968428,0.0005293187357030921
-0.1436161894001998,-0.1436161894001998,1.0000581980695025,0.0005289531402357128
-0.14168612096400465,-0.14168612096400465,0.9999718917250181,0.0005260847295378461
-0.13970103080500848,-0.13970103080500848,0.9998115993265572,0.0005255322308614372
-0.13867089255945758,-0.13867089255945758,1.0003747822828593,0.0005627678752054777
-0.13769551290606613,-0.13769551290606613,0.999793430187918,0.0005812570614373378
-0.13641485826519784,-0.13641485826519784,0.9989028531969882,0.0005327788805452477
-0.13517553038545885,-0.13517553038545885,0.9991576935335227,0.000531972503055812
-0.1337262782966718,-0.1337262782966718,1.0008253206520088,0.0005316271422553867
-0.1318370703869732,-0.1318370703869732,1.000030182770424,0.0005265834316696041
-0.13030642156954855,-0.13030642156954855,0.9998642689559185,0.0005276306090812915
-0.12881944187975022,-0.12881944187975022,0.9997567052977152,0.0005253015011683208
-0.12725267133500892,-0.12725267133500892,0.9991604878774295,0.0005257557415956177
-0.1256871937250253,-0.1256871937250253,1.0000987218795487,0.0005671274758578505
-0.12443901702063158,-0.12443901702063158,1.0001827284289728,0.0005526976465751422
-0.12319180357153528,-0.12319180357153528,0.9992819169131252,0.0005317621394000354
-0.12159954022499733,-0.12159954022499733,1.0000458059600725,0.0005275795736312463
-0.1206564522231929,-0.1206564522231929,0.9998733624017181,0.0005315262172498794
