time,time,flux,flux_err
-0.4991065639027511,-0.4991065639027511,0.9999064102674377,7.2887543244866e-05
-0.4984866121849336,-0.4984866121849336,1.0000324527897277,7.287524093963015e-05
-0.49627548220014434,-0.49627548220014434,0.999952813371344,7.289174309252396e-05
-0.49471296787451136,-0.49471296787451136,1.0000086154309709,7.293839252999526e-05
-0.4925763958832249,-0.4925763958832249,1.0001296918494695,7.34952709073283e-05
-0.49174233646772336,-0.49174233646772336,1.00011984041817,7.295077251601414e-05
-0.4908282701369899,-0.4908282701369899,1.0000558961742478,7.298459650950626e-05
-0.4891044061492721,-0.4891044061492721,0.9999550617158656,7.283906050547172e-05
-0.48749236365547405,-0.48749236365547405,1.0000149267660605,7.287897632323355e-05
-0.4859687227821269,-0.4859687227821269,0.9999938204104749,7.285817475357572e-05
-0.483888705886784,-0.483888705886784,0.9999610743881444,7.300539540731549e-05
-0.48119064990532934,-0.48119064990532934,0.9999498817159725,7.37492196386941e-05
-0.4801918567805842,-0.4801918567805842,0.9998796470081327,7.289596557034198e-05
-0.4782660723394656,-0.4782660723394656,1.0002184873156206,7.297763598490235e-05
-0.47627757690715955,-0.47627757690715955,1.0000770821418772,7.28878118856746e-05
-0.4752953227463877,-0.4752953227463877,0.999935931769199,7.299520070625396e-05
-0.4737115081887168,-0.4737115081887168,0.9999335287390846,7.29084686436851e-05
-0.4713903474941617,-0.4713903474941617,1.0000216769771109,7.30298520155313e-05
-0.46974311668454904,-0.46974311668454904,1.0000041764116159,7.400612354895841e-05
-0.46879049822091473,-0.46879049822091473,1.0001317400443364,7.295303665113035e-05
-0.4667363276981632,-0.4667363276981632,1.0000510693095184,7.292091968137435e-05
-0.46504183228753393,-0.46504183228753393,1.0000712472969215,8.059472030693642e-05
-0.4644718452720554,-0.4644718452720554,1.000003524382669,7.289453889344205e-05
-0.46251138238440037,-0.46251138238440037,1.0000794494585823,7.303085576966032e-05
-0.4601755555835553,-0.4601755555835553,0.9999807398392496,7.303003883950274e-05
-0.4585701436451927,-0.4585701436451927,0.9999246659607415,7.555662333435675e-05
-0.4579802394917351,-0.4579802394917351,1.000084263295388,7.285243210687398e-05
-0.4569755576339958,-0.4569755576339958,1.000013062182841,7.298069243281517e-05
-0.4545996228305739,-0.4545996228305739,1.0000511890583428,8.424922061145476e-05
-0.4536020068182552,-0.4536020068182552,1.0002250909136392,7.29115426442934e-05
-0.4528403188138327,-0.4528403188138327,1.0001224451370159,7.312671079541965e-05
-0.45112064549539355,-0.45112064549539355,1.00004129599743,7.291883572186547e-05
-0.4484532138230861,-0.4484532138230861,1.0000707535904831,7.302437473177523e-05
-0.4473486259303172,-0.4473486259303172,1.0000836789065115,7.763661733701521e-05
-0.44653303944141953,-0.44653303944141953,1.0001105859579646,7.289875507154968e-05
-0.4448684992872586,-0.4448684992872586,1.0001120498318645,7.294341958048422e-05
-0.4427521817633533,-0.4427521817633533,1.0001843259650836,8.81506961532444e-05
-0.4423164586281928,-0.4423164586281928,1.0000699023314448,7.287717905114418e-05
-0.4407091286462673,-0.4407091286462673,1.0001858278068172,9.504179253965265e-05
-0.43952310587337706,-0.43952310587337706,0.9999863655655741,7.298708070711356e-05
-0.4365338215335214,-0.4365338215335214,1.0001784330628867,7.793336851815882e-05
-0.43583640711076443,-0.43583640711076443,1.0000859619281495,7.662258120735168e-05
-0.4347680581158784,-0.4347680581158784,0.9999126420356108,7.291117756046959e-05
-0.43209325398056536,-0.43209325398056536,1.0000958668939188,7.286357292896142e-05
-0.43108689664586564,-0.43108689664586564,1.0000867672691178,7.28740337865373e-05
-0.42942126750203896,-0.42942126750203896,1.0000852208067186,9.338596052974715e-05
-0.42740131991013186,-0.42740131991013186,0.9999155211774042,7.295184205697086e-05
-0.4251247588908882,-0.4251247588908882,1.0000155317959867,7.328489177438548e-05
-0.4240945857120096,-0.4240945857120096,0.9999407383192844,7.288698264038315e-05
-0.42222322660672945,-0.42222322660672945,1.00005607448645,7.3422678990757e-05
-0.4204032877642021,-0.4204032877642021,1.0000075007048843,7.289330302154093e-05
-0.41983156155183676,-0.41983156155183676,1.000150739753368,7.287082731304091e-05
-0.4177004433047841,-0.4177004433047841,0.9999118926489896,9.038732155391079e-05
-0.41556577925075544,-0.41556577925075544,0.9999926754177352,7.296421410263037e-05
-0.41367860026366543,-0.41367860026366543,0.9999252413599873,7.327273175302791e-05
-0.41244794085723696,-0.41244794085723696,1.0000020235543814,7.289882633696365e-05
-0.41070189841120736,-0.41070189841120736,1.0001625848258093,9.506956862884149e-05
-0.4089882584456063,-0.4089882584456063,1.0000866831283655,7.28901998754455e-05
-0.4085839312698226,-0.4085839312698226,1.0001102847049492,7.287369888217015e-05
-0.40655570350863857,-0.40655570350863857,1.0001051383693513,8.790270249954721e-05
-0.4058463104287512,-0.4058463104287512,0.9999757628725627,7.293830543125261e-05
-0.4031917672778945,-0.4031917672778945,0.9999985887861597,7.302395875398068e-05
-0.4021026426133176,-0.4021026426133176,1.000102560541222,7.33465646551551e-05
-0.40085372570247274,-0.40085372570247274,1.0001433473051993,7.296928745877386e-05
-0.3984459258717834,-0.3984459258717834,1.0000429444130647,7.286960228423942e-05
-0.39739903605950533,-0.39739903605950533,1.0000965388740544,7.288827970469342e-05
-0.3956308243898093,-0.3956308243898093,1.0000109028507143,7.28516541205434e-05
-0.39418914532288907,-0.39418914532288907,1.000029531060085,7.294374103567704e-05
-0.39162786158412927,-0.39162786158412927,1.0001841518944008,7.343420418869257e-05
-0.3907066341227619,-0.3907066341227619,0.9999465745596066,7.308102434148221e-05
-0.3895287125465984,-0.3895287125465984,0.9999723552006117,7.298664482033411e-05
-0.3879814798914595,-0.3879814798914595,1.0000518942268173,7.284355944465943e-05
-0.3863704585979576,-0.3863704585979576,0.9999718616070783,7.287686609108576e-05
-0.38484547050247786,-0.38484547050247786,1.00012059881597,7.285935318821427e-05
-0.3829749306074518,-0.3829749306074518,1.0001360741305416,7.297645675632711e-05
-0.38023072756113835,-0.38023072756113835,1.0000938174605125,7.37064048902659e-05
-0.3792854873398028,-0.3792854873398028,0.9999847069741652,7.298976167929864e-05
-0.37801082220757964,-0.37801082220757964,1.0000681999649337,7.295344044267321e-05
-0.37533935012543224,-0.37533935012543224,1.0000586062345476,7.28975775434738e-05
-0.3745860102128063,-0.3745860102128063,0.999992480872702,7.292143745367633e-05
-0.3726250854131649,-0.3726250854131649,1.0000597950631467,7.296784378436343e-05
-0.3702688614925137,-0.3702688614925137,0.9999588216050135,7.303439581175618e-05
-0.3686202099575894,-0.3686202099575894,1.0000080077176707,7.404899236875433e-05
-0.3676690095126105,-0.3676690095126105,1.000081337449355,7.295074727041297e-05
-0.3656135430239374,-0.3656135430239374,1.0002162213609864,7.292111991430897e-05
-0.363919602293754,-0.363919602293754,1.0000664341409506,8.093621661320463e-05
-0.3633484430050885,-0.3633484430050885,0.9999413896042512,7.289207444438197e-05
-0.3613895079746726,-0.3613895079746726,1.0000171202231303,7.304465747168137e-05
-0.35905408612961764,-0.35905408612961764,0.9999866125128944,7.302942286917314e-05
-0.35744799285093903,-0.35744799285093903,1.0002228126779875,7.570846027334108e-05
-0.35685743990543417,-0.35685743990543417,1.000140965087571,7.285891764064545e-05
-0.35585306833672803,-0.35585306833672803,1.0001332612248854,7.298216380130103e-05
-0.3534776564745698,-0.3534776564745698,1.0000826134837468,8.463709328422561e-05
-0.3524796026897093,-0.3524796026897093,1.0001851612827903,7.29077398415867e-05
-0.35171753984395765,-0.35171753984395765,1.0001420781731714,7.313598238921953e-05
-0.35000154197550726,-0.35000154197550726,1.0000030244782983,7.298776369717893e-05
-0.34783947404794163,-0.34783947404794163,0.9999646132207565,7.30293597279882e-05
-0.34622647377764226,-0.34622647377764226,0.9999934965353081,7.792690781648465e-05
-0.34541110291902444,-0.34541110291902444,1.0001448029761648,7.290191583099033e-05
-0.34374557439077763,-0.34374557439077763,1.000144952154209,7.294612846339818e-05
-0.3416245901258662,-0.3416245901258662,0.99996906135732,8.858366798440156e-05
-0.341177012163098,-0.341177012163098,1.0000217551269,7.285675905545485e-05
-0.33914092752384023,-0.33914092752384023,0.9999919094106297,9.494479216402409e-05
-0.3379383228544611,-0.3379383228544611,0.9998725731614588,7.30175367477941e-05
-0.33522619750219745,-0.33522619750219745,0.9999976352821038,7.325324354969012e-05
-0.3343953573719773,-0.3343953573719773,1.0000994693606526,7.666122848190369e-05
-0.33268182287210946,-0.33268182287210946,0.9999905622300886,7.288334101895778e-05
-0.3302944931485399,-0.3302944931485399,0.9999279026910586,7.288636948874207e-05
-0.3296129816735629,-0.3296129816735629,1.000099822335454,9.307753371860293e-05
-0.32756124661391367,-0.32756124661391367,0.9999944676185827,7.29308781064583e-05
-0.32507402927440127,-0.32507402927440127,1.000188331395729,7.29864856973641e-05
-0.3236389921657974,-0.3236389921657974,0.9999515125500917,7.319598928873475e-05
-0.32281068487427544,-0.32281068487427544,1.0000242515925468,7.293290638130349e-05
-0.32036142401120743,-0.32036142401120743,1.0000849585187896,7.289057760775998e-05
-0.318922477291926,-0.318922477291926,1.0000660549933404,7.289517484967968e-05
-0.31796279571572084,-0.31796279571572084,0.9999944711903914,9.008076497296924e-05
-0.3163426506420365,-0.3163426506420365,1.0000076266426818,7.293546857724322e-05
-0.31385285982469213,-0.31385285982469213,1.0002527110239363,7.299426015710228e-05
-0.3124235978735669,-0.3124235978735669,1.0000615774270936,7.333857323271766e-05
-0.31120270562241786,-0.31120270562241786,1.00006022846357,7.291195480922743e-05
-0.30891655927844114,-0.30891655927844114,0.9999224505929838,7.28848091246591e-05
-0.3075845238839975,-0.3075845238839975,1.0001504577304832,7.29097165987816e-05
-0.3067264769997564,-0.3067264769997564,1.0000697131849168,8.753183227965366e-05
-0.30522146646035253,-0.30522146646035253,1.0001299748571981,7.292471818969338e-05
-0.3036846445706033,-0.3036846445706033,0.9999968216401915,7.293721474010564e-05
-0.30155515126680255,-0.30155515126680255,1.000080738980099,7.340790761650826e-05
-0.3005977488741337,-0.3005977488741337,1.0000675403183599,7.297780381229357e-05
-0.299060074766021,-0.299060074766021,1.0000624946589363,7.289117557482427e-05
-0.2968648290057899,-0.2968648290057899,0.999911462518401,7.28924305472303e-05
-0.29623980520264015,-0.29623980520264015,0.9999909777871,7.287129115593553e-05
-0.2940301984694088,-0.2940301984694088,0.9999660355515807,7.289867399659628e-05
-0.2924700620591466,-0.2924700620591466,1.0000035737929973,7.294327914660853e-05
-0.29033171863484314,-0.29033171863484314,1.000069560435753,7.352381716076766e-05
-0.28938517404385494,-0.28938517404385494,1.0000596774184347,7.298342707451531e-05
-0.28834705318149645,-0.28834705318149645,0.9999556261339091,7.43959905586333e-05
-0.2864813283602416,-0.2864813283602416,0.9999990820865439,7.285590388134125e-05
-0.28511404276578106,-0.28511404276578106,0.9999797836174906,7.286674033055106e-05
-0.28325084483876706,-0.28325084483876706,0.9999960696436834,7.291137972025027e-05
-0.2812416811393632,-0.2812416811393632,0.9999980981595666,7.292819757809541e-05
-0.27910839991891406,-0.27910839991891406,1.0000771001705235,7.372887385673264e-05
-0.2781633067097573,-0.2781633067097573,1.0000544149118307,7.299197556146682e-05
-0.27688764831400475,-0.27688764831400475,1.0000179132642457,7.295269942685331e-05
-0.2742179973043676,-0.2742179973043676,0.9998090763933976,7.288771925280236e-05
-0.2734626933830441,-0.2734626933830441,1.0000370771917981,7.291535165462532e-05
-0.27150314183891167,-0.27150314183891167,0.9998763779759017,7.2968326456975e-05
-0.2691473768514697,-0.2691473768514697,0.9999875799294975,7.303484759776877e-05
-0.2675473600436817,-0.2675473600436817,1.0002316484249048,7.474341696734197e-05
-0.2667281653128157,-0.2667281653128157,1.0000837304475594,7.290158547045936e-05
-0.26508155079354767,-0.26508155079354767,0.9999561789053146,7.294458019021874e-05
-0.26293636250702546,-0.26293636250702546,0.9998861299769197,8.127310668736662e-05
-0.2625118593867228,-0.2625118593867228,1.0000522750411056,7.28467715097381e-05
-0.2605032826650131,-0.2605032826650131,0.9999687527923451,7.307153127856738e-05
-0.2585661909979535,-0.2585661909979535,1.0000434903405886,7.300912620652e-05
-0.2564501146087423,-0.2564501146087423,1.0000619323419064,7.490380371103557e-05
-0.25585798620522837,-0.25585798620522837,0.9999956550901798,7.388576917965275e-05
-0.2550544461417303,-0.2550544461417303,1.0000383290497008,7.298915788192784e-05
-0.2527793689441751,-0.2527793689441751,1.000067643141714,8.502096785848294e-05
-0.2514572904809029,-0.2514572904809029,0.9999165288873202,7.289555206864334e-05
-0.2509911316687067,-0.2509911316687067,1.0000003599205871,7.290159934340107e-05
-0.24904894293649704,-0.24904894293649704,1.0001213627617176,7.314142049215327e-05
-0.2467391696496634,-0.2467391696496634,1.0002077829706066,9.506957549014655e-05
-0.2452248793502804,-0.2452248793502804,1.000096363714037,7.63770979080357e-05
-0.24449064953441849,-0.24449064953441849,1.0001183296775298,7.488123525967576e-05
-0.24319355608240584,-0.24319355608240584,0.9999878466716521,7.293784275099323e-05
-0.24069419132138137,-0.24069419132138137,1.0001286557942275,8.90134692133018e-05
-0.24007053586828989,-0.24007053586828989,1.0000349129183312,7.287231914091216e-05
-0.23846311529487138,-0.23846311529487138,0.9999025317900404,9.486121563040162e-05
-0.23746132521337132,-0.23746132521337132,0.9999511819835625,7.300040505547866e-05
-0.23427200064325007,-0.23427200064325007,1.0000016928930793,7.318523946901632e-05
-0.23344369393962552,-0.23344369393962552,1.000012445932399,7.701764558136485e-05
-0.23216551529694698,-0.23216551529694698,1.0000698731015083,7.288642916810015e-05
-0.22937046549559453,-0.22937046549559453,1.0001300094990278,7.289522836203199e-05
-0.22881905800386448,-0.22881905800386448,1.0001759410504936,7.286321071198428e-05
-0.22667920031381072,-0.22667920031381072,0.9998679247717781,9.279913543905292e-05
-0.22468780713606976,-0.22468780713606976,0.9998968484111114,7.289026274548133e-05
-0.22288001030538,-0.22288001030538,1.0000076394415838,7.330116197309597e-05
-0.22185077396716224,-0.22185077396716224,0.9999291463254252,7.288359390761605e-05
-0.21982228582564858,-0.21982228582564858,0.9999581342092945,7.290892779637784e-05
-0.2179592478350969,-0.2179592478350969,1.0000428638025993,7.288893370218901e-05
-0.2172557376048644,-0.2172557376048644,1.0001300275115952,8.988539561797952e-05
-0.21536058905621758,-0.21536058905621758,0.9999185032678455,7.288344128680163e-05
-0.21332226668382645,-0.21332226668382645,1.0000041633373258,7.297131325776388e-05
-0.21149744346475927,-0.21149744346475927,0.9999993358127991,7.340944543985623e-05
-0.21047625692808652,-0.21047625692808652,0.9999821604205218,7.290223342052656e-05
-0.20818657364143292,-0.20818657364143292,0.9999871611520401,7.287765624647167e-05
-0.20658197490993188,-0.20658197490993188,0.9999939273202351,7.289362654794727e-05
-0.20560284879538812,-0.20560284879538812,0.9999299502443215,8.718333513288234e-05
-0.2040990455148858,-0.2040990455148858,1.0000461067289215,7.292164288003161e-05
-0.20256318054307484,-0.20256318054307484,1.000055383462078,7.293881201875298e-05
-0.20043280274112477,-0.20043280274112477,1.000004796079655,7.341127494486618e-05
-0.19947557312698336,-0.19947557312698336,0.9999399357758941,7.298028803361888e-05
-0.19754468217215618,-0.19754468217215618,0.9999882713095826,7.284076613758294e-05
-0.1955319272055931,-0.1955319272055931,0.9999900614652762,7.289376372838962e-05
-0.1946868200742756,-0.1946868200742756,0.9999833665231141,7.283360932242426e-05
-0.19278392306441675,-0.19278392306441675,1.0000577518886224,7.29465951774303e-05
-0.19088779079829693,-0.19088779079829693,0.9999831828987122,7.29685295965455e-05
-0.18920938231240142,-0.18920938231240142,1.00004868377755,7.353897901415974e-05
-0.18826298066414893,-0.18826298066414893,1.0000065568576606,7.298273497169163e-05
-0.18695547468887525,-0.18695547468887525,1.0000479928168868,7.293780684716498e-05
-0.18531965025904357,-0.18531965025904357,1.000040425021573,7.28843904143264e-05
-0.18399157354069756,-0.18399157354069756,0.9999500255740837,7.286541414284547e-05
-0.18212826413509903,-0.18212826413509903,1.0000118511463794,7.291435892644843e-05
-0.18049565769615583,-0.18049565769615583,1.000026903608116,7.291287979433327e-05
-0.17798607472068398,-0.17798607472068398,0.9999508335008587,7.375592984149285e-05
-0.17704112635110505,-0.17704112635110505,0.999913321639809,7.299138670477074e-05
-0.17576447686951724,-0.17576447686951724,1.00005045263453,7.296100689862891e-05
-0.1730966461087519,-0.1730966461087519,1.0002047225139472,7.289446743304337e-05
-0.1723393784443033,-0.1723393784443033,1.0001377018470015,7.292478543841882e-05
-0.1703811993553245,-0.1703811993553245,0.9999626108590972,7.297772392536169e-05
-0.16814158933702855,-0.16814158933702855,1.0000648879999847,7.4417341814345e-05
-0.16655289474510937,-0.16655289474510937,1.0000318755241768,7.422026618774435e-05
-0.16580314379534683,-0.16580314379534683,0.9998302665276253,7.353386790965888e-05
-0.16453289200217114,-0.16453289200217114,1.000046112084187,7.29488915418383e-05
-0.16199778908485313,-0.16199778908485313,0.9999550686318346,8.164017613615381e-05
-0.16140190493824774,-0.16140190493824774,1.0001489345159995,7.287372810739964e-05
-0.15983836471350515,-0.15983836471350515,1.0000912832956137,7.303831839442746e-05
-0.15811145458137615,-0.15811145458137615,1.000038792927525,7.301451723555665e-05
-0.15546481068449794,-0.15546481068449794,1.0000820471796448,7.494532099135509e-05
-0.15482940146830515,-0.15482940146830515,1.0000364234091226,7.404351892332516e-05
-0.15421126296569126,-0.15421126296569126,1.000074284706733,7.294648069514885e-05
-0.1521402956896054,-0.1521402956896054,0.9999687651437382,7.291730931397949e-05
-0.15045771574950778,-0.15045771574950778,1.00013784167345,8.54332727513837e-05
-0.1501530861023639,-0.1501530861023639,0.9999287209366452,7.284743319830334e-05
-0.14815785438477178,-0.14815785438477178,1.0000278043256894,7.318471003667733e-05
-0.1462342832208378,-0.1462342832208378,0.9999816944970122,7.301078919124037e-05
-0.14410235967370683,-0.14410235967370683,1.0002147271968131,7.6560939579578e-05
-0.14336894708903855,-0.14336894708903855,1.000094629758099,7.503132616902811e-05
-0.14207045651055522,-0.14207045651055522,0.9999974924688887,7.293738532462257e-05
-0.13945863855842616,-0.13945863855842616,1.000099704083898,7.289430584075052e-05
-0.13893009966704994,-0.13893009966704994,1.0000600304265652,7.286577402479066e-05
-0.13689592825903674,-0.13689592825903674,0.9999376638218971,9.48646090104042e-05
-0.1356959831660788,-0.1356959831660788,0.9999776205422519,7.298527757331178e-05
-0.13298142423518583,-0.13298142423518583,0.9999632602473758,7.326476369328883e-05
-0.13215196740129614,-0.13215196740129614,0.999942823021294,7.719836760855436e-05
-0.1304364566851291,-0.1304364566851291,1.0000376924799497,7.28886749578106e-05
-0.12805171020154377,-0.12805171020154377,0.9999497001718426,7.289060757889135e-05
-0.12736620588038933,-0.12736620588038933,0.9998944241360034,9.241849767472132e-05
-0.12531751841306688,-0.12531751841306688,1.0000574571753162,7.293749433675765e-05
-0.12282978138609905,-0.12282978138609905,0.99996995082846,7.298435975436245e-05
-0.12133826198114547,-0.12133826198114547,0.9999812080765084,7.319992019596313e-05
-0.12024229698290582,-0.12024229698290582,1.000232704823631,8.954655611470463e-05
-0.11811636377969989,-0.11811636377969989,1.0000405157214665,7.2884640005223e-05
-0.11667873797050561,-0.11667873797050561,0.9999415197810894,7.289253941977657e-05
-0.11571552709137904,-0.11571552709137904,1.0000898473578217,8.965035798550663e-05
