time,time,flux,flux_err
-0.49894092026079306,-0.49894092026079306,0.9998940229255738,0.00019530558351887363
-0.4978119067406321,-0.4978119067406321,1.0001510833708214,0.0001833530876025959
-0.49522038411790464,-0.49522038411790464,1.0001159588229482,0.0001832478920077401
-0.4929424539703177,-0.4929424539703177,1.0000179578433865,0.0001713829353814387
-0.49191723502881357,-0.49191723502881357,1.0000692198675203,0.0001673326566864066
-0.48979385616403304,-0.48979385616403304,0.9999722171931765,0.00019290766813935794
-0.48838201725448016,-0.48838201725448016,0.9998799323190543,0.00018691663228439376
-0.4874343132134527,-0.4874343132134527,1.0001322521882445,0.00016925268483697825
-0.48629486196441574,-0.48629486196441574,0.99977378788052,0.00016729578472105339
-0.4846255568307242,-0.4846255568307242,0.9999343483937707,0.00018131005931170302
-0.48274727550597163,-0.48274727550597163,1.0001440058204452,0.00017627896476162495
-0.4813542338437401,-0.4813542338437401,1.0002092174640498,0.0001672945691329105
-0.4787046207813546,-0.4787046207813546,0.999817724274169,0.00020480999865817934
-0.477232461591484,-0.477232461591484,0.999934662493619,0.00017192711749177268
-0.47597678732709026,-0.47597678732709026,0.9998795561034723,0.00016731264769172247
-0.47384274222276873,-0.47384274222276873,1.000124443973068,0.00016854029638437075
-0.4722607557894662,-0.4722607557894662,0.999924805542966,0.0001952315411090399
-0.47138106215861625,-0.47138106215861625,1.0000806943307397,0.00016727842921689584
-0.46983470290142576,-0.46983470290142576,0.9999031683487178,0.00016771551794897893
-0.46789773899217835,-0.46789773899217835,0.999837662767991,0.00018705322543353952
-0.4669093719421653,-0.4669093719421653,0.9999171382691653,0.00018345731866564638
-0.46576697745476847,-0.46576697745476847,1.0001618954074043,0.00016873338418400908
-0.4639717416037456,-0.4639717416037456,0.999716449629641,0.00017034725164872752
-0.4620838295450085,-0.4620838295450085,1.00006072690995,0.00017673786200904335
-0.46139815236092546,-0.46139815236092546,1.0001837844752202,0.00017420699324428388
-0.45903693988511807,-0.45903693988511807,0.9999535093151719,0.00016732200452755655
-0.4565100698877359,-0.4565100698877359,1.000091116613382,0.00017617573398999523
-0.4557625870904303,-0.4557625870904303,1.0000443929452865,0.00016726306252505546
-0.4538349534966983,-0.4538349534966983,0.9999323243063989,0.00016816764979920578
-0.4518456642821548,-0.4518456642821548,0.9997864001912884,0.00016890247469036066
-0.4509252011906938,-0.4509252011906938,1.00002920180353,0.00019306885148178432
-0.44972934531979264,-0.44972934531979264,0.9998811681161721,0.00016729211599117157
-0.4479446022422053,-0.4479446022422053,1.0000401177764289,0.00018414486395983764
-0.44611656390625287,-0.44611656390625287,1.0000680757134615,0.00018049367543914585
-0.44489239276881565,-0.44489239276881565,0.999855493273332,0.00016857965449043104
-0.44236018451629205,-0.44236018451629205,1.000006862596846,0.00017772695897653865
-0.44059742056560935,-0.44059742056560935,0.9998610687071954,0.000173338090697195
-0.43985926744062454,-0.43985926744062454,0.9997929151697547,0.00016733823155607542
-0.43776558210520305,-0.43776558210520305,0.9998431597215143,0.0001690233797455774
-0.43564456035819604,-0.43564456035819604,1.0000945231901095,0.00017179299441588144
-0.43447424964106174,-0.43447424964106174,1.000259553449931,0.00016731565351058107
-0.43272347998426997,-0.43272347998426997,0.9999955927892185,0.00016796221853915294
-0.4309423115380923,-0.4309423115380923,0.9995791845172037,0.000197663651011036
-0.4300131211828557,-0.4300131211828557,1.0000285122180388,0.00019005544405767115
-0.4288945409047301,-0.4288945409047301,0.999900755779761,0.0001672118504649096
-0.42721325745951616,-0.42721325745951616,0.9999327381762683,0.00017138652329134612
-0.42519063855870626,-0.42519063855870626,0.9997230578303237,0.00018996532086250787
-0.42456233478005745,-0.42456233478005745,1.0002558100139265,0.00016737832622958803
-0.4225512106786482,-0.4225512106786482,1.000239947867317,0.00016924771511329353
-0.4205349308918812,-0.4205349308918812,1.0002291822090836,0.00017482230532852956
-0.4192551208208897,-0.4192551208208897,1.000342899011137,0.00017250879094222316
-0.4180636672914261,-0.4180636672914261,0.9999230560528716,0.00016723022099876425
-0.4160058668392594,-0.4160058668392594,0.9998798621471632,0.0001686287747030793
-0.4144121028264635,-0.4144121028264635,0.9997604743636085,0.00019824664443574566
-0.4135306862764992,-0.4135306862764992,1.0000532070395898,0.00016725510865483236
-0.4116130292299204,-0.4116130292299204,0.9999220870733705,0.00016791589078509308
-0.4099772123096045,-0.4099772123096045,0.999829266629783,0.0001901164567207537
-0.40905092524335485,-0.40905092524335485,1.0001310527443992,0.00018567840295287256
-0.40791650435276094,-0.40791650435276094,0.9998561636118583,0.0001689632185826046
-0.40611738524312385,-0.40611738524312385,0.9999238270565334,0.00017081742665646873
-0.4042414858675329,-0.4042414858675329,0.999706320689647,0.0001773781671310898
-0.40353702053689633,-0.40353702053689633,1.0001585072880033,0.00017507279098602572
-0.40123429312661757,-0.40123429312661757,1.0000266168042562,0.0001982754243240229
-0.39894081050442765,-0.39894081050442765,0.9998774566468562,0.00017308734271879325
-0.39804813278024087,-0.39804813278024087,0.9998310448031857,0.00017150012573490892
-0.3960856179110124,-0.3960856179110124,1.0003543835238404,0.00016833268583442358
-0.39424998487520496,-0.39424998487520496,1.000272066876961,0.00016741510468330618
-0.3930671712310868,-0.3930671712310868,1.000141518653844,0.000194121731656896
-0.392145603588142,-0.392145603588142,0.9999750580816438,0.00016730371588089362
-0.3905036568103242,-0.3905036568103242,0.9999913469555496,0.00016776932956307026
-0.3887071984980139,-0.3887071984980139,1.0000590287875213,0.00018663425215590786
-0.3877670661648153,-0.3877670661648153,1.0002350234054793,0.00018267249446009932
-0.38588067881937604,-0.38588067881937604,1.0001968199067965,0.00016991626334833716
-0.3836238585587125,-0.3836238585587125,0.9998955599378293,0.00017644077135071636
-0.38264839377225146,-0.38264839377225146,0.999919336409574,0.0001736781988139425
-0.38131029105134073,-0.38131029105134073,1.000050987282687,0.00016727470827959873
-0.37829700193105964,-0.37829700193105964,1.0000145972487198,0.00017217098461079977
-0.3770194191019982,-0.3770194191019982,1.0001114753884353,0.00017124012529211628
-0.37587252215162154,-0.37587252215162154,0.999970920851003,0.0001672501667020597
-0.3736561275829445,-0.3736561275829445,1.0001254623730582,0.00020068546774938348
-0.3724958819220774,-0.3724958819220774,1.0001254446668668,0.00019105109097093822
-0.37157953394489596,-0.37157953394489596,1.0002994911265768,0.00016998395258266356
-0.3699816589723923,-0.3699816589723923,0.9999589902683977,0.000167570882639159
-0.3675950291988556,-0.3675950291988556,0.9999832409520628,0.00018324805181304648
-0.36648119197343476,-0.36648119197343476,1.000104779094243,0.00017896754821190543
-0.3639059244902455,-0.3639059244902455,1.0001565267840031,0.000169472878136345
-0.3617764390510274,-0.3617764390510274,0.9999461379311952,0.0001807489776396776
-0.3612010830809595,-0.3612010830809595,0.9998027983388461,0.00016732629449135164
-0.3591973173766746,-0.3591973173766746,0.9999041246685605,0.0001672318595591824
-0.3570273163044476,-0.3570273163044476,0.9996365949723742,0.00017318046151393456
-0.3558314926849562,-0.3558314926849562,0.9998640560119151,0.00016732924278940677
-0.35429666962591,-0.35429666962591,1.0002078197391722,0.0001679792621940962
-0.3521936183664366,-0.3521936183664366,0.9997820766783454,0.00019434230104840912
-0.35119719382491893,-0.35119719382491893,1.0000271056690184,0.00018975826758758034
-0.3502642140723765,-0.3502642140723765,0.9997410183477665,0.0001673373458616772
-0.3486446580078336,-0.3486446580078336,1.000103618535781,0.00017121883358902512
-0.3464480561829987,-0.3464480561829987,1.0001164031975782,0.00017923992583548004
-0.3456760837812908,-0.3456760837812908,0.999858121381345,0.00017641319448490276
-0.34336348470824307,-0.34336348470824307,0.9996574520074789,0.00020033126134611222
-0.3411005274101626,-0.3411005274101626,0.9998331277586727,0.00017418969539485644
-0.3401955878711306,-0.3401955878711306,0.9997643913102225,0.0001721258075046284
-0.33821908886602614,-0.33821908886602614,1.0001899593526018,0.00016850576763213798
-0.33624379324755865,-0.33624379324755865,0.9997795148241517,0.0001933111170207485
-0.33499919607129414,-0.33499919607129414,1.0001917741590796,0.00017082896274067205
-0.33398189633735453,-0.33398189633735453,1.0000967991489706,0.00016732215295181093
-0.3318784373914241,-0.3318784373914241,0.9999179314526809,0.0001887680496119645
-0.33042986114451195,-0.33042986114451195,1.0002134189387573,0.00018441657079607072
-0.3294922760251211,-0.3294922760251211,0.9999093283851443,0.00016886295966179123
-0.328012566146208,-0.328012566146208,1.0001606032132098,0.0001704182780294216
-0.3257898176103481,-0.3257898176103481,0.9998436025247146,0.0001771143592110317
-0.3247945193375926,-0.3247945193375926,0.9999896707000108,0.00017457624161446695
-0.3234361746988725,-0.3234361746988725,1.0000924759562053,0.0001672523024863244
-0.3212787786163972,-0.3212787786163972,1.0003044728900838,0.00019665445037790418
-0.31946478407189716,-0.31946478407189716,0.9999706748254464,0.00017654991680890908
-0.31839428767416394,-0.31839428767416394,1.0001278118323196,0.00016732998755264873
-0.3161204848205671,-0.3161204848205671,0.999978345719936,0.0001683379573610018
-0.3145188909722492,-0.3145188909722492,1.0001088847405795,0.00019364827736577148
-0.3136060307180742,-0.3136060307180742,1.00000702064291,0.00016735506921187055
-0.3123611040355172,-0.3123611040355172,0.9998879077232118,0.00016728788358774365
-0.3102525698894169,-0.3102525698894169,1.000193390179984,0.0001850721422757914
-0.3091197372865281,-0.3091197372865281,0.9999992759073244,0.00018126167223756842
-0.30792133432260016,-0.30792133432260016,0.9998372494490843,0.0001685777097506044
-0.3055408253901987,-0.3055408253901987,0.9999005503284207,0.00017803277551292686
-0.3039077156950952,-0.3039077156950952,0.9998767615149973,0.0001736260014834908
-0.3031433963958989,-0.3031433963958989,1.0000086289596954,0.00016730527794194433
-0.3007127176722861,-0.3007127176722861,1.0000142890936032,0.00016919771682990135
-0.2985221836075652,-0.2985221836075652,0.999796594243386,0.0001719320025367027
-0.2973652785090962,-0.2973652785090962,0.9998698275077427,0.00016725313795089527
-0.29551544437854316,-0.29551544437854316,0.9998656081252297,0.00019880025150980198
-0.29389546340389644,-0.29389546340389644,1.0001233788634678,0.0001687051532911786
-0.2929898638787563,-0.2929898638787563,0.9995721093792473,0.00019102406909685658
-0.2917842563969316,-0.2917842563969316,0.999761389104099,0.00016727839584014783
-0.2894802513532341,-0.2894802513532341,1.0002950735004823,0.00018149739399666505
-0.2879951608760166,-0.2879951608760166,1.0000879267077267,0.00017875231659744714
-0.28620993948570683,-0.28620993948570683,0.9999332742233106,0.00016932563642382465
-0.2837557565493626,-0.2837557565493626,0.9999612384977674,0.00017524121692078022
-0.282432288074051,-0.282432288074051,0.999839215261978,0.00017271264113226614
-0.28123244464804886,-0.28123244464804886,0.9998220082266418,0.00016724925336630166
-0.27860775318113157,-0.27860775318113157,0.9998956116306917,0.0001712868465731134
-0.2769944651226979,-0.2769944651226979,1.000346931779047,0.00016740461870780757
-0.2758200640499126,-0.2758200640499126,1.0002746951339774,0.00016724506641284132
-0.27352816898637683,-0.27352816898637683,1.0004362328514633,0.00019248185345075713
-0.27239671012939654,-0.27239671012939654,0.999836039049504,0.00018671728468189355
-0.2714778069552267,-0.2714778069552267,0.9996304575239952,0.00016912647354693004
-0.27014486964180834,-0.27014486964180834,0.9998647202972475,0.0001708324967227771
-0.2679559636104386,-0.2679559636104386,1.000104964356379,0.00017827545612400484
-0.2668228502894635,-0.2668228502894635,1.00021104507204,0.00017559773658922683
-0.26505922065116466,-0.26505922065116466,1.0001305137544465,0.00016723427608548435
-0.2624627808196237,-0.2624627808196237,1.0003470070879301,0.00020447483013530214
-0.261438112767064,-0.261438112767064,1.000111747006005,0.0001718414328464206
-0.2601851941260975,-0.2601851941260975,1.0000563420722532,0.00016728885535172492
-0.258046849918901,-0.258046849918901,1.0002156500856378,0.0001685450935713897
-0.256466171964712,-0.256466171964712,0.9998890565677849,0.00019481676676304376
-0.25558667407312896,-0.25558667407312896,0.9999419749490303,0.0001672789007108795
-0.25404238745977636,-0.25404238745977636,0.9998944572047043,0.00016775020185933728
-0.25210189008066664,-0.25210189008066664,1.0001488352340302,0.00018679713717382183
-0.2511158750174218,-0.2511158750174218,0.9998062921776654,0.0001831872356997151
-0.24997260269155958,-0.24997260269155958,1.000137759995412,0.00016869204716761534
-0.24817780442390358,-0.24817780442390358,0.9998889352941138,0.0001702341950088526
-0.24628854603070066,-0.24628854603070066,0.9999948371802633,0.0001766360235429523
-0.24560495526820886,-0.24560495526820886,1.000079540995034,0.0001740750561244258
-0.24324401899648365,-0.24324401899648365,0.9998143896223116,0.0001672647045624911
-0.2407154507629457,-0.2407154507629457,1.0004316927677581,0.000176148114988542
-0.23996895368181867,-0.23996895368181867,0.9999497207194643,0.0001672658518382642
-0.23804124319722178,-0.23804124319722178,0.9999206784535838,0.00016815512013261213
-0.23605063314025757,-0.23605063314025757,1.000249730943969,0.00016880924312541215
-0.23513165854965337,-0.23513165854965337,1.000018062825396,0.0001929045469320514
-0.2339348155335756,-0.2339348155335756,0.9999655830411177,0.00016727753065278676
-0.23215027898841073,-0.23215027898841073,1.0000044039485925,0.00018384728482187792
-0.230321404854476,-0.230321404854476,1.0001447919803546,0.00018031516191090313
-0.22909880625229562,-0.22909880625229562,1.0000662289906788,0.00016863059273353214
-0.22656503297330347,-0.22656503297330347,1.0000226887661354,0.00017768516875470142
-0.22480405447422527,-0.22480405447422527,0.9998741675063185,0.00017326924730360133
-0.22406523475074208,-0.22406523475074208,0.9999787737162882,0.00016732492040767274
-0.22197332499490585,-0.22197332499490585,1.0003046527585735,0.00016896975241037087
-0.2198490997456247,-0.2198490997456247,0.9999419479455864,0.00017178049133791812
-0.21867976894427557,-0.21867976894427557,1.0001202778103961,0.00016739229260272204
-0.21692984146648087,-0.21692984146648087,1.0002278193393181,0.00016801518018613325
-0.21514692441996885,-0.21514692441996885,1.000196717264163,0.00019727386550012527
-0.2142185935023008,-0.2142185935023008,1.000191257963375,0.0001898121669437026
-0.21310056435904698,-0.21310056435904698,1.0003664231679874,0.00016726077565279803
-0.21141892437008208,-0.21141892437008208,0.9999568117770037,0.00017140950083179877
-0.20939509112067753,-0.20939509112067753,1.0000742610441928,0.00018951844833801703
-0.20853771255206083,-0.20853771255206083,1.0000576161735621,0.00016736658472904362
-0.20637166930100648,-0.20637166930100648,0.9998818861983269,0.0001693073869381409
-0.20428268015239154,-0.20428268015239154,1.0001099532182685,0.00017465647228141176
-0.20337229959986872,-0.20337229959986872,0.9999326234725949,0.0001724169364625961
-0.20182512463943567,-0.20182512463943567,0.9999388186949737,0.00016851905162341787
-0.19981718224007636,-0.19981718224007636,0.9997761401818307,0.0001673865684128389
-0.1983889137103688,-0.1983889137103688,1.0003352373611771,0.00019781235914206164
-0.197461176213983,-0.197461176213983,0.9997750124279154,0.0001672864235965908
-0.19542079740785995,-0.19542079740785995,0.9999167294047986,0.00019024980402344139
-0.19401100623363163,-0.19401100623363163,1.0000789792867728,0.00016839802584719038
-0.19309539003152168,-0.19309539003152168,1.0000819635566045,0.00018597050079031458
-0.19176059464080025,-0.19176059464080025,1.0000754046286922,0.00016723065757994995
-0.18994060004915808,-0.18994060004915808,0.9999410894982595,0.000170856834713581
-0.1882176183135016,-0.1882176183135016,1.000126060935512,0.00018455349840663682
-0.18742908766289473,-0.18742908766289473,0.9997114888062019,0.00016730678922287972
-0.1849423365580151,-0.1849423365580151,0.9999150398164899,0.00019793976869014667
-0.18286710920947372,-0.18286710920947372,1.0004383912679107,0.0001770109452101019
-0.18192848203325412,-0.18192848203325412,1.0004124493087332,0.000167308480837768
-0.1799641329998849,-0.1799641329998849,0.9999330281208968,0.0001683287645071924
-0.1781665916016209,-0.1781665916016209,1.0000806816478676,0.00019140069583961593
-0.1770561708472087,-0.1770561708472087,1.0001461865178976,0.00017036708979181926
-0.17608519072673517,-0.17608519072673517,1.0000734947134533,0.00016731469910760596
-0.17431904396507888,-0.17431904396507888,1.0000300558309327,0.00016767040254074021
-0.17269315237936098,-0.17269315237936098,0.9998161824982772,0.0001989678019369362
-0.17166713566548425,-0.17166713566548425,1.0001764788356908,0.00016875593432547317
-0.16925199069519295,-0.16925199069519295,1.0001461866042163,0.00016993509685985707
-0.1673121597559657,-0.1673121597559657,1.0000387566867228,0.00017627587598366848
-0.16663901090505534,-0.16663901090505534,0.9999074539557986,0.0001737161193850094
-0.16427947820047847,-0.16427947820047847,0.9999171456851634,0.0001672432473603057
-0.1617423765026615,-0.1617423765026615,1.0000043810313906,0.00017595249844009188
-0.16100082828634185,-0.16100082828634185,1.0000101014611928,0.00016726795616796712
-0.15907277161895764,-0.15907277161895764,0.9998629971978719,0.00016808851782333753
-0.1573054958585999,-0.1573054958585999,0.9997513784185458,0.00020077969340651742
-0.15636943060526393,-0.15636943060526393,1.0000308282291823,0.00019198161307857215
-0.155246469611302,-0.155246469611302,0.9999780231075579,0.0001672180833772755
-0.15318789495067903,-0.15318789495067903,0.9998473859414716,0.0001826025847770636
-0.15134563675383106,-0.15134563675383106,0.9999728291045986,0.0001794573504221861
-0.1498158891321509,-0.1498158891321509,1.0001260553349143,0.00016725705968403156
-0.14745827348378954,-0.14745827348378954,0.9998270742162203,0.0001773795975976584
-0.14573674299754202,-0.14573674299754202,1.0003231080194526,0.00017312121516002628
-0.14474263026058906,-0.14474263026058906,1.0001411632213066,0.0001673093017441765
-0.14237664779648185,-0.14237664779648185,1.000028592156934,0.00016729354384843872
-0.14032547672686632,-0.14032547672686632,1.0001297303015648,0.00017147920193892415
-0.13929792311246275,-0.13929792311246275,0.9999552557036487,0.00016732974304786686
-0.1371784304137691,-0.1371784304137691,0.9999697891322359,0.00019433391755093788
-0.13576770860818216,-0.13576770860818216,1.0001404137991152,0.00018764378587173106
-0.13481697073148097,-0.13481697073148097,1.0000748130875021,0.00016939939900886358
-0.1335889388457872,-0.1335889388457872,1.0000280746321912,0.00016729296341892486
-0.13145059153466718,-0.13145059153466718,1.0001293674592715,0.00018262960094110036
-0.13000039725156967,-0.13000039725156967,1.000210004207609,0.00017626446235229795
-0.12822629207657882,-0.12822629207657882,1.0002012094351966,0.0001672846026396195
-0.12564339124655816,-0.12564339124655816,0.9998875069897759,0.00020704068534408167
-0.12461552080494584,-0.12461552080494584,1.0001388312530288,0.00017216495703961863
-0.1233515970321605,-0.1233515970321605,1.0002976968837034,0.0001673085967201134
-0.121230425540125,-0.121230425540125,1.000049453595351,0.00016852039697324732
-0.1198053164218436,-0.1198053164218436,1.000178152492267,0.00019600133888397655
-0.11892472601030021,-0.11892472601030021,0.9998510104224924,0.00016729884150476777
-0.11739830424339744,-0.11739830424339744,1.0001302415132347,0.0001677656645524104
-0.11528528916533105,-0.11528528916533105,1.0000716251313997,0.0001880686273643378
