time,time,flux,flux_err
-0.49991132302360103,-0.49991132302360103,1.000083739997151,6.855675069275114e-05
-0.499821539223376,-0.499821539223376,1.0001353475960106,6.893025927183894e-05
-0.4997378767106966,-0.4997378767106966,1.0000398729583286,6.875649164231795e-05
-0.4996705143663955,-0.4996705143663955,1.0000381140266388,6.924923742068862e-05
-0.4996000692810412,-0.4996000692810412,0.9999576405605538,6.275104807541683e-05
-0.4995369710582963,-0.4995369710582963,0.9999893579421834,6.213891860656491e-05
-0.49938445420921196,-0.49938445420921196,0.9999841618325374,6.225977974686789e-05
-0.49918073855151307,-0.49918073855151307,1.000088669548474,6.31111744606181e-05
-0.49888816423626847,-0.49888816423626847,1.000032072901951,6.271184590273915e-05
-0.49874208826913674,-0.49874208826913674,1.0000813516063887,6.284991793220898e-05
-0.4986312219267347,-0.4986312219267347,1.0000452839497904,6.210688988607193e-05
-0.49841203253708954,-0.49841203253708954,1.0000573369542145,6.304340158701761e-05
-0.4982179988641292,-0.4982179988641292,1.0000766481100178,6.21649745301618e-05
-0.4980108508812918,-0.4980108508812918,0.9999503069299329,6.252084787417678e-05
-0.49789608109931577,-0.49789608109931577,0.9999752737306397,6.236253465661886e-05
-0.4978092843324703,-0.4978092843324703,1.000064433394749,6.261439490082437e-05
-0.49766793065828097,-0.49766793065828097,1.0000457824862192,6.289346841233619e-05
-0.49751870225045425,-0.49751870225045425,1.000010431817714,6.240149967878086e-05
-0.49741155522388,-0.49741155522388,1.000068746713502,6.340102738861469e-05
-0.4973040357152058,-0.4973040357152058,0.999854835255848,6.255557609738162e-05
-0.4972138895314856,-0.4972138895314856,0.9999983347673813,6.300632717499197e-05
-0.4971550471193041,-0.4971550471193041,0.9998441833443981,6.271352429407968e-05
-0.4969645875564311,-0.4969645875564311,1.0000448865516816,6.201683391227555e-05
-0.4968699601391563,-0.4968699601391563,1.0001198088828356,6.23795481304913e-05
-0.49668806390945974,-0.49668806390945974,0.9999968428886927,6.230705248185271e-05
-0.496558395358079,-0.496558395358079,0.9998320460161544,6.337578437623353e-05
-0.496357017333321,-0.496357017333321,0.9998965853667725,6.214923485586927e-05
-0.4960941861754691,-0.4960941861754691,1.0000271753264034,6.259217787714078e-05
-0.49600058888390774,-0.49600058888390774,1.000210343453928,6.335818891964478e-05
-0.49578283723767524,-0.49578283723767524,0.9999059475813088,6.275721777162786e-05
-0.49567570902690933,-0.49567570902690933,1.0000535703572215,6.242885267687317e-05
-0.4955038205302117,-0.4955038205302117,0.99996216586927,6.2298823080228e-05
-0.4953449657350575,-0.4953449657350575,1.0000958435989538,6.32706119770926e-05
-0.49509490664386246,-0.49509490664386246,1.0000770060275315,6.334245397142198e-05
-0.4949508165020234,-0.4949508165020234,1.0001391996518965,6.337391431479516e-05
-0.4948514988192983,-0.4948514988192983,0.9998812187692364,6.238647281558002e-05
-0.494760759165365,-0.494760759165365,0.9999841516481449,6.587831611717341e-05
-0.49462340894315276,-0.49462340894315276,1.0000462679248308,6.266674966715423e-05
-0.49446741899228075,-0.49446741899228075,1.00005612730167,6.216791890417694e-05
-0.4942656379809705,-0.4942656379809705,1.0000104105056333,6.256358821039894e-05
-0.4941705090554024,-0.4941705090554024,0.9999582259425288,6.28846042689017e-05
-0.4939403498941829,-0.4939403498941829,0.9999217111261298,6.295295907118596e-05
-0.4936882043373771,-0.4936882043373771,0.9999840536279091,6.244661524911671e-05
-0.4935185318838194,-0.4935185318838194,1.0000654489884073,6.348276189363297e-05
-0.49332541335716085,-0.49332541335716085,0.9999818480983645,6.266114119921068e-05
-0.4931734664329269,-0.4931734664329269,0.999974553102553,6.380082277106121e-05
-0.49305574715253897,-0.49305574715253897,1.0000808277220699,6.279758889479025e-05
-0.49293229908107605,-0.49293229908107605,0.9998353843632696,6.289192493392663e-05
-0.4927965640301409,-0.4927965640301409,1.000130159000443,6.260976017490594e-05
-0.4926407531624136,-0.4926407531624136,1.0001061862858065,6.315742878964172e-05
-0.4925423088734533,-0.4925423088734533,1.000084006498407,6.301583595116988e-05
-0.49246646906649405,-0.49246646906649405,1.0000001276355603,6.274123304888446e-05
-0.4923874977786909,-0.4923874977786909,0.9999235188398305,6.279461867262666e-05
-0.49231062579092394,-0.49231062579092394,1.0001268505650256,6.348356986372457e-05
-0.492226980241503,-0.492226980241503,0.9999674549835376,6.217179500897343e-05
-0.4921388484694035,-0.4921388484694035,1.000116499843081,6.194239033644136e-05
-0.49199179183706293,-0.49199179183706293,0.9999938455049797,6.437050954347022e-05
-0.4918260276333967,-0.4918260276333967,1.000010248846462,6.360221277938795e-05
-0.49166805665045105,-0.49166805665045105,0.9999740473036767,6.283164496180771e-05
-0.49153018631841405,-0.49153018631841405,0.9999393768885463,6.288786592098091e-05
-0.49137999326594584,-0.49137999326594584,0.9999881129557053,6.226877125253976e-05
-0.49119820212290505,-0.49119820212290505,0.9999712187419281,6.269640972262833e-05
-0.4910130172283971,-0.4910130172283971,0.9999481598303964,6.286319465603937e-05
-0.4908538896519531,-0.4908538896519531,1.000021977043961,6.237727733130853e-05
-0.49069030510654554,-0.49069030510654554,1.0000653678281755,6.257933175645923e-05
-0.49058649921807956,-0.49058649921807956,1.00008516724702,6.225283420522933e-05
-0.49046209693951826,-0.49046209693951826,0.9999664543348752,6.347702303865767e-05
-0.49023560500681923,-0.49023560500681923,1.0000271941023413,6.287630345840939e-05
-0.4901332303586969,-0.4901332303586969,1.0001178193356253,6.280782938479093e-05
-0.49008735431489187,-0.49008735431489187,1.0000318899837786,6.257083205286891e-05
-0.4900181363329466,-0.4900181363329466,1.0000889186934763,6.290001670815095e-05
-0.4899511971118045,-0.4899511971118045,0.9999887611141635,6.316636149747353e-05
-0.48988950378370644,-0.48988950378370644,0.9999950086841605,6.287773137424432e-05
-0.48980005936791715,-0.48980005936791715,1.0001507679882258,6.187026013920795e-05
-0.48967189895756746,-0.48967189895756746,0.9999964543219377,6.236328406960605e-05
-0.4894767828805925,-0.4894767828805925,0.9999889804841879,6.297710284291251e-05
-0.4892774374482542,-0.4892774374482542,1.000008029672626,6.26911360397504e-05
-0.48912275083348505,-0.48912275083348505,1.0000258076343211,6.23890538740026e-05
-0.4889991596057371,-0.4889991596057371,1.0000075079996198,6.234618673715225e-05
-0.48886265824367003,-0.48886265824367003,0.9999129769713605,6.243757571791223e-05
-0.48868650281001463,-0.48868650281001463,0.9999366757519403,6.288655369785395e-05
-0.4885108383983606,-0.4885108383983606,1.0000378876597047,6.203816753104217e-05
-0.4883229855422542,-0.4883229855422542,1.0000826203980986,6.263496915298461e-05
-0.48814928178362604,-0.48814928178362604,1.0000615872575724,6.260194232378906e-05
-0.4879801680934179,-0.4879801680934179,1.0000285089537448,6.28525285176648e-05
-0.4878426861800108,-0.4878426861800108,1.0001362369858187,6.245099224135973e-05
-0.48775233513879357,-0.48775233513879357,1.000044603801746,6.299314544936093e-05
-0.4876887853424705,-0.4876887853424705,0.9999896882954861,6.316282452333512e-05
-0.4875817939122499,-0.4875817939122499,0.9999864203955241,6.310674983226276e-05
-0.487494340675039,-0.487494340675039,1.0000636183708513,6.256287016330812e-05
-0.48744571027418715,-0.48744571027418715,0.9999332175699218,6.312419167166751e-05
-0.4872967177241662,-0.4872967177241662,1.0000062007483237,6.250447256866535e-05
-0.48716226184842526,-0.48716226184842526,0.9999742581344855,6.258279793460253e-05
-0.48694313328487626,-0.48694313328487626,0.9998592050521701,6.27351486143781e-05
-0.48670978422851474,-0.48670978422851474,1.0000678583387246,6.421643321245832e-05
-0.4865093173368223,-0.4865093173368223,0.999955335274078,6.266743106647123e-05
-0.48632322898629354,-0.48632322898629354,0.9999289297562584,6.273718935893156e-05
-0.4861960038793768,-0.4861960038793768,0.9998905009655259,6.330133342617775e-05
-0.48598048437343094,-0.48598048437343094,0.9999927094886056,6.252107368535653e-05
-0.48578235685381516,-0.48578235685381516,0.9999450648623925,6.23004061561722e-05
-0.48569490054869674,-0.48569490054869674,0.9999029561118196,6.291632393348613e-05
-0.4855244498090542,-0.4855244498090542,0.9999274926495941,6.262899626075981e-05
-0.48534061271966494,-0.48534061271966494,1.0000449088726484,6.358532765346577e-05
-0.4852196784075204,-0.4852196784075204,0.9999409326211459,6.281974102344596e-05
-0.48512770928100507,-0.48512770928100507,1.0000452329062521,6.247125645854927e-05
-0.48502462283395287,-0.48502462283395287,0.9999573023613818,6.338269592649822e-05
-0.48490343450375806,-0.48490343450375806,0.9999364112129567,6.239576209400051e-05
-0.4847864172676054,-0.4847864172676054,0.999969024875818,6.236752803240607e-05
-0.4845689175774169,-0.4845689175774169,0.9999940871212539,6.223875011849211e-05
-0.48446395445898816,-0.48446395445898816,0.9999160274116188,6.33779726924213e-05
-0.4843331675556328,-0.4843331675556328,1.0000920527505404,6.258551098643535e-05
-0.48413362673527444,-0.48413362673527444,1.0000334905295518,6.243296547278187e-05
-0.48396570116456133,-0.48396570116456133,0.9999772122570387,6.21391342993866e-05
-0.4838513122944278,-0.4838513122944278,1.0000486165780151,6.384437083035139e-05
-0.4836238898787997,-0.4836238898787997,0.999926635180427,6.217386959240972e-05
-0.4834847845886543,-0.4834847845886543,0.9999404909630426,6.361946821978586e-05
-0.48333561369945527,-0.48333561369945527,0.9999172616815599,6.250513172700224e-05
-0.4831719428540964,-0.4831719428540964,0.9999490695264459,6.328225175784662e-05
-0.4829525027154887,-0.4829525027154887,1.000096246601595,6.33816211427256e-05
-0.48283503861894134,-0.48283503861894134,0.9999455322932598,6.296519184671548e-05
-0.4827574734816153,-0.4827574734816153,1.0000823358745918,6.308087783495731e-05
-0.4826690061661793,-0.4826690061661793,1.0000610061679063,6.242226165322791e-05
-0.4825737384460808,-0.4825737384460808,1.0001402518493663,6.283509176337997e-05
-0.4825038044271423,-0.4825038044271423,1.0000917079489708,6.232100573084692e-05
-0.48238002200268965,-0.48238002200268965,0.9999165763622795,6.19324524251169e-05
-0.4822389142687825,-0.4822389142687825,0.9998392398484677,6.294927758168992e-05
-0.48204844035735733,-0.48204844035735733,1.0000554626608995,6.350044283758175e-05
-0.4818250455180532,-0.4818250455180532,0.9999441809352986,6.278425786816585e-05
-0.4816382295508447,-0.4816382295508447,0.9999904031607313,6.198831279042013e-05
-0.48147066386627557,-0.48147066386627557,0.9999568158015443,6.279479570842674e-05
-0.4813497176983219,-0.4813497176983219,1.0000885312518148,6.366526818309394e-05
-0.4812553292433222,-0.4812553292433222,0.9999873994378407,6.230588736378282e-05
-0.4811406976030412,-0.4811406976030412,1.0001022337556906,6.238853064335292e-05
-0.48098575080057343,-0.48098575080057343,0.9999876680947821,6.248395159317983e-05
-0.48084164208412405,-0.48084164208412405,0.9999766578908549,6.280315289328704e-05
-0.480689033665476,-0.480689033665476,1.0000018002054556,6.331914202258382e-05
-0.4805144149642729,-0.4805144149642729,1.000011643992351,6.303460892246848e-05
-0.48040803497970047,-0.48040803497970047,1.0000411078828777,6.278006293663752e-05
-0.48035665574607267,-0.48035665574607267,1.0000517991391584,6.31205702363877e-05
-0.48026360570165705,-0.48026360570165705,1.0000376112212506,6.3445802769661e-05
-0.48019985601204096,-0.48019985601204096,1.00005947810148,6.275504918196984e-05
-0.48014214648701453,-0.48014214648701453,1.0000173449474263,6.239613758991951e-05
-0.48007599763586767,-0.48007599763586767,1.0000832293244224,6.186698857957593e-05
-0.4799441817238403,-0.4799441817238403,1.0000564693931184,6.235553978345365e-05
-0.4797809067003982,-0.4797809067003982,0.9999387271045173,6.275308551139308e-05
-0.47967550504872636,-0.47967550504872636,0.9999606221048725,6.282621656656878e-05
-0.47949930769973437,-0.47949930769973437,1.0000659802698428,6.26400356002207e-05
-0.4793949499122391,-0.4793949499122391,1.0000235104604216,6.246785576828482e-05
-0.4793080517094495,-0.4793080517094495,1.0000051677537871,6.290862744209325e-05
-0.4791496987521896,-0.4791496987521896,1.000026965131021,6.244599665161125e-05
-0.47896718539413996,-0.47896718539413996,0.9997896909537559,6.304251852293819e-05
-0.4787726922748334,-0.4787726922748334,0.9998583023256314,6.171880680183673e-05
-0.4786098073327594,-0.4786098073327594,0.9999878284636505,6.274382612045398e-05
-0.47847824909458725,-0.47847824909458725,1.0001059984336718,6.255405351601344e-05
-0.4784048494271701,-0.4784048494271701,1.000022861477987,6.285153828652877e-05
-0.47818440512728555,-0.47818440512728555,1.000131953120032,6.298944845039518e-05
-0.4780256320944318,-0.4780256320944318,0.9999868369873399,6.282873627279771e-05
-0.47796351788929314,-0.47796351788929314,0.99991262505404,6.300803982388985e-05
-0.47787201654373346,-0.47787201654373346,0.9999953236253898,6.307383351199271e-05
-0.4778074166435545,-0.4778074166435545,0.9999459503298116,6.279228784347337e-05
-0.4777407211357058,-0.4777407211357058,1.00000736694636,6.303278326497317e-05
-0.4776259399295668,-0.4776259399295668,1.0000197210879282,6.268232439985409e-05
-0.4774584693219367,-0.4774584693219367,1.0001476875785555,6.270228779597787e-05
-0.47735487616409955,-0.47735487616409955,1.0000581191632267,6.296090246841519e-05
-0.47716673107206586,-0.47716673107206586,1.0001566507660176,6.262975764258962e-05
-0.4769606639190897,-0.4769606639190897,1.0000692045686725,6.39879872427552e-05
-0.47683995841616705,-0.47683995841616705,0.9999710311895541,6.268536137515106e-05
-0.47664795606033294,-0.47664795606033294,1.000025316628159,6.24408401157027e-05
-0.47652246845318585,-0.47652246845318585,1.000010514464352,6.33098902041417e-05
-0.4762929714466736,-0.4762929714466736,0.9998705859112607,6.255239068429563e-05
-0.47608699996308135,-0.47608699996308135,0.9999861102852847,6.236014988200193e-05
-0.47599009358764305,-0.47599009358764305,1.0000606303578168,6.275417257882354e-05
-0.47584402612283155,-0.47584402612283155,1.0000068230446517,6.299249260221733e-05
-0.47566453614599596,-0.47566453614599596,1.0000518561006542,6.325499014574528e-05
-0.4755492228319781,-0.4755492228319781,0.9999993828493965,6.347777866683434e-05
-0.4754307363724365,-0.4754307363724365,1.0000350176393398,6.215667250599071e-05
-0.4753255487587012,-0.4753255487587012,1.0000459127641477,6.277396934001259e-05
-0.4751614254497326,-0.4751614254497326,0.9998440014823679,6.249304503437597e-05
-0.47499138301482163,-0.47499138301482163,0.9999291708049028,6.215865901155921e-05
-0.4748101654895436,-0.4748101654895436,1.0001138937444964,6.248526878513377e-05
-0.4747299535689308,-0.4747299535689308,1.0000078381985524,6.259194169325949e-05
-0.4745925723007531,-0.4745925723007531,1.0000178935584134,6.268428275169653e-05
-0.4743280853399483,-0.4743280853399483,0.9999751830303707,6.225205786052708e-05
-0.4742217040693504,-0.4742217040693504,0.9999498312361783,6.282288683428442e-05
-0.4741139025423763,-0.4741139025423763,0.9999865072381866,6.347597948627113e-05
-0.47390067712512973,-0.47390067712512973,1.000153855829339,6.257935880648554e-05
-0.47375827340911203,-0.47375827340911203,1.0000894514175869,6.263901746162696e-05
-0.47360050947827403,-0.47360050947827403,0.9999754352638698,6.289804063699439e-05
-0.47340067362129046,-0.47340067362129046,0.9999381347350914,6.331564382392371e-05
-0.4731715002144483,-0.4731715002144483,1.0001360480692632,6.364812417571852e-05
-0.47304684259834173,-0.47304684259834173,0.9999576054860613,6.227817733736273e-05
-0.47292876542342127,-0.47292876542342127,1.000096456452744,6.294651189034908e-05
-0.4728152496216353,-0.4728152496216353,1.0000165028311367,6.269695286155847e-05
-0.4727292830564693,-0.4727292830564693,0.9999196359477043,6.210048643221375e-05
-0.47260811887663295,-0.47260811887663295,0.9999468751074163,6.272412313666142e-05
-0.47240022234182105,-0.47240022234182105,0.9999142837250099,6.301924384387501e-05
-0.4722390234001068,-0.4722390234001068,1.0001748135357986,6.32201613047947e-05
-0.4719777362566674,-0.4719777362566674,0.9999980406622855,6.265397861032087e-05
-0.4717975946405204,-0.4717975946405204,0.9999556703461776,6.263706290868621e-05
-0.47168176300147024,-0.47168176300147024,1.000002571624231,6.311039451582933e-05
-0.471573324981,-0.471573324981,1.0000263274951622,6.313138661253547e-05
-0.47136084658559413,-0.47136084658559413,1.0000843614995922,6.240197165169469e-05
-0.4711358553788159,-0.4711358553788159,0.9999920779402857,6.29575925469809e-05
-0.47091392391866976,-0.47091392391866976,1.000050980815241,6.305637178333746e-05
-0.47078519960414267,-0.47078519960414267,0.9998999981979365,6.310081929456588e-05
-0.4706856604632776,-0.4706856604632776,1.0000156302075425,6.278788676781996e-05
-0.47061640511128644,-0.47061640511128644,1.000043317024871,6.278561184875249e-05
-0.47053101732271896,-0.47053101732271896,1.0001352606736669,6.366710200891173e-05
-0.4704675149247123,-0.4704675149247123,0.9999925327185581,6.324036535072367e-05
-0.4704019794178748,-0.4704019794178748,0.9999852057938377,6.204133424962005e-05
-0.4703376284038313,-0.4703376284038313,1.0000699886084954,6.20127938232317e-05
-0.47018839010161173,-0.47018839010161173,0.9998905192121518,6.276334322886293e-05
-0.47002703423459025,-0.47002703423459025,0.9999824993238535,6.296285498440102e-05
-0.4699391258865944,-0.4699391258865944,1.0001476763221269,6.324705190612161e-05
-0.4697736683843686,-0.4697736683843686,0.9999700385443475,6.274215442619605e-05
-0.469651069180145,-0.469651069180145,1.0000883841608978,6.322913307155084e-05
-0.4694948938074958,-0.4694948938074958,0.9999526027103119,6.172136816517215e-05
-0.46934529168556766,-0.46934529168556766,1.0000081555879796,6.329322201826513e-05
-0.46916910524523703,-0.46916910524523703,0.9998971451808781,6.275504936658378e-05
-0.4689805669424459,-0.4689805669424459,0.9999397829700035,6.232463377110808e-05
-0.46883703176827113,-0.46883703176827113,1.0000562786198413,6.249453879756303e-05
-0.46872282642871144,-0.46872282642871144,1.000042298700458,6.273539173773458e-05
-0.46859479997474407,-0.46859479997474407,1.0000687041065224,6.332835485717346e-05
-0.46839849217467416,-0.46839849217467416,1.0000406132444026,6.239120930418091e-05
-0.4683028378538438,-0.4683028378538438,0.9999028337349362,6.282719784287557e-05
-0.46824316411148176,-0.46824316411148176,1.000054671223852,6.302115459769868e-05
-0.46814971104668074,-0.46814971104668074,1.0000644302344568,6.307332178277848e-05
-0.4680685508825263,-0.4680685508825263,1.0001266612218906,6.248487954570879e-05
-0.46800086270668545,-0.46800086270668545,1.0000537132875054,6.277912005007377e-05
-0.4678957094123689,-0.4678957094123689,0.9998911707395453,6.192672727854117e-05
-0.46773918042781587,-0.46773918042781587,0.9999971374822862,6.295151772816444e-05
-0.4676353504903091,-0.4676353504903091,1.0000095933698565,6.336755197171819e-05
-0.4674740160349756,-0.4674740160349756,1.0000479026822946,6.241620038912029e-05
-0.46733868677329155,-0.46733868677329155,1.0000467659909063,6.277249616876366e-05
-0.4671940793066824,-0.4671940793066824,1.0001468763567178,6.281824409994339e-05
-0.4670846291744965,-0.4670846291744965,1.0000605561768272,6.242350955739676e-05
-0.4669163914879391,-0.4669163914879391,1.000041178876217,6.26959290448603e-05
-0.46673667235263566,-0.46673667235263566,1.0000486202874952,6.234506181881504e-05
-0.46646866047085495,-0.46646866047085495,1.0000443264651948,6.250513215292836e-05
-0.4663545676496142,-0.4663545676496142,1.000094188088212,6.237396528739888e-05
-0.46627416317078313,-0.46627416317078313,1.0000170277869302,6.303688402645749e-05
-0.46612315383245007,-0.46612315383245007,1.0000265667636152,6.311386177284445e-05
-0.4659804322294804,-0.4659804322294804,0.999952171736427,6.239057781323127e-05
-0.4658706955273374,-0.4658706955273374,1.0000447163527848,6.340399959203976e-05
-0.4657491360962013,-0.4657491360962013,1.0000393283291467,6.310267469641203e-05
