time,time,flux,flux_err
-0.4990012909014088,-0.4990012909014088,0.9999328078915574,3.724472884261382e-05
-0.49731609004811617,-0.49731609004811617,0.9999774975518246,3.7300080635842105e-05
-0.49571760396065656,-0.49571760396065656,0.9999927845250328,3.7242160022931985e-05
-0.493827083564247,-0.493827083564247,0.9999854615253323,3.400011456151441e-05
-0.4919112211238826,-0.4919112211238826,1.00003024636159,3.4195567152150514e-05
-0.4905978378490545,-0.4905978378490545,1.000038414282452,3.41179014695975e-05
-0.4893885760160629,-0.4893885760160629,0.9999075596967424,3.399543260712718e-05
-0.488098469452234,-0.488098469452234,0.9999629068512019,3.4002601668774336e-05
-0.4869390475039836,-0.4869390475039836,0.9999740952045808,3.399984653534298e-05
-0.4856566394795664,-0.4856566394795664,1.0000253696800705,3.412025902879258e-05
-0.48397397880617066,-0.48397397880617066,1.0000049888381402,3.399857939633926e-05
-0.4818994080764242,-0.4818994080764242,0.9999809742804959,3.39988892460229e-05
-0.48048706412955655,-0.48048706412955655,0.9999570841579246,3.399746029031119e-05
-0.47917453573900276,-0.47917453573900276,1.0000243068325645,3.4005170558194166e-05
-0.47756680968159343,-0.47756680968159343,1.000064296599912,3.4005545607157765e-05
-0.47612505144206807,-0.47612505144206807,0.9999831125326368,3.400392314249397e-05
-0.47491284757852553,-0.47491284757852553,0.999991530462497,3.400533019214412e-05
-0.4737049915274838,-0.4737049915274838,1.0000296031891154,3.400414600237006e-05
-0.47234946755925195,-0.47234946755925195,1.0000494022869193,3.400373289632044e-05
-0.4711133948469069,-0.4711133948469069,1.000020851585104,3.400123710863694e-05
-0.4698144678899553,-0.4698144678899553,1.0000014169531841,3.4109170835569386e-05
-0.4684709466208005,-0.4684709466208005,1.0000089680332966,3.399784555026064e-05
-0.46715195262513587,-0.46715195262513587,0.9999756434025663,3.4003204888547385e-05
-0.4655992947082268,-0.4655992947082268,0.9999973301096376,3.400240307684564e-05
-0.4643313664390007,-0.4643313664390007,0.9999565825086941,3.3998071884618045e-05
-0.4628434983926127,-0.4628434983926127,1.0000531332734397,3.40031245981395e-05
-0.46140072037815116,-0.46140072037815116,1.0000213439434045,3.399975031714744e-05
-0.459784672621754,-0.459784672621754,0.9999952376263824,3.401930331698235e-05
-0.4581390935287345,-0.4581390935287345,0.9999267314100662,3.399666518193633e-05
-0.45656118548649827,-0.45656118548649827,1.0000335140095409,3.417422164495153e-05
-0.4553168637386989,-0.4553168637386989,1.0000490752060884,3.407625423180883e-05
-0.45404474314127585,-0.45404474314127585,0.9999822658518432,3.399553833140363e-05
-0.45270890643005257,-0.45270890643005257,0.9999835732443149,3.399738933832754e-05
-0.4516534679394681,-0.4516534679394681,1.0000341156397623,3.424052137117716e-05
-0.45019960341160187,-0.45019960341160187,0.9999815315053535,3.39975037045777e-05
-0.4484250984271057,-0.4484250984271057,1.0000364546494513,3.3991282492255486e-05
-0.4467482105974341,-0.4467482105974341,0.9999891878201019,3.4000386609640494e-05
-0.4454006822750671,-0.4454006822750671,0.9999689901092432,3.400717654770715e-05
-0.44414375999185723,-0.44414375999185723,0.9999958027415708,3.456921231115871e-05
-0.442752855407889,-0.442752855407889,0.9999954521097816,3.400469748690457e-05
-0.4413074351352407,-0.4413074351352407,0.9999915422844785,3.400296297639369e-05
-0.4400964705972001,-0.4400964705972001,1.0000331367508541,3.400334874767654e-05
-0.43888973077118865,-0.43888973077118865,0.9999617978537818,3.400220648539879e-05
-0.4376870604464784,-0.4376870604464784,0.9999746135417071,3.400377521990773e-05
-0.4365086026082281,-0.4365086026082281,0.9999991638481689,3.40022981827557e-05
-0.4353687892988091,-0.4353687892988091,0.9999306422796929,3.405407603518931e-05
-0.4339180323004257,-0.4339180323004257,0.9999887306479509,3.400422664942776e-05
-0.43260391511430496,-0.43260391511430496,0.9999360276421294,3.399826784452605e-05
-0.43106809810269625,-0.43106809810269625,1.0000446705896064,3.4004237975159396e-05
-0.4295246680267155,-0.4295246680267155,1.0000108700308672,3.400031063674137e-05
-0.4280274459859356,-0.4280274459859356,1.0000309612495009,3.4004371656348954e-05
-0.42659285487607124,-0.42659285487607124,1.0000492307327673,3.4003076595677e-05
-0.4245868094440084,-0.4245868094440084,0.999971074388329,3.403911319107086e-05
-0.4229058739321772,-0.4229058739321772,1.0000331837519751,3.4161690390982854e-05
-0.42144446983584205,-0.42144446983584205,0.9999726601353858,3.399842955056839e-05
-0.41999005334510003,-0.41999005334510003,1.0000409384616937,3.4043373793971333e-05
-0.41865176951396277,-0.41865176951396277,1.0000647333096429,3.399926880441925e-05
-0.41752314030018167,-0.41752314030018167,1.0000162150828873,3.4036044926103545e-05
-0.41624597572372296,-0.41624597572372296,0.9999562154210873,3.439131471191533e-05
-0.41464962421450763,-0.41464962421450763,1.0000627310348402,3.4001680129874364e-05
-0.4128377942310181,-0.4128377942310181,1.000038470351979,3.3995786445091845e-05
-0.4113386723882286,-0.4113386723882286,1.0000723456817338,3.400142711742783e-05
-0.4097891410114244,-0.4097891410114244,0.9999594578323568,3.400308563708021e-05
-0.40830064347246664,-0.40830064347246664,0.9999879122175486,3.4007212096702744e-05
-0.4069074902421562,-0.4069074902421562,0.9999849183983682,3.4003062560475456e-05
-0.4056958459987072,-0.4056958459987072,0.9999978429116341,3.4003904128753195e-05
-0.4045347102539381,-0.4045347102539381,1.0000078852582592,3.4006679117383794e-05
-0.40337996660382486,-0.40337996660382486,0.9999789852701129,3.4003351399156646e-05
-0.4021948941575829,-0.4021948941575829,1.0000675165299413,3.4002628158672793e-05
-0.40079017565585673,-0.40079017565585673,0.9999742683904245,3.3994621925163055e-05
-0.3994688605918782,-0.3994688605918782,1.0000242400111166,3.4017885252174486e-05
-0.3980304500932107,-0.3980304500932107,1.0000830198066992,3.4002810791804197e-05
-0.39625438292277976,-0.39625438292277976,1.000027820697336,3.400485480775111e-05
-0.39471842037455646,-0.39471842037455646,0.9999926920324302,3.399923397109353e-05
-0.39321189520996996,-0.39321189520996996,0.9999747799245112,3.40009086475957e-05
-0.3917854299535975,-0.3917854299535975,1.000011721734902,3.399846699595118e-05
-0.38971371741208716,-0.38971371741208716,1.0000399729739327,3.399942702540131e-05
-0.38817897528933826,-0.38817897528933826,0.9999482828802588,3.422339852473539e-05
-0.3868793161993381,-0.3868793161993381,0.9999423059977278,3.4136246199966934e-05
-0.3856800839857897,-0.3856800839857897,1.000068609294684,3.400937154808136e-05
-0.3843414358940208,-0.3843414358940208,1.0000199378439367,3.399550950102567e-05
-0.38306880473101046,-0.38306880473101046,1.0000124279943035,3.408213891838673e-05
-0.38184149806038475,-0.38184149806038475,0.999995262264138,3.39977349086476e-05
-0.38015717366070023,-0.38015717366070023,0.9999157469134655,3.399344252417801e-05
-0.3783839269017335,-0.3783839269017335,1.000022245539712,3.40020671608762e-05
-0.3769726880680537,-0.3769726880680537,0.9999011915965712,3.400262402212691e-05
-0.37571503094222863,-0.37571503094222863,0.9999664144140711,3.399843991346162e-05
-0.37433326672762635,-0.37433326672762635,0.9999791476182727,3.399817701860701e-05
-0.3728786932042567,-0.3728786932042567,1.0000547962759778,3.401078229220716e-05
-0.37167324954643843,-0.37167324954643843,1.0000420752207442,3.4004793143684744e-05
-0.3704646761558251,-0.3704646761558251,1.0000391131393784,3.400289146283409e-05
-0.36910003832890653,-0.36910003832890653,1.0000181114523805,3.4002268273083494e-05
-0.36786971760739107,-0.36786971760739107,1.0000371366781222,3.400107468781795e-05
-0.3665579252381576,-0.3665579252381576,0.9999982857815894,3.4146818918259845e-05
-0.36521308104274797,-0.36521308104274797,0.999973710131431,3.4001817026641114e-05
-0.36389386554947123,-0.36389386554947123,0.9999004086475761,3.399841706616676e-05
-0.36226500365592074,-0.36226500365592074,1.0000653929614767,3.4003042011341284e-05
-0.3608173711167183,-0.3608173711167183,0.999979729048029,3.400348740678348e-05
-0.35937045171740467,-0.35937045171740467,1.0000143493442493,3.3998141991807664e-05
-0.3581558607984334,-0.3581558607984334,1.0000315194514584,3.400193381290982e-05
-0.35654246774502096,-0.35654246774502096,0.9999632902494279,3.4009554834543224e-05
-0.35489842102688274,-0.35489842102688274,0.9999730210292433,3.399981625027832e-05
-0.35333712691208347,-0.35333712691208347,0.999938057142798,3.4183981927294684e-05
-0.35207523095014037,-0.35207523095014037,1.000027989653128,3.410457725871999e-05
-0.35106551833450794,-0.35106551833450794,1.0000603388832165,3.3997198927020174e-05
-0.3497841196425725,-0.3497841196425725,1.0000338230007026,3.40025615777881e-05
-0.3486232762254076,-0.3486232762254076,1.000023923112377,3.400391805945145e-05
-0.3473358832852682,-0.3473358832852682,0.9999865097899759,3.4149251837803284e-05
-0.34545678238500843,-0.34545678238500843,0.9999973090961166,3.3993607451533544e-05
-0.34353104871406687,-0.34353104871406687,0.9999796997579553,3.399757610840936e-05
-0.3421590309095336,-0.3421590309095336,1.0000192581786338,3.400279936609075e-05
-0.34078979127516507,-0.34078979127516507,1.0000051145522457,3.3998950645352736e-05
-0.3392178827605676,-0.3392178827605676,0.9999599555872895,3.4004897897843535e-05
-0.33777620490582194,-0.33777620490582194,0.9999870277888661,3.400541535685975e-05
-0.33658477463759484,-0.33658477463759484,0.9998955187127855,3.400493988352847e-05
-0.33543821970233695,-0.33543821970233695,0.9999784399695125,3.400209566248937e-05
-0.334281889142585,-0.334281889142585,1.0000482272279756,3.3998088939666296e-05
-0.33305967158812566,-0.33305967158812566,1.0000217229041932,3.4000842970375625e-05
-0.33176847161666956,-0.33176847161666956,0.9999400397505017,3.408612355770226e-05
-0.3304274157882901,-0.3304274157882901,0.9999962980061892,3.4000318785760166e-05
-0.32910519423603546,-0.32910519423603546,0.9999693306659196,3.4001159965754966e-05
-0.32745633127633483,-0.32745633127633483,1.0000709818617342,3.4003157736127924e-05
-0.3259991534432629,-0.3259991534432629,0.9999753862462608,3.400227904972867e-05
-0.3245293289219262,-0.3245293289219262,0.999971600960639,3.400200177929215e-05
-0.32306032583874184,-0.32306032583874184,1.0000151656592358,3.399889243861051e-05
-0.32134742815978823,-0.32134742815978823,1.0000581166980442,3.402869882927121e-05
-0.31968009984411766,-0.31968009984411766,0.9999943330292199,3.417301791878865e-05
-0.3182842194393743,-0.3182842194393743,0.9999380901155159,3.39945614294499e-05
-0.31704731142672243,-0.31704731142672243,0.9999731359090397,3.406620130405589e-05
-0.3157068796339445,-0.3157068796339445,0.9999249667532008,3.3993667430772675e-05
-0.3144068692927249,-0.3144068692927249,1.0000428063073987,3.402096803486962e-05
-0.31329985562479123,-0.31329985562479123,1.0000992874877714,3.428064614223251e-05
-0.31181312320404686,-0.31181312320404686,0.9999661964165373,3.399289645389332e-05
-0.3100207584007876,-0.3100207584007876,0.9999707127562644,3.3995556483621935e-05
-0.30837568501592616,-0.30837568501592616,0.9999777741016201,3.3999745921352115e-05
-0.30708343956794126,-0.30708343956794126,1.0000489869898912,3.400098520877254e-05
-0.3057936476689065,-0.3057936476689065,1.0000209095586698,3.47190511066244e-05
-0.30440447489381767,-0.30440447489381767,0.9999337496597427,3.400347507414853e-05
-0.30295911567518485,-0.30295911567518485,1.0000565693393355,3.400445497229356e-05
-0.3017804400471505,-0.3017804400471505,1.0000023072121407,3.4007614302232334e-05
-0.3006372955685947,-0.3006372955685947,1.0000529029909384,3.40046271914352e-05
-0.29943687191116625,-0.29943687191116625,0.9999968929625288,3.400139761595498e-05
-0.2980384735536063,-0.2980384735536063,1.0000326386863994,3.400046522750062e-05
-0.2967476479447214,-0.2967476479447214,1.0000829504562752,3.404224364729901e-05
-0.29541424788476434,-0.29541424788476434,0.9999611625721089,3.3998802152741503e-05
-0.2939291722810594,-0.2939291722810594,0.9999322896340015,3.4001694552768836e-05
-0.29239711074333175,-0.29239711074333175,1.0000224811448593,3.400157473610281e-05
-0.2909058872202877,-0.2909058872202877,1.0000364259569672,3.4002417472274636e-05
-0.28941772436664903,-0.28941772436664903,0.999993445438791,3.399881495363226e-05
-0.28768391693010925,-0.28768391693010925,0.9999548689133416,3.400165337488454e-05
-0.2859169418225065,-0.2859169418225065,1.0000091396553423,3.405022727548124e-05
-0.2841842418158194,-0.2841842418158194,0.9999893868943879,3.4150325693533344e-05
-0.28274799908977,-0.28274799908977,0.9999924791715656,3.402771515300457e-05
-0.28138683702272826,-0.28138683702272826,0.9999971116861535,3.4003319067007495e-05
-0.28009483667265156,-0.28009483667265156,0.9999432196278416,3.3994695841499506e-05
-0.27894705822400284,-0.27894705822400284,0.9999639917322769,3.4046889713132e-05
-0.2772727616276825,-0.2772727616276825,1.000023180747345,3.399885367272757e-05
-0.27548139848804565,-0.27548139848804565,0.9999847693823577,3.398835005740545e-05
-0.27382654896355235,-0.27382654896355235,1.0000008294051532,3.399745908073673e-05
-0.2723990136932116,-0.2723990136932116,0.9999713138004094,3.4004826946497907e-05
-0.2707904542941833,-0.2707904542941833,1.000033284272138,3.4004683579662705e-05
-0.2693547380447853,-0.2693547380447853,0.9999666542721611,3.400345284855731e-05
-0.2681464394496288,-0.2681464394496288,0.9999969866097379,3.4009456460584275e-05
-0.2669863221148262,-0.2669863221148262,0.9999939242962675,3.400339325218941e-05
-0.2655817782855593,-0.2655817782855593,0.9999791644305231,3.4003404714509436e-05
-0.2643923778727185,-0.2643923778727185,0.9999606713420954,3.399909368143678e-05
-0.26300323828472755,-0.26300323828472755,1.0000397821258526,3.40005604855891e-05
-0.26171826671052256,-0.26171826671052256,1.0000194123402273,3.4006068259501905e-05
-0.2602726929995697,-0.2602726929995697,1.0000334941026408,3.400577979068294e-05
-0.25860048249014655,-0.25860048249014655,1.0000029952964975,3.400466182509165e-05
-0.25694752886192873,-0.25694752886192873,0.9999041606717999,3.399693645106561e-05
-0.25543996093038,-0.25543996093038,1.0000215927657825,3.4000463520559005e-05
-0.2540082072868245,-0.2540082072868245,1.0000630720796388,3.400337511561448e-05
-0.25211419045517686,-0.25211419045517686,1.0000095061579766,3.399845842626957e-05
-0.25035424417001195,-0.25035424417001195,0.9999383163594423,3.420703920681391e-05
-0.2490538127865875,-0.2490538127865875,1.000015620733842,3.412652672323249e-05
-0.24784860574582127,-0.24784860574582127,0.9999977454008493,3.400137483766318e-05
-0.2465542653168086,-0.2465542653168086,0.9999751252599338,3.400087158095471e-05
-0.24524477800005115,-0.24524477800005115,0.9999729551722382,3.399674954277787e-05
-0.2441093409550376,-0.2441093409550376,0.9999706841094597,3.4098346079465085e-05
-0.24241741088044363,-0.24241741088044363,1.0000539460820703,3.4000902409016205e-05
-0.2406138437014306,-0.2406138437014306,1.0000202103162137,3.399030304870476e-05
-0.23919591992744244,-0.23919591992744244,0.9999466160321434,3.400574427258011e-05
-0.23787855469272473,-0.23787855469272473,0.9999208633177407,3.4001784541339305e-05
-0.2362703554914333,-0.2362703554914333,1.0000524916059788,3.400458660213317e-05
-0.23482951300102287,-0.23482951300102287,1.0000298463810895,3.400377132247675e-05
-0.2336169957445236,-0.2336169957445236,0.9999593533091383,3.40038196105475e-05
-0.23240885175182485,-0.23240885175182485,0.9999141382619271,3.400126368712726e-05
-0.2310496759309899,-0.2310496759309899,0.9999798953016243,3.400132555481623e-05
-0.22981590481940656,-0.22981590481940656,1.0000167803941675,3.400062551381019e-05
-0.22851182925805916,-0.22851182925805916,1.0000141622394412,3.41238582599926e-05
-0.22716665961779653,-0.22716665961779653,1.0000024305465336,3.399846366106898e-05
-0.2258498217270244,-0.2258498217270244,0.9999685891933187,3.3998896265798986e-05
-0.22421169758599718,-0.22421169758599718,0.9999962302768864,3.400081397626832e-05
-0.22276048033963888,-0.22276048033963888,1.0000094012976029,3.400309894162249e-05
-0.22128536983800587,-0.22128536983800587,1.000020378242721,3.400081050648861e-05
-0.22003638815367593,-0.22003638815367593,1.0000446860630579,3.4006933648993186e-05
-0.21848778090497945,-0.21848778090497945,0.9999707447524105,3.4016199325225495e-05
-0.2168428031669464,-0.2168428031669464,0.9999456375713274,3.400020181351815e-05
-0.21527154252689798,-0.21527154252689798,1.0000393139453785,3.417711358560847e-05
-0.21397408635239118,-0.21397408635239118,0.9999445217862281,3.408683453689702e-05
-0.21275778843846638,-0.21275778843846638,0.9999343590955576,3.399575044015797e-05
-0.21142152233805972,-0.21142152233805972,1.0000765478084397,3.399634469670997e-05
-0.21035557396535295,-0.21035557396535295,0.9998840496290835,3.420261266379094e-05
-0.20891366113501136,-0.20891366113501136,1.0000004864615788,3.399905958631105e-05
-0.2071422361623263,-0.2071422361623263,0.9999882038693085,3.398977353295336e-05
-0.20546133118623403,-0.20546133118623403,0.9999680926259144,3.399873364646556e-05
-0.20410400118562394,-0.20410400118562394,1.000024705457849,3.4004602516203794e-05
-0.2028473424259573,-0.2028473424259573,1.0000136405788027,3.449622900498314e-05
-0.20145630861807148,-0.20145630861807148,1.0000071775336679,3.400557792749473e-05
-0.20001180614344777,-0.20001180614344777,0.9999898566226545,3.4003437096469465e-05
-0.19880053430679254,-0.19880053430679254,0.9999995683435585,3.4004746930817566e-05
-0.19759351771208458,-0.19759351771208458,0.9999824705401187,3.400204103038055e-05
-0.19638988281367348,-0.19638988281367348,0.9999488546740478,3.4001484240778676e-05
-0.19520470226416364,-0.19520470226416364,1.000013549274134,3.4004926750218865e-05
-0.19407124129065778,-0.19407124129065778,1.000027165397475,3.4066444066025144e-05
-0.19261490424105432,-0.19261490424105432,0.9999559969532568,3.4002929578969495e-05
-0.19129926383902784,-0.19129926383902784,1.0000059556532963,3.400023386247907e-05
-0.18977160422655287,-0.18977160422655287,0.9999593854457943,3.400185455008017e-05
-0.18822629888018128,-0.18822629888018128,0.9999658264678315,3.4000513956919355e-05
-0.1867314120318042,-0.1867314120318042,0.9999738891665265,3.40029191794356e-05
-0.18529478080163245,-0.18529478080163245,0.9999811872287744,3.4000585930972706e-05
-0.18367546989175026,-0.18367546989175026,0.9999140378291118,3.4031433707078145e-05
-0.1820281376247294,-0.1820281376247294,1.000046777650131,3.3999907274533534e-05
-0.18043027515232096,-0.18043027515232096,0.9999753160090996,3.4164953989292816e-05
-0.17917320906126405,-0.17917320906126405,0.9999303798914847,3.404618589260604e-05
-0.1779057771578664,-0.1779057771578664,0.9999854957793666,3.399742197209106e-05
-0.17659359528624918,-0.17659359528624918,0.9999456125005747,3.403334764014518e-05
-0.17552476997079794,-0.17552476997079794,0.9999797548001734,3.434132046839485e-05
-0.1740575859177625,-0.1740575859177625,0.9999929879821124,3.399874233517011e-05
-0.172273872452206,-0.172273872452206,0.9999854247614246,3.399085895430271e-05
-0.1706090289138956,-0.1706090289138956,1.0000318395951435,3.399926943811738e-05
-0.16929084971779956,-0.16929084971779956,0.9999540728065537,3.400266252930491e-05
-0.1679750725539634,-0.1679750725539634,0.9999755809425679,3.400319687629036e-05
-0.16664263212296646,-0.16664263212296646,0.9999700139679721,3.4004844738793545e-05
-0.1654126344161341,-0.1654126344161341,0.9999419150066323,3.400351133331403e-05
-0.16438210787309798,-0.16438210787309798,0.9999462552868543,3.399923440835006e-05
-0.16323217947792729,-0.16323217947792729,0.9999997099827965,3.400872822155839e-05
-0.16208285001048353,-0.16208285001048353,0.9999565635919392,3.40012784323341e-05
-0.16089457850321195,-0.16089457850321195,1.0000494898545522,3.400062435596599e-05
-0.1594881750002969,-0.1594881750002969,0.9999779672016711,3.399591453327846e-05
-0.15816887867986223,-0.15816887867986223,0.9999676805634913,3.402764827493767e-05
-0.1567282130883541,-0.1567282130883541,1.0000637338733414,3.399952398185772e-05
