time,time,flux,flux_err
-0.49943733214786334,-0.49943733214786334,1.0001263475358042,0.00042986199238593067
-0.49888580217957496,-0.49888580217957496,1.0001252994069507,0.00037034457305108276
-0.498432995701296,-0.498432995701296,1.0000455203179484,0.00047327785855818237
-0.49801555932644986,-0.49801555932644986,0.9995650917154147,0.00044868661341691834
-0.49772202476524396,-0.49772202476524396,0.9995380414763526,0.00041487000522836295
-0.49717191448798986,-0.49717191448798986,1.0000778627393987,0.00042455015003585016
-0.4960749386278621,-0.4960749386278621,1.0001203320649812,0.00040177380140539703
-0.4952991573656618,-0.4952991573656618,1.0002850309685025,0.00043442398730226373
-0.4945828282252478,-0.4945828282252478,0.99965583692696,0.000434749030493394
-0.49390365811850645,-0.49390365811850645,1.000223575099147,0.0004357942084950828
-0.49329915896596505,-0.49329915896596505,1.0008906523676868,0.00043694982892825905
-0.49255317764982465,-0.49255317764982465,1.0000593590455378,0.00043998392743476984
-0.49183063243472136,-0.49183063243472136,0.9995094762082862,0.0004429103769004632
-0.49117136081767965,-0.49117136081767965,1.000331776528967,0.0004234415469388908
-0.490509622884565,-0.490509622884565,0.9996698098598576,0.00043835752244824743
-0.4900102084888204,-0.4900102084888204,0.999697229436495,0.0004364295757250003
-0.48959719729609785,-0.48959719729609785,1.0002465148797133,0.00043653944330235186
-0.4892080274490581,-0.4892080274490581,0.9995177108490398,0.0004370242452429587
-0.48874521968391493,-0.48874521968391493,1.0005059320483567,0.0004693398299475339
-0.48809629316820063,-0.48809629316820063,0.9997238120120716,0.0003738035048279685
-0.48772808585999883,-0.48772808585999883,1.0002722439966576,0.0004162453609846744
-0.48724008456338197,-0.48724008456338197,0.999635013247271,0.0004035210000353863
-0.4860738404066069,-0.4860738404066069,1.000050614486845,0.00040188531254117826
-0.4852146617275139,-0.4852146617275139,1.0000595572550324,0.0004342963049494858
-0.484422065038234,-0.484422065038234,1.0003963201003485,0.00040230288737289917
-0.4838191699367599,-0.4838191699367599,1.0002191241593346,0.00046524449120929234
-0.4833393095272186,-0.4833393095272186,1.0004714970589377,0.0004047597119126869
-0.4826203131742659,-0.4826203131742659,0.99968442147857,0.0004385543231204836
-0.4818735408014618,-0.4818735408014618,0.9998866838512711,0.0004422724549231133
-0.48126662264185144,-0.48126662264185144,1.0003940932913473,0.0003878856919605739
-0.4802679085834825,-0.4802679085834825,0.9995683213981763,0.0004664889325484459
-0.47977521756765784,-0.47977521756765784,0.9994903818015869,0.0004031320062740878
-0.47917429210356205,-0.47917429210356205,0.9991542087488432,0.0003670403439554899
-0.47855743868713035,-0.47855743868713035,1.0001078738725786,0.0004048651403565929
-0.4779927669020253,-0.4779927669020253,1.0001109538831663,0.0004082973587394347
-0.47750266580696915,-0.47750266580696915,0.9997735560652179,0.0004137438972195751
-0.4769250027522503,-0.4769250027522503,0.9999971650675816,0.00042747334607275936
-0.47601595884552805,-0.47601595884552805,1.0001370577225535,0.00043529595981418856
-0.4751525282226794,-0.4751525282226794,0.9998801946725052,0.00043555865866470574
-0.4745738136422005,-0.4745738136422005,0.9997434594633698,0.0004342304874679479
-0.47393293054192326,-0.47393293054192326,1.0002030195371867,0.00040450561664808664
-0.47323224090287114,-0.47323224090287114,0.9999272661058487,0.0004037906750556616
-0.4727516684666625,-0.4727516684666625,1.0000748442381207,0.00043716432482707277
-0.47216073863164637,-0.47216073863164637,0.9998726410154587,0.0004059426232716006
-0.4716645543245249,-0.4716645543245249,1.0000624023713018,0.0004406432834630266
-0.4711038715024188,-0.4711038715024188,0.9998511592314714,0.0004446413614430433
-0.47014404855726755,-0.47014404855726755,0.9997516353969729,0.00043603454577071526
-0.4692955594677187,-0.4692955594677187,0.9999578071642057,0.0003670997894143629
-0.46864070832089055,-0.46864070832089055,1.0006289534674349,0.0004039401740172911
-0.46814407266647323,-0.46814407266647323,1.0000275022283949,0.00043860962114855687
-0.46756594361286263,-0.46756594361286263,1.00031761983954,0.00044062404215640594
-0.46698389661687545,-0.46698389661687545,0.9998356658065687,0.00041894429131497543
-0.46657006485766034,-0.46657006485766034,0.999671009708274,0.000478955469726041
-0.4656347909636679,-0.4656347909636679,1.000078835680683,0.0004019848770654977
-0.4646737157512689,-0.4646737157512689,1.000139546827239,0.0004343835149292495
-0.4639796318027948,-0.4639796318027948,0.9999043832712461,0.00043454245169848905
-0.4633127983790473,-0.4633127983790473,1.0002515331449089,0.00043491342796994354
-0.4624503284634557,-0.4624503284634557,0.9998717797858664,0.00040522442712303
-0.46179992959223454,-0.46179992959223454,0.9995034507532946,0.0004396075581708202
-0.4611316343973158,-0.4611316343973158,0.999988942642792,0.0004426352149158828
-0.46064067943007103,-0.46064067943007103,0.9996617611872314,0.0004720446425407241
-0.45986875938324373,-0.45986875938324373,1.0003591872368445,0.0004665550307111275
-0.4591907447414997,-0.4591907447414997,0.9997228372994439,0.0004362663909175032
-0.45853464632164104,-0.45853464632164104,1.0002813121969747,0.0004367324271223723
-0.45789070731407266,-0.45789070731407266,1.0003082027746202,0.00040487735046568815
-0.45745471037662355,-0.45745471037662355,1.0005236230440642,0.0004067239584236387
-0.4570460890434333,-0.4570460890434333,0.9998047180893626,0.0003769540621921919
-0.4566478281944001,-0.4566478281944001,0.9994918884076857,0.0003876445423799448
-0.45609484560336566,-0.45609484560336566,1.000473848190423,0.00047854373638218955
-0.4551918132281571,-0.4551918132281571,1.0001545925474713,0.00040226265280128516
-0.45418513778058694,-0.45418513778058694,1.0000395255221122,0.00043510892447833386
-0.45353758059209215,-0.45353758059209215,1.0000531258603158,0.0004345387276521024
-0.45282317410310496,-0.45282317410310496,1.0002520693314874,0.0004029212160141264
-0.45218155075781397,-0.45218155075781397,0.9998125846047913,0.00043683020166665736
-0.4514545438498317,-0.4514545438498317,0.9997124646519782,0.0004080128963039155
-0.45082392401891414,-0.45082392401891414,1.000325329101584,0.000413789267978309
-0.4497941202374932,-0.4497941202374932,0.9997028510980762,0.0004720348807690803
-0.4490143642171461,-0.4490143642171461,1.0001943729396667,0.0004029940856867917
-0.4485513040461228,-0.4485513040461228,0.999691888909217,0.00046729891060549807
-0.4480965425587783,-0.4480965425587783,1.000398008290695,0.0004036566853781439
-0.4476527990264003,-0.4476527990264003,0.9998504999546238,0.00040436289646975126
-0.44726371189099157,-0.44726371189099157,1.0002604222100535,0.0004066415409269472
-0.4468631776762777,-0.4468631776762777,1.0007703276484814,0.0004421416483067403
-0.4465111779143626,-0.4465111779143626,0.9997846415504916,0.0004146143090176615
-0.4460932079462509,-0.4460932079462509,1.0004954382283189,0.000398595986916725
-0.44538692639616784,-0.44538692639616784,1.0002024141642043,0.0004676832993078894
-0.44457547168349265,-0.44457547168349265,0.9997683337204908,0.0004346062528873168
-0.4438323148213385,-0.4438323148213385,0.9997157028648674,0.0004342923873663034
-0.44321821633784564,-0.44321821633784564,1.0001864000188931,0.00040256979615312853
-0.4424392366832762,-0.4424392366832762,0.9996811124127649,0.00040368169816585594
-0.44161085909581743,-0.44161085909581743,0.9997128397469142,0.0004059326589173567
-0.44099633334408284,-0.44099633334408284,0.9996529755336179,0.00043743241814011283
-0.4404087915580021,-0.4404087915580021,0.999983864354513,0.0004153090515708358
-0.4398155679838965,-0.4398155679838965,1.000043366301144,0.0004229439486850291
-0.43883896401239325,-0.43883896401239325,1.0001467395553687,0.0004667921103120508
-0.43820600291073786,-0.43820600291073786,0.9998727011440541,0.00040335477937775957
-0.43762568792299134,-0.43762568792299134,1.000519601766086,0.0004039473074040012
-0.43708466327298084,-0.43708466327298084,1.0004062493095245,0.00040540342953703293
-0.43659993636319994,-0.43659993636319994,0.9998115680262213,0.0004086951789929303
-0.43600061822580755,-0.43600061822580755,0.9996209483628474,0.00044969243170170034
-0.4352171097896644,-0.4352171097896644,0.9998492538569629,0.0003815636596981737
-0.4341263150272425,-0.4341263150272425,1.0002693302398709,0.0004343440328165151
-0.43354093796224336,-0.43354093796224336,0.9999148047123485,0.00040170172421783584
-0.43296165373394613,-0.43296165373394613,1.0000995240007606,0.00040208934919643685
-0.4321155222700327,-0.4321155222700327,0.9998048594197826,0.0004354466867600761
-0.43131064113331374,-0.43131064113331374,1.000377139892559,0.000437168076752433
-0.43071784608400776,-0.43071784608400776,0.9997665934338305,0.00040857144257421647
-0.43013615533418487,-0.43013615533418487,1.0000339518825216,0.0004425921861499096
-0.42971409573292474,-0.42971409573292474,1.000251251120085,0.000446354425646797
-0.4292433516791789,-0.4292433516791789,0.9997334778863209,0.0004732877658918328
-0.42864964505206443,-0.42864964505206443,0.9996394071441225,0.0004030731848405847
-0.42812574782801677,-0.42812574782801677,0.9993104785524961,0.0004031514108538225
-0.4272824195359135,-0.4272824195359135,1.0001229920214285,0.0004042946384153584
-0.4266010216088034,-0.4266010216088034,1.0005126992345197,0.0004390543462572628
-0.42602435669177796,-0.42602435669177796,0.9999708712107432,0.0004438363270288354
-0.42554063429124656,-0.42554063429124656,1.0000348152684746,0.0004191611751278021
-0.42505291168999976,-0.42505291168999976,1.0005255615075654,0.0004260367328194848
-0.4241027463322098,-0.4241027463322098,0.9999328653738273,0.00040199848605515997
-0.42311574991399536,-0.42311574991399536,1.0002445393606985,0.0004345948831042426
-0.4223789102492447,-0.4223789102492447,0.9999199985145587,0.00043485438339669675
-0.4217714425685699,-0.4217714425685699,1.0000493052509178,0.00043531586697808614
-0.4211406490423542,-0.4211406490423542,1.0002016273059338,0.00040552190703800807
-0.42034992785847863,-0.42034992785847863,1.0003863335073209,0.00044042009245732084
-0.41972635588172125,-0.41972635588172125,0.9999140958107418,0.00044250271235021397
-0.41873365463106893,-0.41873365463106893,1.0001141301196408,0.00046637125821229425
-0.41811013331534924,-0.41811013331534924,1.0000539918743758,0.00040310796390575994
-0.41766320404130963,-0.41766320404130963,0.9999285134691853,0.00046766470510211186
-0.41719148903794123,-0.41719148903794123,1.000025162372967,0.00040363085915336015
-0.41672465232259126,-0.41672465232259126,0.9997921571938828,0.00043769315943256
-0.4161189226870192,-0.4161189226870192,1.000012648415911,0.00040799166381423754
-0.41556720668522756,-0.41556720668522756,1.000239088976776,0.0003811248689231518
-0.4151235014811391,-0.4151235014811391,0.9993337451763468,0.00042800340048178287
-0.4142798590262828,-0.4142798590262828,0.9994711743143491,0.0004380667810968939
-0.4133293779887026,-0.4133293779887026,0.9997110922225714,0.00043439297186351374
-0.4125149612453242,-0.4125149612453242,1.000113960234196,0.0004020073293179189
-0.4118334046586824,-0.4118334046586824,0.999665188338874,0.000435457815869074
-0.4111756122656516,-0.4111756122656516,1.0002756698017514,0.00040439763929764946
-0.41048578693153104,-0.41048578693153104,1.0004875258211137,0.00043836896413343223
-0.40979201872251,-0.40979201872251,1.00017845496901,0.0004691520343831746
-0.40919872863814816,-0.40919872863814816,1.0000793939904857,0.0004176801405314211
-0.4084619648492662,-0.4084619648492662,1.000003817266918,0.0004666253176018668
-0.40759542353625877,-0.40759542353625877,0.9995000379399732,0.00043602679351630383
-0.4069644752940803,-0.4069644752940803,0.9995160058682332,0.00036697765356163276
-0.40636803292436524,-0.40636803292436524,1.0006331731601161,0.00040532478491265417
-0.4059580793851637,-0.4059580793851637,1.0000165110803632,0.00040695891370738445
-0.4055342925566947,-0.4055342925566947,1.0000448843076903,0.00037483477577030514
-0.4050817314579035,-0.4050817314579035,1.0003412979027684,0.0004190692891979023
-0.404408492782386,-0.404408492782386,0.9996068514227673,0.000453395206771406
-0.4034267368093424,-0.4034267368093424,0.9996662491201691,0.00040197679632740437
-0.4026635534319212,-0.4026635534319212,0.999725431167817,0.00043446172557941163
-0.40207446952481407,-0.40207446952481407,0.9997584383479431,0.0004022053058254626
-0.40123005773857584,-0.40123005773857584,1.0000169788891944,0.00043553428154715246
-0.40053379348755697,-0.40053379348755697,0.9998291670371918,0.00043687879552966176
-0.3999356099331635,-0.3999356099331635,0.9997915686930261,0.0004083099814899279
-0.39935554055773537,-0.39935554055773537,0.9998005280852682,0.0004424203704171092
-0.39883893020960387,-0.39883893020960387,1.0000041849885264,0.0004709032957424422
-0.398346701272385,-0.398346701272385,0.9996781611118177,0.00047357793950422505
-0.3977347494350397,-0.3977347494350397,0.9998734819074026,0.0003671438510279603
-0.3970828985788103,-0.3970828985788103,0.9994368275350848,0.0004031736079916499
-0.3964036564779235,-0.3964036564779235,1.0002551405393667,0.00040449172259684693
-0.3958940462012833,-0.3958940462012833,0.9999295001256255,0.00040550090726000664
-0.3954011132271262,-0.3954011132271262,0.9999958175014463,0.00044188087300877103
-0.3949260608256736,-0.3949260608256736,0.9999263915707687,0.0004485347862802194
-0.39456513131590326,-0.39456513131590326,1.0002391478913448,0.00042545222060404793
-0.3940418620310083,-0.3940418620310083,1.000103778632861,0.0004216943588321637
-0.3930655010146438,-0.3930655010146438,1.000161307292842,0.00036897677374444495
-0.3923256168876833,-0.3923256168876833,1.0000926244011026,0.00046451224096763613
-0.3916474990131974,-0.3916474990131974,1.0000569894512947,0.00040228688458989836
-0.39095468912200887,-0.39095468912200887,0.999810221206937,0.0004650316835305158
-0.3903254020013264,-0.3903254020013264,0.9998434176455955,0.00043646942023184724
-0.3896297406667145,-0.3896297406667145,0.9996591755306413,0.00040891962064570203
-0.38891404591558965,-0.38891404591558965,0.9999358747586271,0.0004426717031191728
-0.3883041655026318,-0.3883041655026318,1.0007030816742168,0.0004234661430699011
-0.3876662987007876,-0.3876662987007876,0.9993101234795247,0.0004667308985890248
-0.38714883052598453,-0.38714883052598453,1.0003234252836966,0.00043822975477344984
-0.3866571749691502,-0.3866571749691502,1.0000099667176734,0.0004366627730304655
-0.38634100900017077,-0.38634100900017077,1.000443952632367,0.00040327675323111436
-0.3859734637720976,-0.3859734637720976,1.000197149486596,0.0004372242803461801
-0.38543415411259047,-0.38543415411259047,0.9995620477632878,0.00043949815999053544
-0.3849250002022018,-0.3849250002022018,0.9995922457895265,0.0003756078041522248
-0.3845560872461647,-0.3845560872461647,1.0000480043891287,0.000419402233304672
-0.383797181994305,-0.383797181994305,1.000125485566769,0.00042029499431693867
-0.38272429723656387,-0.38272429723656387,0.9997232452376512,0.000435010042797435
-0.38194666899580626,-0.38194666899580626,0.9999290440127753,0.00040177701872185607
-0.38120718436475726,-0.38120718436475726,0.9995515236736052,0.000434825988529334
-0.3805077641576645,-0.3805077641576645,1.0005781448380815,0.0004356454954172424
-0.37983116386749316,-0.37983116386749316,1.000390933144931,0.0004055580202641033
-0.3790342690081161,-0.3790342690081161,0.9995235497265582,0.0004405115255377757
-0.37835976048809244,-0.37835976048809244,1.0003359360014483,0.0003892800412005266
-0.37736677757493453,-0.37736677757493453,1.000415744866578,0.0004952989584999164
-0.376695085420215,-0.376695085420215,0.9997816448996779,0.0004031426740584902
-0.3761182757370989,-0.3761182757370989,0.9999976710467017,0.00040334338157246386
-0.3755747645518568,-0.3755747645518568,1.0001526254993822,0.00036827523495991073
-0.3750215268803004,-0.3750215268803004,1.0006116516577892,0.0004399586171526251
-0.3745429606664402,-0.3745429606664402,0.9995848672815562,0.0003761934186745302
-0.3740887351501442,-0.3740887351501442,0.9998866963828273,0.0004242743871382017
-0.3734437373001128,-0.3734437373001128,0.999993761265735,0.0004550985655943459
-0.37254422408004756,-0.37254422408004756,0.9996602121798543,0.0004019617202763837
-0.3717810284666484,-0.3717810284666484,1.0003217735832,0.000434511411362194
-0.3710454102816584,-0.3710454102816584,1.000273533223608,0.0004345375128680173
-0.3703089539994835,-0.3703089539994835,1.0000578557350601,0.0003717723312699772
-0.36979962263285415,-0.36979962263285415,0.9997381501792697,0.00040481727252634066
-0.36917119535137316,-0.36917119535137316,0.9997160364216497,0.0004382255478082507
-0.3685757683851989,-0.3685757683851989,1.0001282385936676,0.0004407866844900321
-0.36801503026799764,-0.36801503026799764,0.9996493469798476,0.00044470203544583556
-0.36718933903757717,-0.36718933903757717,1.000209394138619,0.0004137500789884007
-0.3663968880500761,-0.3663968880500761,0.9998885613666546,0.0004030696891923864
-0.3656728654044855,-0.3656728654044855,0.999626102786616,0.0004036307250201701
-0.36513730158039837,-0.36513730158039837,0.9999534410734785,0.00040505467925535163
-0.36461578891758106,-0.36461578891758106,0.9999441636577038,0.0004412061730787554
-0.36397898121067557,-0.36397898121067557,1.0000241674654187,0.00047368105903526604
-0.36356918003657485,-0.36356918003657485,1.0002366993250358,0.0004535749900738022
-0.3627602166219731,-0.3627602166219731,0.9999894771483572,0.00043654472035052557
-0.3617598960525356,-0.3617598960525356,0.9997416509942166,0.0004018854618987052
-0.361034732733242,-0.361034732733242,0.9996689581165243,0.0004344579128790397
-0.3603579923037614,-0.3603579923037614,0.9997137226656762,0.0004349660536077037
-0.35952929455525007,-0.35952929455525007,0.9997875406565961,0.00043652985161470314
-0.35885549061495114,-0.35885549061495114,1.0001126237675633,0.00043811156272001596
-0.35829095096560193,-0.35829095096560193,0.9996704814879512,0.0004109597758898896
-0.357715370679216,-0.357715370679216,0.9998833535591556,0.00044579991858298017
-0.35711364807066276,-0.35711364807066276,1.0003852234384896,0.0004953687020482763
-0.35647279413969957,-0.35647279413969957,0.9997944409485623,0.0004031336052140796
-0.35594893586458054,-0.35594893586458054,0.9997532570530934,0.0004362537369422357
-0.3553139165524044,-0.3553139165524044,0.9999725423070915,0.00040352385842382343
-0.35468106897824325,-0.35468106897824325,0.9996997829217491,0.000405420645614536
-0.35429347621102353,-0.35429347621102353,0.9997105339253407,0.00040738794156503795
-0.353882291730406,-0.353882291730406,0.9999323543268313,0.0003781677498960878
-0.3534520689281635,-0.3534520689281635,1.0001775093172796,0.0004188784657793686
-0.35287390046505607,-0.35287390046505607,0.9999071155877619,0.00048026004630493876
-0.35210361816498337,-0.35210361816498337,0.99989754068427,0.00040187018928287044
-0.35106043210689675,-0.35106043210689675,1.0001189424970067,0.00040175523131237567
-0.35035002265140064,-0.35035002265140064,1.0000003829187496,0.0004367386848133076
-0.34973411163737184,-0.34973411163737184,0.9996321685915776,0.000402870143227275
-0.3490931342348631,-0.3490931342348631,0.9998648108486824,0.0004368961807545006
-0.3483218309062067,-0.3483218309062067,0.9998507225770397,0.00040922074964155436
-0.3476601858586946,-0.3476601858586946,0.9997310643392293,0.00041269008054369124
-0.3467057658112026,-0.3467057658112026,0.99975517137569,0.0004722199369700989
-0.3459248992949142,-0.3459248992949142,0.9999756856091541,0.00040307891038561083
-0.3454624917270849,-0.3454624917270849,0.999948557332773,0.0004676522399365982
-0.34500683250516884,-0.34500683250516884,0.9998044740487757,0.0004037392935711424
-0.3445629874957376,-0.3445629874957376,0.9997754393931892,0.0004046774120446471
-0.3441738268098561,-0.3441738268098561,1.000141769716541,0.00040666134625966667
-0.34377370599613644,-0.34377370599613644,0.9998373355624594,0.00044223479237822495
