time,time,flux,flux_err
-0.49910005239750416,-0.49910005239750416,0.9999382240393899,5.27111073730498e-05
-0.4982430912010993,-0.4982430912010993,1.0000268752952917,5.2333096858673787e-05
-0.4975076181872282,-0.4975076181872282,0.999995165270685,5.2544563245483406e-05
-0.49664948723269237,-0.49664948723269237,0.9999084790842113,5.239674018571584e-05
-0.4957062695961213,-0.4957062695961213,0.9999731389020166,5.016584626357408e-05
-0.4949315337784356,-0.4949315337784356,0.999903172386249,4.7852404547088064e-05
-0.49428161192918196,-0.49428161192918196,1.0000661473626624,4.7784986743986896e-05
-0.49350877903343643,-0.49350877903343643,0.9999033866585529,4.8256603541978866e-05
-0.49303339929610956,-0.49303339929610956,0.9999949146285608,4.7718126354274204e-05
-0.49213057351007594,-0.49213057351007594,0.9999908768787564,4.774194161804806e-05
-0.4915760646166746,-0.4915760646166746,0.9999956193154256,4.8189231235267576e-05
-0.49089702584897166,-0.49089702584897166,1.0000005853334843,4.7946702660765007e-05
-0.4897021823679097,-0.4897021823679097,1.0000326988834998,4.808028391852194e-05
-0.4889839147857856,-0.4889839147857856,0.9998790501650021,4.780936837764289e-05
-0.4884106427372899,-0.4884106427372899,0.9999020881661025,4.807746847933297e-05
-0.48764369724376594,-0.48764369724376594,0.9999730477546185,4.774228793020066e-05
-0.4867900575598469,-0.4867900575598469,1.000018685174171,4.853735200626648e-05
-0.48594659617519936,-0.48594659617519936,1.0000091472353871,4.9286843501889086e-05
-0.48519434974587056,-0.48519434974587056,1.0000189891066549,4.778839311268575e-05
-0.4845150995301083,-0.4845150995301083,0.9999363143452772,4.8093266563077074e-05
-0.4838904359465232,-0.4838904359465232,1.0000578861692555,4.7788601733784074e-05
-0.48318178579502274,-0.48318178579502274,0.9999573457984153,4.783054723120397e-05
-0.4825470329786185,-0.4825470329786185,0.999911766723206,4.811058482041727e-05
-0.48190071020217146,-0.48190071020217146,0.9999745826467834,4.800360897710329e-05
-0.4809070419461932,-0.4809070419461932,1.0001700493750914,4.803949003066004e-05
-0.48001433817553335,-0.48001433817553335,0.9999049925534693,4.784055159147871e-05
-0.47944587871897965,-0.47944587871897965,1.00002479439007,4.801549631444978e-05
-0.4788452167820651,-0.4788452167820651,1.0000290833526144,4.790061868487967e-05
-0.4779810021776939,-0.4779810021776939,1.0000402148440652,4.7893086367462915e-05
-0.4771263846021611,-0.4771263846021611,1.0000584279200528,4.8594534873196125e-05
-0.4763960029667942,-0.4763960029667942,0.9999572983526029,4.9150134958345404e-05
-0.4757974100124557,-0.4757974100124557,1.0001293365896093,4.776856030773867e-05
-0.4750658684730297,-0.4750658684730297,0.9999840648972962,4.799208729121703e-05
-0.47458088600833437,-0.47458088600833437,1.0000415009491834,4.7785126010865144e-05
-0.4738749055279186,-0.4738749055279186,1.0000050621015737,4.783002164639557e-05
-0.47327453414036424,-0.47327453414036424,1.000015707344771,4.796552046689149e-05
-0.4727145329961786,-0.4727145329961786,0.9999221949031092,4.794608586292657e-05
-0.4720556016138289,-0.4720556016138289,1.000055420164753,4.795510025431133e-05
-0.4710267222457333,-0.4710267222457333,1.0001103963563545,4.814458589160656e-05
-0.4703556464606663,-0.4703556464606663,0.9998987452831637,4.780706259440149e-05
-0.469822740033851,-0.469822740033851,0.9999081831414095,4.8075807855896324e-05
-0.4690278429538012,-0.4690278429538012,1.0000850582502285,4.776836952348613e-05
-0.46819616259017494,-0.46819616259017494,0.9999891316029293,4.8376505181000004e-05
-0.46740219871571753,-0.46740219871571753,1.0000367768138474,4.787233624783228e-05
-0.4665813659928972,-0.4665813659928972,0.9999854189855858,4.77906566157688e-05
-0.4660702880239114,-0.4660702880239114,1.0000060067230392,4.807165935272488e-05
-0.4654477919742931,-0.4654477919742931,1.0000565482560195,4.805322754401507e-05
-0.46494107561011333,-0.46494107561011333,1.000009491954915,4.772851438907062e-05
-0.4641237123345491,-0.4641237123345491,0.9999999195673791,4.786384844551654e-05
-0.46356678582378663,-0.46356678582378663,1.0000106514251068,4.8130840575387156e-05
-0.46274881522695066,-0.46274881522695066,0.9999832755756778,4.795095850722386e-05
-0.4616563695948571,-0.4616563695948571,0.9999725418770142,4.799059787452203e-05
-0.46094275823561476,-0.46094275823561476,1.0000491691920081,4.795177316180016e-05
-0.460382789443247,-0.460382789443247,0.9999516863835585,4.79599642626346e-05
-0.45956111675768624,-0.45956111675768624,0.999956863979486,4.788756462038354e-05
-0.45876361875853033,-0.45876361875853033,0.999979809799246,4.851489764240883e-05
-0.458104377053678,-0.458104377053678,1.0000148369253707,4.787151356038033e-05
-0.45727494277525693,-0.45727494277525693,1.0000884123613232,4.779227470133857e-05
-0.45663387127569877,-0.45663387127569877,0.9999121015758681,4.808470558967582e-05
-0.45605121238040736,-0.45605121238040736,1.0000206284493036,4.7842660224985076e-05
-0.4554532915033633,-0.4554532915033633,1.0000828867112346,4.778047695808175e-05
-0.4547866274602711,-0.4547866274602711,1.0000369199464831,4.801369992332349e-05
-0.4540965821099235,-0.4540965821099235,1.0000266751955302,4.796051746183118e-05
-0.45323077904758974,-0.45323077904758974,0.9999263812040795,4.806731213689339e-05
-0.45217082151502835,-0.45217082151502835,0.9999063646569276,4.782329985053867e-05
-0.45155077090894336,-0.45155077090894336,0.9999306400696553,4.8171580980546946e-05
-0.45092747392773164,-0.45092747392773164,0.9999926237557805,4.774075111997607e-05
-0.4500709160929546,-0.4500709160929546,1.0000343810804204,4.8221877379137514e-05
-0.44934947448200546,-0.44934947448200546,0.999889945356152,4.830549059182768e-05
-0.4484939727000892,-0.4484939727000892,0.9999827056274431,4.79071918129779e-05
-0.44786160860967356,-0.44786160860967356,0.9999892682267746,4.776711992602318e-05
-0.4471616469556466,-0.4471616469556466,1.000046837316639,4.812731035702538e-05
-0.4466469808190595,-0.4466469808190595,1.0000872167481418,4.791137610279377e-05
-0.445785089963465,-0.445785089963465,0.9999320637772738,4.7916995485081513e-05
-0.4452918081602547,-0.4452918081602547,0.9999834817947665,4.796013016653083e-05
-0.4445059605117422,-0.4445059605117422,0.9999993207280046,4.7833764783827726e-05
-0.4435064194811275,-0.4435064194811275,0.9999621241083094,4.823648827679469e-05
-0.44251106412848457,-0.44251106412848457,0.9999193123440634,4.7656680828353946e-05
-0.4420987262768904,-0.4420987262768904,1.00004803146793,4.819239805280122e-05
-0.4412399583525257,-0.4412399583525257,1.0000557239970111,4.762042069830676e-05
-0.4404536277957959,-0.4404536277957959,1.0000194835379008,4.826522628953362e-05
-0.43978055014740675,-0.43978055014740675,0.999968839708394,4.8355738794956595e-05
-0.43884545539913233,-0.43884545539913233,0.9999638099533626,4.779172024389828e-05
-0.43831856138422154,-0.43831856138422154,1.0000190403788336,4.782008308426837e-05
-0.437607916755951,-0.437607916755951,0.9999908065246073,4.804007828305127e-05
-0.43684453460155054,-0.43684453460155054,0.9999677183872906,4.777906184474908e-05
-0.4361997690692078,-0.4361997690692078,1.0000538611580914,4.801119225755817e-05
-0.4354319241509074,-0.4354319241509074,0.9999359619939294,4.802545901039487e-05
-0.4344509785703849,-0.4344509785703849,1.0000542058163666,4.8038412699824256e-05
-0.43340300509007645,-0.43340300509007645,0.999966257245477,4.781555211269567e-05
-0.43296140937600286,-0.43296140937600286,1.0000485502678944,4.817229645496615e-05
-0.4323087062133709,-0.4323087062133709,0.9999955478333329,4.773485091152066e-05
-0.43146796796936543,-0.43146796796936543,0.9998721754479136,4.8154613112328695e-05
-0.430770073281019,-0.430770073281019,1.0000814789911423,4.826424702889131e-05
-0.42990897882846185,-0.42990897882846185,0.9999744435336456,4.79057095452874e-05
-0.4292379524034914,-0.4292379524034914,0.9999596844401524,4.7764316013460787e-05
-0.42856944392842705,-0.42856944392842705,0.9999383491781145,4.812724563515212e-05
-0.4279393763601547,-0.4279393763601547,1.0000215681919864,4.776603004612636e-05
-0.42702397023676897,-0.42702397023676897,1.0000492897900854,4.81206778549025e-05
-0.4265164243202889,-0.4265164243202889,1.0000220961563364,4.7807864262746695e-05
-0.425522070057923,-0.425522070057923,1.0000847027105697,4.795133131603468e-05
-0.4244977626251057,-0.4244977626251057,1.000138216715058,4.812424346484065e-05
-0.4238043037621537,-0.4238043037621537,0.9999530907522619,4.784864416775748e-05
-0.42320622236002237,-0.42320622236002237,0.9999694726820536,4.7923693626658065e-05
-0.4223448784323409,-0.4223448784323409,0.9999455055198204,4.7882310828727394e-05
-0.42158152808842714,-0.42158152808842714,0.9999173654625139,4.829704628025079e-05
-0.4208078854775522,-0.4208078854775522,1.0000135895982094,4.804440158379226e-05
-0.42002228202763947,-0.42002228202763947,0.9998609275200673,4.776054666469775e-05
-0.4194968671508832,-0.4194968671508832,0.9999974597912422,4.780357963146723e-05
-0.41885141224483957,-0.41885141224483957,1.0000126956993107,4.812918687892011e-05
-0.41805627283465585,-0.41805627283465585,1.000001618043164,4.789913581719014e-05
-0.41752321893873157,-0.41752321893873157,0.9999701768922911,4.78315038649045e-05
-0.4166006448271219,-0.4166006448271219,0.9999518332261971,4.7881743150090874e-05
-0.4157798553671455,-0.4157798553671455,1.0000123429949153,4.930583673202686e-05
-0.41474660549429243,-0.41474660549429243,0.999919160588904,4.78270660204386e-05
-0.4142580758809345,-0.4142580758809345,0.9999983888461209,4.818449069730333e-05
-0.41329018683754837,-0.41329018683754837,1.000143239123788,4.761560892201102e-05
-0.4125768681959016,-0.4125768681959016,0.9999489590876228,4.819898566289255e-05
-0.411927848533378,-0.411927848533378,0.9999610945028545,4.829423434580755e-05
-0.4109422435780289,-0.4109422435780289,1.0001129130799797,4.7788339762356606e-05
-0.41040222840965723,-0.41040222840965723,1.0000281225688326,4.794649530759068e-05
-0.4098028839303879,-0.4098028839303879,1.000010267899357,4.805240524687352e-05
-0.4093189761944814,-0.4093189761944814,0.999963994502766,4.77666338958554e-05
-0.40842008908221034,-0.40842008908221034,1.0001287420644744,4.8033052768136424e-05
-0.40770901836513074,-0.40770901836513074,1.0000165963904604,4.8044737450734026e-05
-0.40674084512575065,-0.40674084512575065,0.9999327764807037,4.789327276886504e-05
-0.4056691260280786,-0.4056691260280786,1.0000055278043127,4.796945873768496e-05
-0.40507768152165224,-0.40507768152165224,1.000009032132328,4.8177440241894734e-05
-0.4041489485418424,-0.4041489485418424,0.9998936746900053,4.759897201849235e-05
-0.4034383341175271,-0.4034383341175271,1.0000176512924555,4.803753070238651e-05
-0.40266447195608635,-0.40266447195608635,1.0000005452188885,4.824120890774007e-05
-0.40165968891524245,-0.40165968891524245,1.000002742698914,4.8157432955920945e-05
-0.40110023573215586,-0.40110023573215586,1.0000209844247845,4.7945187472745657e-05
-0.40048629001248626,-0.40048629001248626,0.9999205939608149,4.789603359214695e-05
-0.3998323265463114,-0.3998323265463114,0.9999131614186764,4.778108824768232e-05
-0.39904016819782556,-0.39904016819782556,0.9999572254407217,4.811324819687653e-05
-0.3982022014213726,-0.3982022014213726,1.0000658092396144,4.793195559386232e-05
-0.3972869492950849,-0.3972869492950849,1.0000745067765267,4.803790974896474e-05
-0.3961468836147105,-0.3961468836147105,0.999990446980932,4.797577318833335e-05
-0.39565240195661316,-0.39565240195661316,0.9999559673521885,4.803711312863076e-05
-0.39465782592014875,-0.39465782592014875,1.0001621544456616,4.777019803393147e-05
-0.39399196419108196,-0.39399196419108196,0.9999978860517114,4.8006193065157835e-05
-0.3931871984765166,-0.3931871984765166,1.0000584368226202,4.82066041915052e-05
-0.3920936378999613,-0.3920936378999613,0.9999853825977365,4.77691495266549e-05
-0.39154512966633775,-0.39154512966633775,0.9999955092262308,4.797866110379695e-05
-0.39081431190716104,-0.39081431190716104,0.9999742072054685,4.795484250530473e-05
-0.39002046921523287,-0.39002046921523287,0.9999387750300566,4.8063152815970704e-05
-0.38928917691519016,-0.38928917691519016,1.0000773467474373,4.781921677655437e-05
-0.3882959883194417,-0.3882959883194417,1.0001016043801734,4.794844263828434e-05
-0.38733236451807895,-0.38733236451807895,1.000103255254153,4.8138385537183185e-05
-0.38652255104971117,-0.38652255104971117,0.9999961055439212,4.7962445492576665e-05
-0.38576557523338123,-0.38576557523338123,0.999983631536491,4.775252319145483e-05
-0.3849471805966459,-0.3849471805966459,0.9999713306870032,4.789128070597171e-05
-0.384238895267481,-0.384238895267481,0.9999676874173797,4.8113000680209834e-05
-0.3831722971692216,-0.3831722971692216,0.9999507966376256,4.801880788542552e-05
-0.38249526860308836,-0.38249526860308836,0.9999771246693298,4.778839867492232e-05
-0.38176965127058793,-0.38176965127058793,1.000078392682115,4.806609809492924e-05
-0.38103505763283463,-0.38103505763283463,1.0000315385976808,4.77603549810258e-05
-0.38036621802893933,-0.38036621802893933,1.0000180984049143,4.79819370934461e-05
-0.3793434164224891,-0.3793434164224891,0.9999504199427799,4.807250157570526e-05
-0.3785391331795836,-0.3785391331795836,0.9999640770653059,4.8049690850875097e-05
-0.3773758867522702,-0.3773758867522702,0.999978647307793,4.779445953877103e-05
-0.37683835767384155,-0.37683835767384155,0.9999129194245844,4.807990057098399e-05
-0.37594548770284747,-0.37594548770284747,0.9998850746639596,4.775678152501351e-05
-0.37515651907015124,-0.37515651907015124,1.0000681072640016,4.816232433247824e-05
-0.37412051075079944,-0.37412051075079944,1.0000676252012783,4.801625677569746e-05
-0.3732676448300481,-0.3732676448300481,1.0000983663361187,4.780231273992654e-05
-0.37263686108926775,-0.37263686108926775,0.9999929104875726,4.8144694974646955e-05
-0.3719882547709858,-0.3719882547709858,0.999978230265184,4.760218583139101e-05
-0.37128670210659037,-0.37128670210659037,0.9999654742788424,4.821922607771975e-05
-0.3704788209463004,-0.3704788209463004,0.9998988260267445,4.7863795252009636e-05
-0.3695311967981979,-0.3695311967981979,0.9999469731981503,4.789982161474736e-05
-0.36852407051774205,-0.36852407051774205,1.000017160760515,4.8159581383745505e-05
-0.3678562579996651,-0.3678562579996651,0.9999512847240725,4.798744472031976e-05
-0.3668922341661528,-0.3668922341661528,0.9999801235579691,4.776153050088369e-05
-0.36619264165055937,-0.36619264165055937,1.0000332232136249,4.789031194640301e-05
-0.3653490763856098,-0.3653490763856098,0.9999566605431948,4.8195670746279227e-05
-0.36416398630826735,-0.36416398630826735,0.9999646137004692,4.7765650639739644e-05
-0.3636362817866029,-0.3636362817866029,0.9999594885650064,4.797548517274387e-05
-0.3628968208446167,-0.3628968208446167,0.9999667051755754,4.7960799644197166e-05
-0.3622642467758851,-0.3622642467758851,1.0000958478084052,4.790369696751546e-05
-0.36163456954236606,-0.36163456954236606,1.000019450460292,4.7983599808868675e-05
-0.3605160737293772,-0.3605160737293772,1.0001061811338878,4.788301728039569e-05
-0.3597209485247731,-0.3597209485247731,0.9999752790082859,4.8208638434003014e-05
-0.35866492544009815,-0.35866492544009815,0.9999706928639291,4.782998270564832e-05
-0.35803438908187674,-0.35803438908187674,1.0000611009641873,4.795202511314895e-05
-0.35721812966803557,-0.35721812966803557,0.9998702883393358,4.7870476217640206e-05
-0.35638016856391913,-0.35638016856391913,0.9999854724214092,4.811645218942151e-05
-0.35530250845768024,-0.35530250845768024,0.9999727427793028,4.801791631825817e-05
-0.35456794120254925,-0.35456794120254925,0.9999845715088815,4.778974125246253e-05
-0.3538563914451515,-0.3538563914451515,0.9999870448267087,4.8066648707636955e-05
-0.35313111449067947,-0.35313111449067947,1.0000309731969015,4.7905788401573636e-05
-0.3524712268030271,-0.3524712268030271,0.9999670996352716,4.800600661733811e-05
-0.35120118091290353,-0.35120118091290353,1.0000037214451438,4.7877813955958464e-05
-0.3504400678357342,-0.3504400678357342,0.999975655751314,4.8207521986134615e-05
-0.3493624695256585,-0.3493624695256585,1.000075164467964,4.783162269585923e-05
-0.3487213324464392,-0.3487213324464392,1.0000971202046718,4.795302001509879e-05
-0.3479144832934253,-0.3479144832934253,0.9999676098938333,4.787103466329685e-05
-0.3470919033192331,-0.3470919033192331,1.0000117330974327,4.811964986119436e-05
-0.34601267366670074,-0.34601267366670074,0.9999248712070752,4.801651526778896e-05
-0.3452589209366124,-0.3452589209366124,0.9999901471589269,4.778354912303807e-05
-0.344414484637673,-0.344414484637673,0.9999725025388324,4.813549890344895e-05
-0.34369033414404837,-0.34369033414404837,1.0001205119268024,4.7910305310462676e-05
-0.3428647980414098,-0.3428647980414098,0.999997036593548,4.801015237440962e-05
-0.34174638041877187,-0.34174638041877187,1.0000091838379528,4.783666898342522e-05
-0.34093347597226964,-0.34093347597226964,1.0000160226410675,4.822103222490097e-05
-0.339978743204847,-0.339978743204847,0.9999646178554815,4.787385134562317e-05
-0.33918637204915286,-0.33918637204915286,0.9998987689752361,4.771040425480088e-05
-0.33844666320364925,-0.33844666320364925,1.0001884862339794,4.810431071348369e-05
-0.33766943121736404,-0.33766943121736404,0.9999950992408377,4.8036107581587016e-05
-0.3364734638831578,-0.3364734638831578,0.9999837745751886,4.7882645676957186e-05
-0.33581303477985786,-0.33581303477985786,0.9999954424033035,4.8021638198102424e-05
-0.3349797558243154,-0.3349797558243154,1.0000156575070043,4.796110304837158e-05
-0.33424535401863975,-0.33424535401863975,0.9999748476075997,4.805911968856288e-05
-0.33330822688294576,-0.33330822688294576,0.9998955181034779,4.788478201296665e-05
-0.33232224289677104,-0.33232224289677104,1.0000794377861701,4.790451085098117e-05
-0.33138456868764476,-0.33138456868764476,0.9999799639119867,4.8148750056768655e-05
-0.33063071746146305,-0.33063071746146305,0.9999897374046732,4.798665686229948e-05
-0.32965230187401173,-0.32965230187401173,1.0000243675835947,4.7762177527634053e-05
-0.32897456716455054,-0.32897456716455054,1.0000442961808527,4.7883559023889065e-05
-0.32823221713188105,-0.32823221713188105,0.999865782365854,4.819365285069857e-05
-0.3269422075129114,-0.3269422075129114,0.9999099695809293,4.7915660934793844e-05
-0.32636530414165466,-0.32636530414165466,1.0001359263798315,4.804310193560904e-05
-0.3255172921519261,-0.3255172921519261,0.9998850482692301,4.776183234905503e-05
-0.32482247333973646,-0.32482247333973646,0.9999886396702106,4.81322206899281e-05
-0.3237523544870783,-0.3237523544870783,0.9999540138006656,4.80115912939557e-05
-0.32292094036238267,-0.32292094036238267,0.999930899219207,4.786800101868589e-05
-0.321820615924662,-0.321820615924662,0.9999621579888787,4.818664578989799e-05
-0.32127033653960096,-0.32127033653960096,0.9999835566210628,4.7910902131349393e-05
-0.3203424392617308,-0.3203424392617308,1.000036411640543,4.775947114319265e-05
-0.31967016170383433,-0.31967016170383433,1.0000309686480493,4.788288855807842e-05
-0.3189531168056419,-0.3189531168056419,1.0000971897551822,4.819836782901973e-05
-0.3176402777258772,-0.3176402777258772,0.9999434993856247,4.7914298052361264e-05
-0.31706445055024235,-0.31706445055024235,1.0000016014715256,4.803853054422503e-05
-0.3161364347673953,-0.3161364347673953,0.9999504318509244,4.791328569211307e-05
-0.3154048290540231,-0.3154048290540231,1.0000269649295024,4.800824784384833e-05
-0.31444932902231815,-0.31444932902231815,0.9999772904378712,4.8012272607507505e-05
-0.3136188608856173,-0.3136188608856173,1.0000018106998927,4.78683472419804e-05
-0.31292062722495756,-0.31292062722495756,1.000092303647035,4.807775232065246e-05
-0.312051971591427,-0.312051971591427,0.9999558762683558,4.8054647851081996e-05
-0.31143065423239025,-0.31143065423239025,1.0000289417113177,4.768561127143789e-05
-0.31070032736170106,-0.31070032736170106,1.000146355615851,4.787164227402795e-05
-0.3099393056239933,-0.3099393056239933,1.000009371194732,4.8126403960280285e-05
