time,time,flux,flux_err
-0.49995505213276675,-0.49995505213276675,1.000008975335192,0.00032027810361747236
-0.4998677523864899,-0.4998677523864899,0.999922690183076,0.000295773125779831
-0.4997663397458382,-0.4997663397458382,1.0001629513035932,0.0003017158370910812
-0.49957283370458755,-0.49957283370458755,1.0000126808982068,0.00029022982549012735
-0.4994874069787329,-0.4994874069787329,1.000016614116444,0.000296975584184716
-0.4994289921989548,-0.4994289921989548,1.0002734329646046,0.0002831964464570273
-0.49937296705757034,-0.49937296705757034,0.9998427436283854,0.00030409493768743484
-0.4993083054825547,-0.4993083054825547,0.9998591168256248,0.00030369409538448294
-0.49920705530967097,-0.49920705530967097,0.9995580342765236,0.000300030348975512
-0.4990131024445873,-0.4990131024445873,0.9999194417270821,0.0002927482212882492
-0.49890029538655656,-0.49890029538655656,0.9997696468152579,0.0002989808283041726
-0.49876482239196773,-0.49876482239196773,1.0001503393348108,0.00029082068731843883
-0.4986419399647275,-0.4986419399647275,1.0000369400068334,0.00030186598012614833
-0.49850769660115474,-0.49850769660115474,1.0000514964880016,0.0002923301693220769
-0.498371594157652,-0.498371594157652,1.0000011256107673,0.00029188079367999125
-0.49826728051411917,-0.49826728051411917,0.9992901305946695,0.00030085769605978237
-0.4981072473412496,-0.4981072473412496,0.9997783109346541,0.0002970296873824091
-0.4979712438420393,-0.4979712438420393,0.9996468524130144,0.00030606464677701144
-0.4978801702498458,-0.4978801702498458,1.0001612445822001,0.00029339196168998106
-0.4976772513371543,-0.4976772513371543,0.9997095178970259,0.0002940921742802756
-0.4975643898331327,-0.4975643898331327,1.0001673985942383,0.0003030349002601717
-0.49748679746116975,-0.49748679746116975,1.0000447992057802,0.0002971522639739467
-0.4973886522144312,-0.4973886522144312,1.0002656178383182,0.00029965396591398756
-0.49726634142716647,-0.49726634142716647,1.0002178765395697,0.00030994985179849584
-0.4970860564673785,-0.4970860564673785,0.9998862747932563,0.0002914592986497452
-0.49696135636913824,-0.49696135636913824,1.0000562475856896,0.00030300609669724296
-0.49674543897126566,-0.49674543897126566,0.999966575202189,0.0003004502520310709
-0.4966212049796013,-0.4966212049796013,0.9997753845106624,0.00031585419553798843
-0.49652397595345976,-0.49652397595345976,0.9995518485215154,0.00029705999356689105
-0.4963844729529228,-0.4963844729529228,1.0000307135943456,0.00030480786478520697
-0.4962743415904697,-0.4962743415904697,1.000132367563502,0.00029339822147299755
-0.4962136671427288,-0.4962136671427288,1.0002440527686596,0.00029070536753776226
-0.496049352119735,-0.496049352119735,1.000248874045302,0.00029863018417741256
-0.49594478270300896,-0.49594478270300896,1.0001087875932066,0.000301895716728485
-0.4958634278809768,-0.4958634278809768,0.9999562260739097,0.00029116349180588886
-0.4957857684552437,-0.4957857684552437,1.0005608564140487,0.0002957426975373383
-0.4956992632098263,-0.4956992632098263,1.0000028710244835,0.0003063292278414149
-0.4955702738443506,-0.4955702738443506,1.0005258067351435,0.00030553883703504056
-0.49547282704879764,-0.49547282704879764,0.9997808871919875,0.00029933535559625033
-0.4953454390692059,-0.4953454390692059,1.0000084445356847,0.00029593141052531235
-0.4952387442041072,-0.4952387442041072,1.0005326818788352,0.00028503952844169715
-0.4951309402284096,-0.4951309402284096,1.0001192048557743,0.00029516695462917765
-0.4950296684692148,-0.4950296684692148,1.000270328456453,0.0003111814582124678
-0.4948917946807342,-0.4948917946807342,1.000474403369973,0.0003045784991157159
-0.49474733384558933,-0.49474733384558933,0.9996981773458966,0.00029897046704271604
-0.49462526031711607,-0.49462526031711607,1.0002184286418117,0.00028460984648228684
-0.4945234851285932,-0.4945234851285932,0.9998745469238935,0.00029741032898087587
-0.49438481387187494,-0.49438481387187494,0.9999851385771773,0.0002973539478701742
-0.4942806580409524,-0.4942806580409524,0.9997659116928167,0.0002912010849966966
-0.4941663771358435,-0.4941663771358435,1.0001822736641228,0.0002966096264502999
-0.49399880635901355,-0.49399880635901355,1.0001875848171984,0.00029959273964119367
-0.49387860552233176,-0.49387860552233176,0.9998822885851038,0.00031000021230468024
-0.4937270646390971,-0.4937270646390971,1.0002234921876438,0.0003018574569490917
-0.49359837792289907,-0.49359837792289907,0.9995527429267483,0.00029970884686437906
-0.4935186350834556,-0.4935186350834556,0.9999678907301874,0.00029300743641782524
-0.4934019088643254,-0.4934019088643254,1.0001802339640196,0.0002894642056783963
-0.49331922761921304,-0.49331922761921304,0.999776090527801,0.0003013113111959839
-0.4930528427736135,-0.4930528427736135,1.0000114934459428,0.00030225898501283244
-0.4928665522355004,-0.4928665522355004,0.99982075534448,0.00030973347014183
-0.49272681712755,-0.49272681712755,1.000064898644532,0.00028411967490117064
-0.4925882860319689,-0.4925882860319689,0.9998032170088905,0.0002826634406217641
-0.4925075758757885,-0.4925075758757885,0.9999258017263537,0.0003004270853288605
-0.4924056654999731,-0.4924056654999731,0.9997862519996019,0.00029771045329322817
-0.49230080083943906,-0.49230080083943906,1.0004721211353262,0.0003064483503507379
-0.4921426672997768,-0.4921426672997768,0.9999095085243205,0.0002978937437835423
-0.49196004500990964,-0.49196004500990964,0.9998516419156358,0.00029593789087024424
-0.49184279702894856,-0.49184279702894856,0.9996921076166748,0.0003016133216963135
-0.4916920814313926,-0.4916920814313926,0.9995237984987535,0.000297416213914808
-0.4915665018343134,-0.4915665018343134,1.0004833677112002,0.0003044039309367424
-0.49141459784150354,-0.49141459784150354,0.9997305911420936,0.0002963954656046101
-0.4912700002882048,-0.4912700002882048,1.000288961073084,0.0002866342490421996
-0.49118393741955513,-0.49118393741955513,0.9995836647911591,0.00030945138589029913
-0.49103613701299764,-0.49103613701299764,1.0000994740923572,0.0002967145044209575
-0.4909298079175642,-0.4909298079175642,1.0003864052338804,0.0002909228819219253
-0.49086061499401695,-0.49086061499401695,1.0000580596787003,0.00033077164683302697
-0.49071809315792053,-0.49071809315792053,0.999894635153576,0.00029463730147395696
-0.4906401237036334,-0.4906401237036334,1.0004065553098944,0.0003158148736575847
-0.49054678804968715,-0.49054678804968715,1.0002180619803425,0.00030061744909469143
-0.4904120743041858,-0.4904120743041858,0.9999537217576305,0.00030198945488955437
-0.4902607660042122,-0.4902607660042122,1.000191842107953,0.00029461835183246124
-0.49007708805875155,-0.49007708805875155,1.0001517068849881,0.0002935171414312137
-0.4898313649027841,-0.4898313649027841,0.9999012804249775,0.0003037803750180035
-0.48970423315913647,-0.48970423315913647,0.9996503696188551,0.00029363113930634145
-0.48947929490095704,-0.48947929490095704,0.9997736573193761,0.0002967747504381131
-0.4893093346559908,-0.4893093346559908,0.9999699025076229,0.00029644279770504666
-0.4892232806494576,-0.4892232806494576,1.0003524135280757,0.00029461390127910505
-0.4891673155972967,-0.4891673155972967,0.9999942940581181,0.00029151026407751006
-0.489117618027376,-0.489117618027376,1.000122479194923,0.00030033888261941525
-0.4889352885147673,-0.4889352885147673,1.000145888882368,0.0002981736173921917
-0.4888473376267939,-0.4888473376267939,1.0004749994706388,0.0002971121701890001
-0.4887574826992932,-0.4887574826992932,0.9995167608893027,0.00029671427162802444
-0.4886811166710686,-0.4886811166710686,0.999947870546837,0.0002908951582964695
-0.48862134829250864,-0.48862134829250864,1.000293893610494,0.0003151903638774401
-0.48853591664956186,-0.48853591664956186,0.9998361526608562,0.00029131451399513626
-0.4883665750268847,-0.4883665750268847,1.0002117214863326,0.0002998735838507146
-0.48817047912889394,-0.48817047912889394,0.9998087335518079,0.0003000650004946267
-0.48796690434537593,-0.48796690434537593,0.999970453190687,0.0002975258828432607
-0.4878008071376826,-0.4878008071376826,0.9998045647687871,0.00031349174710817377
-0.4876490956434282,-0.4876490956434282,0.9997229358982904,0.00028948694675165595
-0.4874374402643298,-0.4874374402643298,0.9996182640872879,0.00029761585719222805
-0.48724276491848284,-0.48724276491848284,0.9995683538258087,0.0002974681670816049
-0.4871231433979119,-0.4871231433979119,1.000138716688816,0.0002900350443599493
-0.48700625623459926,-0.48700625623459926,0.9999964251349633,0.0002928676838634318
-0.48688708568952277,-0.48688708568952277,1.0001711557979207,0.00029925565167738193
-0.4867819725244772,-0.4867819725244772,1.000056379931808,0.0002998660066391637
-0.4867092054075329,-0.4867092054075329,0.9996329544429983,0.0002974511545321619
-0.48660245080827735,-0.48660245080827735,1.000095443235844,0.0002956564654710832
-0.48644381151825655,-0.48644381151825655,1.000239023937769,0.0003077004901875899
-0.4863059929019073,-0.4863059929019073,1.0000176870233122,0.00029953946698838
-0.4860629794013221,-0.4860629794013221,0.9998502813646898,0.00029025850850318677
-0.485880463529611,-0.485880463529611,0.999739145189389,0.0003050994556704681
-0.48582536185422215,-0.48582536185422215,0.9997273007547436,0.0002920973141947024
-0.485753801825922,-0.485753801825922,1.0001043145073851,0.00030501975092830393
-0.4855889557744376,-0.4855889557744376,0.9999753543794265,0.0003007193128065334
-0.4854533712787088,-0.4854533712787088,0.9999500938532947,0.00029837413523004056
-0.48538107056956503,-0.48538107056956503,0.9996218173470343,0.00029138699787500873
-0.4852997984402464,-0.4852997984402464,1.0001945877468443,0.0003020896362829694
-0.48521367050998376,-0.48521367050998376,1.0002500634408389,0.0002919856981219517
-0.4851482107798802,-0.4851482107798802,0.9997790472996732,0.000301690132096499
-0.48505254236661133,-0.48505254236661133,1.0005153714879509,0.00029520794590579143
-0.4849304683491937,-0.4849304683491937,0.9999271271329102,0.00029955308972720904
-0.48481363990867976,-0.48481363990867976,0.9998762455020568,0.00028786624906249877
-0.48471971078688514,-0.48471971078688514,1.0000208231583425,0.00029665668636611316
-0.4846109444537433,-0.4846109444537433,1.000247492909899,0.00029488431752333307
-0.4844955777647556,-0.4844955777647556,0.9999516698533764,0.00030188029319320087
-0.4843956860800972,-0.4843956860800972,1.0003035359043047,0.0003074491964179946
-0.4842507242894499,-0.4842507242894499,0.999665342043443,0.0002920303242580468
-0.4841231088619679,-0.4841231088619679,1.0001866602425988,0.00030839199466376757
-0.4839860652340576,-0.4839860652340576,1.0001281521729133,0.0002991254606584258
-0.4838218157296069,-0.4838218157296069,1.000203652660619,0.00028786341283688227
-0.4837728807979147,-0.4837728807979147,1.0002126062968064,0.00029599312165560235
-0.48362894282618074,-0.48362894282618074,0.9998514301129611,0.00029205071356933006
-0.48353820873016956,-0.48353820873016956,1.0000305731956336,0.0002961265912274251
-0.483357416963554,-0.483357416963554,1.0001246700004731,0.00029832986154797094
-0.483203899092041,-0.483203899092041,0.9998359498718467,0.00029775632168723765
-0.48305770463339287,-0.48305770463339287,1.000082448981124,0.0002988858608176801
-0.482971486003953,-0.482971486003953,1.0003155141848201,0.0002920045103222713
-0.4828746929852059,-0.4828746929852059,0.9997625605788405,0.00030290777952927006
-0.4827834015173721,-0.4827834015173721,0.9998616606732613,0.00029606964034695036
-0.48269076628930635,-0.48269076628930635,0.9997579628873787,0.0002926646177582375
-0.4826041778724175,-0.4826041778724175,1.0003165661240747,0.00029209509935256424
-0.48242964320379544,-0.48242964320379544,0.9998284896617932,0.0002951194269742314
-0.4821750542832888,-0.4821750542832888,1.0003842536369354,0.0003032444067347185
-0.48202086361707186,-0.48202086361707186,0.9998938030990556,0.0003206053401147256
-0.4818307098248624,-0.4818307098248624,0.9998047340509718,0.00028931327412013385
-0.4817158380028559,-0.4817158380028559,1.0001521089239138,0.00030193763667864547
-0.48155645615042886,-0.48155645615042886,0.9994153447580103,0.0003041404046831201
-0.48139307479286797,-0.48139307479286797,1.0001519391565388,0.0002939511504964457
-0.4812740385357756,-0.4812740385357756,1.0000748694664643,0.0002897673666167516
-0.4811280682304641,-0.4811280682304641,1.000046279076796,0.00030323172816822477
-0.4809902418186539,-0.4809902418186539,0.9999936583687272,0.0002984055602918795
-0.4808786799185327,-0.4808786799185327,0.9998401264547793,0.0003007855250251794
-0.48078981481958183,-0.48078981481958183,0.9998695867792564,0.0003045715987939901
-0.48064425532938915,-0.48064425532938915,1.0001212857733257,0.00030205086391039737
-0.48051997399015817,-0.48051997399015817,0.9999603531847304,0.00028547722276316373
-0.4804142515116837,-0.4804142515116837,0.9999539125808645,0.0003066353625052059
-0.48027766379964304,-0.48027766379964304,1.000114684574085,0.0003034877530953167
-0.48014970456861195,-0.48014970456861195,0.9999931586562708,0.0003063621635292906
-0.48003168532304696,-0.48003168532304696,0.9995334056046371,0.00029968505810246067
-0.4799135424225824,-0.4799135424225824,0.99992706068469,0.0002966522008176534
-0.47977954001544276,-0.47977954001544276,0.999742405870337,0.00030650605580862173
-0.4796479832017212,-0.4796479832017212,0.9998616574616909,0.00029392009448178874
-0.4795541771687567,-0.4795541771687567,0.9997937601795226,0.0002949584538636973
-0.47939590407913785,-0.47939590407913785,1.0002120463460538,0.000285221908020746
-0.47919934273086257,-0.47919934273086257,0.9999471172746933,0.00029885511990197246
-0.479048308932397,-0.479048308932397,0.999744455086762,0.0002967012266978269
-0.47897448016738053,-0.47897448016738053,1.0000032369629364,0.00029418492200179193
-0.47881625134905337,-0.47881625134905337,1.00010369018286,0.00028934652097659726
-0.4787021318625193,-0.4787021318625193,0.9997488127110126,0.00029472010469485716
-0.4785482652223436,-0.4785482652223436,0.9999523739277694,0.0002948279341218971
-0.4784495494386647,-0.4784495494386647,1.0002550618256363,0.00029197603403625916
-0.4782533390738536,-0.4782533390738536,1.0001438725700946,0.0003021910188241527
-0.4781317253888119,-0.4781317253888119,0.9996907002494668,0.00030143652419372627
-0.4780374221983948,-0.4780374221983948,1.0003554371501784,0.0003036585967445591
-0.4779439160614857,-0.4779439160614857,1.0002908922517095,0.00030860506693489506
-0.47786585884314264,-0.47786585884314264,0.9999949833416274,0.00029958433658370165
-0.4778006268941681,-0.4778006268941681,0.9999730328753564,0.0002965799285315401
-0.47769877915561665,-0.47769877915561665,1.0004386061541102,0.00029549350389501585
-0.4774665871736943,-0.4774665871736943,1.0001028277577713,0.0002932005385728449
-0.4773069148606737,-0.4773069148606737,1.0004656351452452,0.00029922009366374933
-0.4771677134471247,-0.4771677134471247,0.999780716551981,0.0003008592886904453
-0.4770042996373377,-0.4770042996373377,0.9999410673232274,0.0002948428640627048
-0.4767963101534406,-0.4767963101534406,0.9998779940556943,0.00029666788473436365
-0.4766112389363116,-0.4766112389363116,1.0004089084115648,0.00029782789799361975
-0.47649104919692037,-0.47649104919692037,0.9999928341173104,0.00030348371338644487
-0.47640103638841536,-0.47640103638841536,0.9998250742811671,0.00028981252002496555
-0.47631572525715454,-0.47631572525715454,0.9999092492188131,0.00029980646695562543
-0.4762236060167197,-0.4762236060167197,0.9996233310631839,0.00032327563757176067
-0.47608629905444105,-0.47608629905444105,0.9999774425041135,0.00029843643510911406
-0.47599792848341166,-0.47599792848341166,1.0001930482440402,0.00030475747304525234
-0.47593419876648113,-0.47593419876648113,1.000371268583039,0.00028730802465718266
-0.47582651409757093,-0.47582651409757093,0.9996570389150969,0.0002985421060977006
-0.4756961473118281,-0.4756961473118281,0.999780120828496,0.00030121912279663465
-0.47553061244252604,-0.47553061244252604,1.000426326305442,0.00030154800247921346
-0.47526048193249154,-0.47526048193249154,0.999874525857334,0.00029680681583898853
-0.4750896722995094,-0.4750896722995094,0.999906352955267,0.0003039653878003025
-0.47499837967770875,-0.47499837967770875,1.0003359328849821,0.000303288651187597
-0.474777076227474,-0.474777076227474,1.0002837209984328,0.000294213740838676
-0.4746677766728681,-0.4746677766728681,1.0003299888694641,0.00030391390617295005
-0.4746156113324105,-0.4746156113324105,1.0000903427118275,0.0002928472093236835
-0.4745375947895809,-0.4745375947895809,1.0001730168908596,0.0002882178693280962
-0.47447641421458686,-0.47447641421458686,0.9997738310480759,0.00029566742630756504
-0.4744297127937898,-0.4744297127937898,0.9996913278201989,0.0002991570296854575
-0.4743500883152592,-0.4743500883152592,0.9996961264869396,0.00029758631550856087
-0.47424530457210495,-0.47424530457210495,1.0001748964340667,0.00029994561728869567
-0.4741600455439766,-0.4741600455439766,0.9999329230772815,0.0002946392153539941
-0.47400447921972955,-0.47400447921972955,1.0003854620044013,0.00029228204901665634
-0.4739199235817068,-0.4739199235817068,0.9997379955431598,0.0002936743106146621
-0.4738282401493052,-0.4738282401493052,0.9998115949815345,0.0003009802883343678
-0.47373282209591705,-0.47373282209591705,0.9998582943716381,0.00030425492321116355
-0.47362692022143166,-0.47362692022143166,0.9995305290790577,0.0002925200518427654
-0.4735096726217307,-0.4735096726217307,1.0002452056550875,0.000291148278983237
-0.47340342010866154,-0.47340342010866154,0.9999730354990859,0.0002923627014135246
-0.47331922956509515,-0.47331922956509515,0.9998917674246233,0.000307284532865596
-0.4732141479282291,-0.4732141479282291,1.0002186598843021,0.00032124966426034325
-0.47311025116359817,-0.47311025116359817,0.999753327534451,0.0002986303822731517
-0.47302303773903986,-0.47302303773903986,1.0003557847216284,0.000311216878050081
-0.4728736050630687,-0.4728736050630687,0.9999892672354991,0.00028950741171717787
-0.47278246316273,-0.47278246316273,1.0001144616839774,0.00031468100899920983
-0.47264026462798936,-0.47264026462798936,1.0000315430626603,0.00029728918102458655
-0.4724954750709003,-0.4724954750709003,1.0005194309436134,0.0003023861856780635
-0.47230598074675073,-0.47230598074675073,0.9997308447347211,0.0003000422431344472
-0.4721704395575216,-0.4721704395575216,0.9992874906054363,0.0003011033570553328
-0.47203999225748705,-0.47203999225748705,0.9999040578207886,0.00030111751892193943
-0.47197832645179005,-0.47197832645179005,1.0004281514572562,0.00029282809771471785
-0.47185129333956866,-0.47185129333956866,0.9998648476684113,0.000289345120856812
-0.47159811394958523,-0.47159811394958523,0.9995525966864409,0.0002934777663843013
-0.4714409898399026,-0.4714409898399026,1.0001936655652148,0.0002981656219407508
-0.47127799880399834,-0.47127799880399834,0.9998188716875802,0.0003017332552107062
-0.4711105200985912,-0.4711105200985912,1.0000974976383241,0.0002975885906815236
-0.47095826067670715,-0.47095826067670715,0.9999432634620913,0.0003064544215417292
-0.47089691344153833,-0.47089691344153833,1.000123846512437,0.00029430601529292793
-0.47077850360947193,-0.47077850360947193,1.0001502476635653,0.0002963697978167721
-0.47067646048380996,-0.47067646048380996,0.9999817112765129,0.00029086025563844557
-0.4705572017031955,-0.4705572017031955,1.0002000462658602,0.00029604638467751625
-0.47045022799429714,-0.47045022799429714,1.0001681582557418,0.00030117121674970855
-0.47029710264177993,-0.47029710264177993,1.000101225760916,0.0002989557422686853
-0.4701055221434217,-0.4701055221434217,1.0002146114146149,0.00029598906692262426
-0.4700175012796535,-0.4700175012796535,1.0000688225923973,0.00030568141218753397
-0.469872573162138,-0.469872573162138,0.9997365975984083,0.0002996840513583072
-0.4697946476182551,-0.4697946476182551,0.9997939768487054,0.0002873424126572466
-0.4697024928813335,-0.4697024928813335,1.0003380096871062,0.00029406145893354403
-0.4696078423585277,-0.4696078423585277,0.9997272823909424,0.0003064690611210177
