time,time,flux,flux_err
-0.49967005316951446,-0.49967005316951446,1.000422655093881,0.0006102803628421169
-0.49855607097924803,-0.49855607097924803,0.9998719383657839,0.0005792233518009709
-0.49774082629446637,-0.49774082629446637,0.9993747696331308,0.0005490863394657282
-0.4966549766242679,-0.4966549766242679,0.999826631712377,0.0005644128964647289
-0.4962019452701497,-0.4962019452701497,0.9998713368897206,0.000582693937346265
-0.49518365710464424,-0.49518365710464424,1.0006693076292765,0.0005641660220999526
-0.49437057497925707,-0.49437057497925707,1.0004118759547282,0.0005663179007374706
-0.4932498769208905,-0.4932498769208905,1.0011535096651518,0.0005916634903961891
-0.4927102622066741,-0.4927102622066741,1.000085067663417,0.0005554812157787126
-0.4917872886573605,-0.4917872886573605,0.9999064686538748,0.0005590930867304027
-0.4912930585371214,-0.4912930585371214,1.0002226619437788,0.0005353592761187177
-0.49040245560900075,-0.49040245560900075,1.0010210236075072,0.0005692382980173501
-0.4894126583247271,-0.4894126583247271,1.000965502149033,0.0005493577173333485
-0.48864370038209015,-0.48864370038209015,1.0000765746838496,0.0005973418239845622
-0.487975378617557,-0.487975378617557,0.999999148584134,0.0005283607617049435
-0.48737546525153447,-0.48737546525153447,1.0001479949875587,0.0006214324923202329
-0.48669584214148925,-0.48669584214148925,0.9999131921523396,0.0005337682872339148
-0.4862723074969836,-0.4862723074969836,0.9998434934678672,0.0005635715415545898
-0.48561835536165743,-0.48561835536165743,1.0002375290977228,0.0005792409544403955
-0.48502847534182364,-0.48502847534182364,1.0004121290561,0.0005468321087966681
-0.48453337983082745,-0.48453337983082745,0.9998038895256375,0.0005640502002866467
-0.4839109486223606,-0.4839109486223606,0.9998560438569957,0.0006066933912816346
-0.48342111458114234,-0.48342111458114234,0.9991085306773139,0.0005337044519133488
-0.4825705503644713,-0.4825705503644713,0.9993363572657747,0.0005725570148842252
-0.4817388757262961,-0.4817388757262961,1.0005798133287978,0.000549957375134816
-0.48071959704757317,-0.48071959704757317,0.9994704277231146,0.0005645105082338773
-0.4796838575479342,-0.4796838575479342,0.9990915970935499,0.000563966309136773
-0.47909532169724117,-0.47909532169724117,1.0002081614601923,0.0005684827647066353
-0.47834239056464867,-0.47834239056464867,1.0011812535769373,0.0005638158019237088
-0.47760645151065545,-0.47760645151065545,1.0000399044614636,0.0005633692429547549
-0.4768289627478225,-0.4768289627478225,0.9996773282542348,0.000591973174229462
-0.47579338866780746,-0.47579338866780746,1.000292805667822,0.0005663562459427618
-0.47527398726379033,-0.47527398726379033,1.000152627484417,0.0005557429924975553
-0.47431379797926637,-0.47431379797926637,1.000787882772518,0.0005745123138248519
-0.4738856472118641,-0.4738856472118641,0.9992534050696872,0.0005378742099281423
-0.4730846547856345,-0.4730846547856345,1.0001045765850263,0.0005693677171333012
-0.47200282433332175,-0.47200282433332175,1.0004380638588761,0.0005337385642387862
-0.471052144713758,-0.471052144713758,1.0003380520864364,0.0005521522563069911
-0.47040565862916994,-0.47040565862916994,1.0007274790837069,0.0005929623261622968
-0.4697220558584377,-0.4697220558584377,0.9999252964871275,0.0005647809212021673
-0.46923991573712553,-0.46923991573712553,0.9998891191501823,0.0005339184693517405
-0.46860266138392037,-0.46860266138392037,0.9997184411712731,0.000608317874876791
-0.467838836152805,-0.467838836152805,1.0005516653178526,0.0005345368179073033
-0.46744102119337183,-0.46744102119337183,0.9998994125182745,0.0005814296041780706
-0.46684204378252614,-0.46684204378252614,0.9995288453712297,0.0005790522145566058
-0.4662922281815554,-0.4662922281815554,1.0000353589270468,0.0005518825550899157
-0.46562657988324646,-0.46562657988324646,0.9998637078807858,0.0005660996790357364
-0.4650698780606035,-0.4650698780606035,0.9999063341988202,0.0005646119228212146
-0.4643397152685793,-0.4643397152685793,0.9997658134196413,0.0005496709574736472
-0.46339455230991006,-0.46339455230991006,0.9999222420098084,0.0005646155089359102
-0.46236896116897697,-0.46236896116897697,1.0008734782909887,0.0005786678211181877
-0.4617713863037352,-0.4617713863037352,1.0002763184909091,0.0005544058012716821
-0.4610260324858245,-0.4610260324858245,0.999508031991482,0.0005635986406241988
-0.46020635285312894,-0.46020635285312894,0.9997142463048252,0.0005665196250817346
-0.4593219083319127,-0.4593219083319127,0.9995252732552597,0.0005794526884458883
-0.4584777508607658,-0.4584777508607658,1.0008241362862642,0.0005872344266506176
-0.45795367130413067,-0.45795367130413067,1.0001797782875474,0.0005344829379881043
-0.457010121577332,-0.457010121577332,0.9996620963070683,0.0005752577803566643
-0.45663679932404194,-0.45663679932404194,0.9990648053196918,0.0005354415075169728
-0.4559654833661625,-0.4559654833661625,0.9997310210649408,0.0005839317239514071
-0.45497465208973153,-0.45497465208973153,1.0008175285406622,0.0005614038546682187
-0.4539527775908937,-0.4539527775908937,0.9995641466487564,0.000552623530697171
-0.45299648534710285,-0.45299648534710285,0.9995621286099668,0.00056389806858211
-0.45208304289408263,-0.45208304289408263,1.0000647676458805,0.000549696660918397
-0.45149809394570184,-0.45149809394570184,1.0003919411258066,0.0005828746584914406
-0.4508115696189634,-0.4508115696189634,1.0003232743754638,0.0005645324975161504
-0.4502504322648747,-0.4502504322648747,0.9995012125619344,0.0005335846212853682
-0.44966552042387775,-0.44966552042387775,0.999815877661149,0.0005964128722175219
-0.4489670074843161,-0.4489670074843161,0.9997185945194007,0.0005345720580486526
-0.44832772365698476,-0.44832772365698476,0.9998604644797593,0.0005683546056657027
-0.4478558307928324,-0.4478558307928324,1.0009409401823466,0.0005789489649804662
-0.44701820483460325,-0.44701820483460325,1.0002832840486204,0.0005502155200789123
-0.4460696008136438,-0.4460696008136438,1.000872501950068,0.0005646910145535683
-0.4449738439790963,-0.4449738439790963,0.9997110560876539,0.0005787490811767909
-0.44436929601142766,-0.44436929601142766,0.9999323389551599,0.0005547362302453586
-0.44348974580061623,-0.44348974580061623,1.0003948660863329,0.0005485894302776028
-0.44285753720469073,-0.44285753720469073,0.9997501670274793,0.0005809473603605517
-0.44205685986817117,-0.44205685986817117,1.0008656620840155,0.0005973294232124668
-0.4411584018067515,-0.4411584018067515,1.0000674846475157,0.0005662446557736603
-0.4404490960427211,-0.4404490960427211,1.0000081644018544,0.0005558272910446708
-0.43960716708315883,-0.43960716708315883,0.9999454557625047,0.0005702791070825647
-0.43915084407708493,-0.43915084407708493,0.9995043215282522,0.000552299274984054
-0.4382358102084254,-0.4382358102084254,0.9997582399977201,0.0005566351202157283
-0.43747169896159904,-0.43747169896159904,1.0004077772218647,0.0005621324118410207
-0.43639538526695104,-0.43639538526695104,0.9997217082576306,0.0005525766034362745
-0.4354572725431353,-0.4354572725431353,0.9998374569882127,0.0005796657305119293
-0.43456644950711054,-0.43456644950711054,1.0004091370685344,0.0005337258303313838
-0.4339704020887439,-0.4339704020887439,0.9993379764521102,0.0006138050705534012
-0.43318641868463603,-0.43318641868463603,0.9996755561482951,0.0005496242964532464
-0.4327443627997127,-0.4327443627997127,1.0003318948388915,0.0005610756204606543
-0.4322077282675309,-0.4322077282675309,1.000104474929523,0.0005789109174240808
-0.43153466705189203,-0.43153466705189203,0.9993820129621545,0.0005340623525308449
-0.43088471896553526,-0.43088471896553526,0.9999515900349205,0.0005727891667411005
-0.43053586100722896,-0.43053586100722896,1.0001476018349618,0.00057911008061581
-0.42989115479940665,-0.42989115479940665,1.0004538801854694,0.0005503828328118908
-0.4289062535317498,-0.4289062535317498,0.9998332258066245,0.0005646555047139938
-0.4281708217138657,-0.4281708217138657,0.9998761740339809,0.0005645441193720598
-0.42719527289373216,-0.42719527289373216,0.999617553251652,0.0005554658503713912
-0.4265771919002873,-0.4265771919002873,0.9992322766013302,0.0005786877319698948
-0.42575923465701637,-0.42575923465701637,0.9999252973197263,0.0005646159480676074
-0.4251058147092408,-0.4251058147092408,1.0000404265360623,0.0005666747592476121
-0.424221518576087,-0.424221518576087,1.0003919145007258,0.0005644643605163135
-0.4235627509122423,-0.4235627509122423,0.9994210079048086,0.0005521885381616417
-0.42273247929115315,-0.42273247929115315,0.9993567024596336,0.0005615438112519834
-0.42209075296559606,-0.42209075296559606,0.9993199473519898,0.0005505723135176375
-0.42162603709148244,-0.42162603709148244,1.000144830749782,0.0005523461856603041
-0.42073211499009633,-0.42073211499009633,1.0002901015993266,0.0005573636224186202
-0.41990944171338923,-0.41990944171338923,1.00032108241269,0.000550809882373012
-0.41890885537141004,-0.41890885537141004,1.0008044117975372,0.0005488117394162353
-0.41814019980593004,-0.41814019980593004,0.9997853792942886,0.0005799122397052385
-0.4173001377734181,-0.4173001377734181,1.0006654064459486,0.0005338106244686774
-0.41674901763472005,-0.41674901763472005,1.0000378365601104,0.0006019197846760721
-0.41602231134384055,-0.41602231134384055,0.9998025745208784,0.00054967150377229
-0.4155822596294456,-0.4155822596294456,1.0002440714348515,0.0005576617596743259
-0.41489071876858363,-0.41489071876858363,1.0001893595484979,0.0005794526659565222
-0.4141645337884256,-0.4141645337884256,0.9996030120531056,0.0005497109164818352
-0.4135283592127962,-0.4135283592127962,1.0004024264739495,0.000574842450163299
-0.4129823901705095,-0.4129823901705095,0.9982657551372307,0.000565971576836813
-0.4121329794608755,-0.4121329794608755,1.000179082585594,0.0005641063098806691
-0.41130195861915125,-0.41130195861915125,1.000885222464373,0.0005649553071418299
-0.41010638453517456,-0.41010638453517456,1.0001503344103913,0.0005644437371133286
-0.40960874500669886,-0.40960874500669886,1.0003957020963674,0.0005711806257717507
-0.40865436418389434,-0.40865436418389434,1.0001214674340417,0.0005489432101389427
-0.4080698448276962,-0.4080698448276962,1.0000480425855038,0.0005817614164718067
-0.40708058967502436,-0.40708058967502436,1.0000724033309136,0.0005493426191262747
-0.40633676520592416,-0.40633676520592416,1.0008921020009853,0.0005666131536955245
-0.4054116581115522,-0.4054116581115522,1.0007701277509256,0.0005627425891164556
-0.40476897797052513,-0.40476897797052513,0.9996596504637244,0.000550993662218722
-0.40430404349390303,-0.40430404349390303,0.9993883961988749,0.0005534454470140475
-0.403438341592846,-0.403438341592846,0.9996398455439754,0.0005585242025265119
-0.4028565793443704,-0.4028565793443704,0.999571267489387,0.0005703288579827218
-0.4019849335789331,-0.4019849335789331,0.9994744332385403,0.000553005701450541
-0.4011216158804018,-0.4011216158804018,0.9998204406388982,0.000562897234651378
-0.4002466020123393,-0.4002466020123393,1.0003359273545975,0.0005651336804236372
-0.3995664350462903,-0.3995664350462903,0.9998859517428192,0.0005571932061591283
-0.3990193036028359,-0.3990193036028359,0.9996589715618234,0.000603546578554324
-0.39844464879643055,-0.39844464879643055,1.0004896602732996,0.000533798590055939
-0.3978710219875211,-0.3978710219875211,0.9995127997878166,0.0005893314047921716
-0.39712399987765823,-0.39712399987765823,1.0003416002322223,0.0005498253535130789
-0.3965987272276834,-0.3965987272276834,1.000026822412039,0.000546288042112472
-0.3960289980204834,-0.3960289980204834,1.000009375150577,0.0005937657330411189
-0.39537966617499476,-0.39537966617499476,0.9999725060699701,0.0005513270255776334
-0.39454235266966864,-0.39454235266966864,0.9994567681001895,0.0005709624836277153
-0.39381151921697893,-0.39381151921697893,1.0000121929528347,0.0005345821950141583
-0.39263051183734204,-0.39263051183734204,1.0001981012532772,0.0005642146692480278
-0.3921337370891706,-0.3921337370891706,1.0004329141435513,0.0005716124996913688
-0.3911261651104724,-0.3911261651104724,1.000131346779313,0.0005791297365206312
-0.39033996895959716,-0.39033996895959716,0.9995824744157791,0.0005527060186696662
-0.3894549220240151,-0.3894549220240151,1.001121974061893,0.0005664913191531396
-0.38870886506338137,-0.38870886506338137,0.9994706408665357,0.000549687311049571
-0.387749418320891,-0.387749418320891,1.000388214987922,0.0005807116673491035
-0.3872778497767285,-0.3872778497767285,1.0002507600811215,0.0005546746060162748
-0.3866250661798404,-0.3866250661798404,1.0008206244970945,0.0005688654161508484
-0.3859572637644305,-0.3859572637644305,1.0001954079368836,0.0005398649250026798
-0.38545015306663116,-0.38545015306663116,1.0007779025897299,0.0005336489311671401
-0.3844333542547247,-0.3844333542547247,0.9999280537638047,0.0005534912703485042
-0.38370996724625,-0.38370996724625,1.0007017176654576,0.0005791833588342097
-0.38292651546216805,-0.38292651546216805,1.0001652665600471,0.0005649358187145273
-0.3822469536833523,-0.3822469536833523,0.9999167528801121,0.0005580269800147034
-0.3816977794172999,-0.3816977794172999,0.9989530758741758,0.0006047919150937136
-0.38111573519636294,-0.38111573519636294,1.0009882256109712,0.0005338187533218068
-0.38055325559544145,-0.38055325559544145,0.9989479142197238,0.0005911684640597648
-0.3797981288873416,-0.3797981288873416,0.9999159285540585,0.0005497743720633463
-0.37927340636233564,-0.37927340636233564,1.000365476324294,0.0005474345634706664
-0.3786195187523845,-0.3786195187523845,1.0007541082658642,0.0005950207681448925
-0.3779152034330764,-0.3779152034330764,0.999900287556357,0.0005420929312887009
-0.37705705071857665,-0.37705705071857665,1.0003947449060608,0.0005642648798360842
-0.37622879926202585,-0.37622879926202585,0.9993646675525101,0.0005496445539119672
-0.3752103860831994,-0.3752103860831994,1.000360345143574,0.0005646729200759702
-0.37416341721254864,-0.37416341721254864,0.999936931926757,0.0005640090641161642
-0.37355024086937194,-0.37355024086937194,0.9997809755333215,0.000582663201286064
-0.3727910052133666,-0.3727910052133666,1.0000246069648138,0.0005640476067476735
-0.37183953581843526,-0.37183953581843526,0.99905904644235,0.0005808633207489246
-0.3706427607343358,-0.3706427607343358,0.9998411169573714,0.0005769587635737438
-0.36995637953659755,-0.36995637953659755,1.0006975222403995,0.0005559350270779953
-0.3691792202793295,-0.3691792202793295,0.9999972923924417,0.0005731430913729484
-0.3685371039522579,-0.3685371039522579,1.0002285435352378,0.0005359702204439147
-0.3677749637019588,-0.3677749637019588,0.999795372625196,0.0005538569495009704
-0.3667785005120095,-0.3667785005120095,0.9996870929445464,0.0005667521105459626
-0.3660500383055478,-0.3660500383055478,0.9996663096273795,0.0005670056578517236
-0.36526630337612004,-0.36526630337612004,0.9990089376000526,0.0005436187949366667
-0.3647088498240919,-0.3647088498240919,1.0001283123168183,0.0006069374988542605
-0.36391304849967127,-0.36391304849967127,1.0002376339718206,0.0005497692397157976
-0.36347469474494576,-0.36347469474494576,0.9993978630393358,0.0005633434203319976
-0.3627830977296981,-0.3627830977296981,1.0002633358756126,0.000579451463683897
-0.36219428502809026,-0.36219428502809026,1.0002224135801154,0.0005466904198636712
-0.36169844918113087,-0.36169844918113087,0.9993948130686032,0.0005638416922464564
-0.3610756635578582,-0.3610756635578582,1.0003254912768884,0.0006059906274435571
-0.3605871151943575,-0.3605871151943575,0.9993157440928011,0.0005338659774460155
-0.35973571858776265,-0.35973571858776265,1.0002266168526421,0.0005721813141573745
-0.35890441862939043,-0.35890441862939043,0.9997659575858451,0.0005497773123471375
-0.35788523509254444,-0.35788523509254444,1.0001788898222774,0.0005649174267296414
-0.35684842422197105,-0.35684842422197105,0.9996850585411196,0.0005642816535960282
-0.35626061945804394,-0.35626061945804394,1.0000974188046086,0.0005685360683098326
-0.3555069392787118,-0.3555069392787118,1.0002087277735938,0.0005639193155293889
-0.35469375662796665,-0.35469375662796665,0.9995408732649151,0.0005666113904852532
-0.35377358749174165,-0.35377358749174165,1.000334453009709,0.0005918701523336397
-0.35281378355575727,-0.35281378355575727,0.9999210515424016,0.0005725133181907957
-0.352278809993004,-0.352278809993004,1.000173108694042,0.0005343041607377823
-0.35147858984128105,-0.35147858984128105,1.0001625022753806,0.0005743786904899229
-0.351051087569067,-0.351051087569067,0.998766507917151,0.0005377389280824963
-0.3502493767977285,-0.3502493767977285,0.9998035199153736,0.0005691357700296897
-0.34913709712709534,-0.34913709712709534,0.9994968781516054,0.0005351719892540857
-0.3481020927312784,-0.3481020927312784,1.0003716789968895,0.0005501271805983935
-0.34747501308302164,-0.34747501308302164,0.9991645229856075,0.0006062697298407651
-0.3467215183227381,-0.3467215183227381,1.0002499140714813,0.0005499197692932199
-0.3462731826075469,-0.3462731826075469,1.0000114004695029,0.0005654242656990278
-0.3456236350866675,-0.3456236350866675,0.9998250901389077,0.0005788440819802139
-0.34493029274744913,-0.34493029274744913,1.0005505614473276,0.0005497404380255933
-0.3443779304645432,-0.3443779304645432,1.000047586408125,0.0005652714088214309
-0.3437541753468395,-0.3437541753468395,0.9998598888400301,0.0005662898716266146
-0.3432385828717088,-0.3432385828717088,0.9993228891112033,0.0005340432489770657
-0.3425681184329733,-0.3425681184329733,1.0000943797041217,0.0005949190675943856
-0.3420199284191767,-0.3420199284191767,1.0001984153638293,0.0005500797053383318
-0.34103180787860765,-0.34103180787860765,1.0000622678017037,0.0005640319416738542
-0.3402551695304282,-0.3402551695304282,0.9997918930239758,0.000549430965273672
-0.3391779516932729,-0.3391779516932729,0.9990812637505811,0.0005787885644267861
-0.338735014154372,-0.338735014154372,0.9996477628188701,0.0005687318628057054
-0.337794408526679,-0.337794408526679,1.0010664794704662,0.0005492441585267171
-0.33704742360278034,-0.33704742360278034,1.0004363990305456,0.0005808969146977184
-0.3361293528978422,-0.3361293528978422,0.9986473301254826,0.0005788372924700797
-0.3354036398239259,-0.3354036398239259,0.9991252409817843,0.0005584746706138222
-0.3347487827842997,-0.3347487827842997,1.000307258136164,0.000569491263315349
-0.33401642494354744,-0.33401642494354744,0.9994476094767618,0.000556458850913399
-0.33363479502513654,-0.33363479502513654,0.9994571040784871,0.000551800995318808
-0.3326952957722824,-0.3326952957722824,1.000909858582218,0.0005552175211993974
-0.331562600016332,-0.331562600016332,0.9991693588378137,0.0005520347873923724
-0.3305433055553294,-0.3305433055553294,0.999792874654435,0.000545828775597059
-0.3298951677548757,-0.3298951677548757,1.000672312179594,0.0006082311221297265
-0.3292065140311024,-0.3292065140311024,0.9996346557348172,0.000533738527156299
-0.32874276964284943,-0.32874276964284943,0.9999509648267779,0.0005679286856366119
-0.3281473793213081,-0.3281473793213081,0.9991583499463758,0.0005796899466063617
-0.32753196688572644,-0.32753196688572644,0.9997729359701137,0.000533587388070265
-0.3269323927197547,-0.3269323927197547,0.9989933076224593,0.0005815878165724463
-0.3262459591154766,-0.3262459591154766,0.9999435400954877,0.0005499176648238932
-0.32564286427077604,-0.32564286427077604,0.9997737228629889,0.0005533494765146212
-0.32514083180576564,-0.32514083180576564,1.0008733513095251,0.0005934311234791702
-0.32442298017704163,-0.32442298017704163,1.0004997312127883,0.0005349365987444098
-0.32333475372433895,-0.32333475372433895,0.999764134172285,0.0005645091268694753
-0.32238260327721946,-0.32238260327721946,0.9994073183108446,0.000578263758821998
-0.3216859303567617,-0.3216859303567617,0.9994107333792215,0.0005707938436894547
-0.3210599957004888,-0.3210599957004888,1.0005427079344642,0.0005639832294769664
-0.32024375003165917,-0.32024375003165917,1.000168001176498,0.0005788031212642976
-0.3195864121626073,-0.3195864121626073,0.9999583759720949,0.0005663641866825244
