time,time,flux,flux_err
-0.49846920147016743,-0.49846920147016743,1.0000231543073796,0.00037076823780537885
-0.4955583498873845,-0.4955583498873845,0.9999535237393434,0.00037128529290011557
-0.49299553093987925,-0.49299553093987925,1.0002834486042556,0.00037058771467394423
-0.4903516835620394,-0.4903516835620394,1.0003445173758279,0.000366521835909601
-0.48835065770254005,-0.48835065770254005,1.000205931502086,0.0003381283412897805
-0.486942472908413,-0.486942472908413,0.9999731725559091,0.00033826760689405823
-0.48615512574542663,-0.48615512574542663,0.9997330933256029,0.00033852782072434816
-0.4854397655166395,-0.4854397655166395,1.0000503640133918,0.0003380616536988369
-0.4847910557306022,-0.4847910557306022,0.9999505339123582,0.000337780877733797
-0.4809332571196137,-0.4809332571196137,1.0000254088379286,0.00034647798719845746
-0.4781101479071367,-0.4781101479071367,1.0001342621730116,0.0003381570536376781
-0.476070405930659,-0.476070405930659,1.0000244064724653,0.0003385443419860789
-0.47346254009898986,-0.47346254009898986,0.9999339080690062,0.00033726837615075057
-0.4711432226584293,-0.4711432226584293,0.9995425202389058,0.00033525803838573096
-0.46933420474160814,-0.46933420474160814,0.9998927329934941,0.00033806303851653923
-0.4678938424833177,-0.4678938424833177,0.9999761548962038,0.00033823298450834133
-0.4671024857285374,-0.4671024857285374,0.9996438736690354,0.00033822344976657643
-0.4663946060325543,-0.4663946060325543,1.000138550086387,0.0003381212323969803
-0.465731602730375,-0.465731602730375,0.9999523839220302,0.00033787089256515036
-0.463383938784682,-0.463383938784682,1.000261336460958,0.0003430707533127263
-0.459681584876671,-0.459681584876671,0.999954816502124,0.00033843022941411994
-0.457194172860909,-0.457194172860909,0.9999633478932554,0.0003397963097056037
-0.4555282106230152,-0.4555282106230152,0.9999636742770317,0.0003384487196408231
-0.45286551179960954,-0.45286551179960954,1.0002314446633567,0.0003350796868562504
-0.45094658967718715,-0.45094658967718715,1.0000453019107325,0.00033799468513558584
-0.44924488881515573,-0.44924488881515573,1.0000158658137583,0.0003382163370027541
-0.4480503056634916,-0.4480503056634916,1.0002870960662942,0.0003384028143135782
-0.4474128572481277,-0.4474128572481277,1.0004753541705314,0.0003382895414386039
-0.4467067961690191,-0.4467067961690191,0.9997759088746401,0.0003380220822912222
-0.44587116334732857,-0.44587116334732857,1.0000544324681084,0.0003407432349917293
-0.4420124543270504,-0.4420124543270504,1.0004333215651855,0.0003576990002681917
-0.43850816952908644,-0.43850816952908644,0.9996805143185856,0.00033910810026952794
-0.43696242620499104,-0.43696242620499104,1.000345246811109,0.0003384087874745875
-0.43429368557044656,-0.43429368557044656,0.9994635954207002,0.0003359303635299047
-0.4322804731680662,-0.4322804731680662,1.0002235273244022,0.0003379153795823711
-0.43055858664083646,-0.43055858664083646,0.9999115271748945,0.0003382581785469329
-0.4291653333020804,-0.4291653333020804,1.0003039203558894,0.0003383810587597807
-0.4283798476048105,-0.4283798476048105,1.00012707753923,0.0003383392999608076
-0.42766099080254205,-0.42766099080254205,0.9998838515989735,0.0003381869395831105
-0.4268072588572977,-0.4268072588572977,0.999871828020763,0.0003397383903618669
-0.4231642215454485,-0.4231642215454485,0.9998446689970818,0.00034854294336432554
-0.42032977564813334,-0.42032977564813334,0.9998609800476668,0.00033822068443791154
-0.41828707719396335,-0.41828707719396335,1.0000227207072563,0.0003388382414794138
-0.4156697686346888,-0.4156697686346888,0.999705218132293,0.0003369871010242903
-0.4133576475949667,-0.4133576475949667,0.999935278498494,0.0003352849686540935
-0.4115417896187864,-0.4115417896187864,0.9998389975695897,0.00033834129655217196
-0.4101164757877996,-0.4101164757877996,1.0004326124495406,0.00033869334361801457
-0.4093269949393289,-0.4093269949393289,0.9999661845596741,0.00033811368758364477
-0.408615625173843,-0.408615625173843,1.0001925470848163,0.0003380053341424946
-0.40795929838714073,-0.40795929838714073,0.9998677422527186,0.0003380721594149953
-0.404774562172679,-0.404774562172679,1.0000970927090695,0.00034508230063852257
-0.4018928160206997,-0.4018928160206997,0.9997386125380222,0.0003380352174001138
-0.39929263878439086,-0.39929263878439086,1.0001155298142541,0.00033815806901796324
-0.39665440419194054,-0.39665440419194054,0.9999484400698296,0.0003374682956672439
-0.39436542902258226,-0.39436542902258226,0.9999877458611144,0.00033557500082710803
-0.39286440545256485,-0.39286440545256485,1.0003351393874187,0.00033825997291452253
-0.3911628271358495,-0.3911628271358495,0.9997035584140038,0.0003383903605928689
-0.3900792019201617,-0.3900792019201617,0.9998777281313387,0.0003383456066255283
-0.3894505684824253,-0.3894505684824253,1.0002773509259697,0.000338104767629995
-0.3887858348374721,-0.3887858348374721,1.0001649565213127,0.00033812129465773683
-0.38701782573989474,-0.38701782573989474,1.0002101941266979,0.00037040027390706517
-0.3828572174337751,-0.3828572174337751,0.9999203424882734,0.00033824911957751834
-0.38037597541842844,-0.38037597541842844,0.9998507950379218,0.00033930935467053614
-0.3787152863769734,-0.3787152863769734,1.0001762594150412,0.00033813474676353954
-0.3760549360580626,-0.3760549360580626,0.9994418987979501,0.00033593462317902994
-0.37413636809433226,-0.37413636809433226,0.999765390607209,0.0003380645862732266
-0.3726247586841055,-0.3726247586841055,0.9999400208580598,0.00033851546979630804
-0.3713882962241769,-0.3713882962241769,0.999553694145555,0.0003381490564719117
-0.3706046658582636,-0.3706046658582636,0.9999605847222478,0.00033841881450352116
-0.36988231248396913,-0.36988231248396913,0.9998839027872428,0.0003379709416974281
-0.3690370481235732,-0.3690370481235732,0.9999106883264848,0.00034005549974930403
-0.3653952253138414,-0.3653952253138414,0.9997232074997797,0.00035196140682424186
-0.36260086632028105,-0.36260086632028105,0.9991635156919682,0.00038821179839468415
-0.36076662852356095,-0.36076662852356095,0.9998812808244214,0.00033906529797784123
-0.35866020765024587,-0.35866020765024587,1.0000765572521413,0.000338547285912395
-0.35630490816765814,-0.35630490816765814,0.9998978989219252,0.000333580995600496
-0.35448231969348853,-0.35448231969348853,0.9996181408565743,0.00033832619070916847
-0.35279002336465054,-0.35279002336465054,0.9998010248644181,0.0003382592539991588
-0.3518275981376064,-0.3518275981376064,1.000411934653479,0.00033833894435098807
-0.351108121953439,-0.351108121953439,0.999856665991907,0.00033815658314684477
-0.35048482412530574,-0.35048482412530574,0.9999467740763958,0.0003382278973852734
-0.348203463050595,-0.348203463050595,1.0000763976863196,0.0003458969694313448
-0.3445984446523653,-0.3445984446523653,0.9997924214371079,0.0003382279367128003
-0.34208999788606886,-0.34208999788606886,1.0000539986230759,0.0003387190907869267
-0.3401204895577393,-0.3401204895577393,1.0006940159587974,0.0003382915611850468
-0.3372843239660142,-0.3372843239660142,0.9999053601496046,0.00033430281134177157
-0.3354569760209415,-0.3354569760209415,0.9998539041203836,0.0003380098451978547
-0.3337465784017695,-0.3337465784017695,0.9998585128806387,0.00033850316553109364
-0.3327738255735312,-0.3327738255735312,1.0003664647649178,0.0003385009470794284
-0.3320637025834003,-0.3320637025834003,0.9998710629407768,0.00033806071328218603
-0.3314295666445105,-0.3314295666445105,1.0001006628379665,0.00033818651041581094
-0.3304074569568911,-0.3304074569568911,0.999770082616813,0.0003423353551232558
-0.3261410558305215,-0.3261410558305215,1.00005759424814,0.00033839643716513984
-0.3233674490104022,-0.3233674490104022,0.9998370146754205,0.0003383799435170973
-0.32175723004475004,-0.32175723004475004,0.9997416864064252,0.0003395584917773445
-0.31924359834811183,-0.31924359834811183,0.9999579211061047,0.00033727049509551843
-0.3170842152627301,-0.3170842152627301,1.0000301673779854,0.0003357752809223253
-0.31534288919574466,-0.31534288919574466,1.00000331411136,0.0003382905188525579
-0.3137772915775713,-0.3137772915775713,0.9997601245238572,0.0003382336347767161
-0.3129822689574212,-0.3129822689574212,1.0002249338692224,0.0003382552390622757
-0.31226077518076634,-0.31226077518076634,0.9999027765830689,0.0003382950971530853
-0.31148898401806946,-0.31148898401806946,1.0003195043979782,0.00033807959728294145
-0.30868968205322744,-0.30868968205322744,0.9999412473182874,0.0003596137667809869
-0.3049554913850443,-0.3049554913850443,1.000012728944959,0.0003383395342600741
-0.3029830986939487,-0.3029830986939487,0.999924467226778,0.00033954209998244346
-0.3007428087526932,-0.3007428087526932,0.999787040020715,0.0003383382066974458
-0.29806467262023945,-0.29806467262023945,0.9995103906600207,0.0003364582312912182
-0.2963154746626969,-0.2963154746626969,0.9999152458436346,0.00033811235669949205
-0.2947432326589478,-0.2947432326589478,0.9999563368263775,0.00033837201055141985
-0.29402353088298694,-0.29402353088298694,0.9997000713211838,0.00033745585688207583
-0.2933290067936468,-0.2933290067936468,1.000176627972954,0.00033787215330941244
-0.29266410928903497,-0.29266410928903497,1.0000914542004966,0.00033793053331726883
-0.2894553835591068,-0.2894553835591068,0.9995977119438842,0.0003484486421081924
-0.2863381075527286,-0.2863381075527286,1.0001311247956604,0.00033825562270920113
-0.2839479350266629,-0.2839479350266629,1.0002330420027792,0.0003385527327434539
-0.2817233108806249,-0.2817233108806249,0.9995100179473061,0.0003381765423760679
-0.27914587577834027,-0.27914587577834027,0.9999627415477574,0.0003339210480641201
-0.27728873416708666,-0.27728873416708666,1.0003094718029395,0.000338390987760548
-0.2757097308131051,-0.2757097308131051,0.9995460323961703,0.0003382869208322822
-0.2748474957086728,-0.2748474957086728,1.0001446474061115,0.0003383207261850747
-0.2741704962856602,-0.2741704962856602,1.000059206585694,0.00033827785644411284
-0.27352810693118956,-0.27352810693118956,1.0000750072754134,0.00033808371454122023
-0.27125272087650953,-0.27125272087650953,0.9999771464456362,0.0003464754120078773
-0.26823111778576275,-0.26823111778576275,0.999270692889277,0.0003382720265026607
-0.26558158910702334,-0.26558158910702334,1.0004560873456085,0.00033815545006264755
-0.2635948715855193,-0.2635948715855193,1.000228300138157,0.0003383520337902329
-0.26092008405175876,-0.26092008405175876,1.0001788032982133,0.0003347904409257976
-0.2591696964998846,-0.2591696964998846,0.9996538048602209,0.00033800062098280427
-0.2575559090168099,-0.2575559090168099,1.0001500126765674,0.00033836437146905047
-0.25599441486629076,-0.25599441486629076,1.0000494864614968,0.0003383457208470062
-0.2552401990964427,-0.2552401990964427,1.0000154662714753,0.00033838454845505986
-0.2546002711605979,-0.2546002711605979,1.0000276255125709,0.0003382560716845846
-0.2537901393043285,-0.2537901393043285,0.9997095953128243,0.0003373271778865898
-0.25067193473369115,-0.25067193473369115,0.9998708889073011,0.00036883620180164776
-0.24709679329534992,-0.24709679329534992,1.000528611089846,0.0003384904727516229
-0.24519967320229624,-0.24519967320229624,1.0000715816949843,0.0003394766893268767
-0.24301203861832618,-0.24301203861832618,1.0001738626232888,0.0003377496151343888
-0.24061301409819863,-0.24061301409819863,0.9998299783081057,0.00033598969987086886
-0.23892772919716662,-0.23892772919716662,0.9998017343956211,0.00033864953040280415
-0.2375279817941191,-0.2375279817941191,1.000371598451786,0.0003382630383442509
-0.23642537292907945,-0.23642537292907945,0.9998810887830342,0.00033838015889133547
-0.2356695618836966,-0.2356695618836966,1.0002897197149425,0.0003381768475241878
-0.23503144650385366,-0.23503144650385366,1.0004819901805426,0.0003381063677196038
-0.233351956417755,-0.233351956417755,0.9999839031046575,0.00035346840889239397
-0.22951837440632517,-0.22951837440632517,1.0001262640446646,0.0003383069369972414
-0.22692936219536933,-0.22692936219536933,0.9994373717952791,0.0003388772709805009
-0.22508989387060865,-0.22508989387060865,1.0000746747952236,0.00033838289629499967
-0.2221840207639616,-0.2221840207639616,0.9997205355177596,0.0003825853729917967
-0.22062034167829553,-0.22062034167829553,1.0000845781857433,0.00033519795651436703
-0.21879773513574036,-0.21879773513574036,1.0002103946093512,0.0003383037820667868
-0.2175677837432886,-0.2175677837432886,1.0002064552811054,0.0003384891129882002
-0.21675065869567334,-0.21675065869567334,0.9996143804719335,0.0003384630940217981
-0.21611401003756328,-0.21611401003756328,0.9997783999860023,0.0003381949759528369
-0.21526349955383922,-0.21526349955383922,0.9995368165236567,0.00034537728145535654
-0.21090261653298512,-0.21090261653298512,0.9998683842371772,0.0003383333246142921
-0.2083688267171965,-0.2083688267171965,0.9998389948015729,0.0003386420967087172
-0.20652666337555275,-0.20652666337555275,0.9999462537254761,0.0003383922444422455
-0.203658923329931,-0.203658923329931,1.00009875214613,0.0003372367999610005
-0.2015946738094499,-0.2015946738094499,1.0000911285770302,0.00033532391602599486
-0.19976906962911017,-0.19976906962911017,0.9996266726667301,0.00033848688742063105
-0.1985168225124653,-0.1985168225124653,1.0002044688085532,0.00033835659568390655
-0.19769952380884206,-0.19769952380884206,0.9995720250286535,0.00033836879665482834
-0.19706860433216206,-0.19706860433216206,0.9996935944334213,0.0003379827179163176
-0.1964110793589498,-0.1964110793589498,1.0000710849619856,0.0003378685425163199
-0.19404970662581036,-0.19404970662581036,1.00008873146166,0.00034244877941203754
-0.18986319676041602,-0.18986319676041602,1.0000734025513824,0.000338417476643435
-0.1877249760211271,-0.1877249760211271,0.9999419995661363,0.0003397110013489926
-0.18576434357455582,-0.18576434357455582,1.0004595742159894,0.0003381465970465632
-0.1832190829773026,-0.1832190829773026,0.9999594342247967,0.0003350739891187555
-0.1814490936099901,-0.1814490936099901,1.0003546488402777,0.00033823497075577424
-0.1797431457605853,-0.1797431457605853,0.9996567305127322,0.00033830143171483966
-0.17864885718081497,-0.17864885718081497,0.9994913295531715,0.0003381208125992919
-0.17789572244582813,-0.17789572244582813,0.999937852615024,0.00033861267594630784
-0.17725401157294982,-0.17725401157294982,1.0001609833840575,0.00033794434711379936
-0.17617038580647204,-0.17617038580647204,1.000157332849287,0.00035855192322193947
-0.1717425546827144,-0.1717425546827144,1.0001375794365626,0.0003383637365683113
-0.16895567343381118,-0.16895567343381118,0.9999775815703187,0.0003391237432554989
-0.16730092802026775,-0.16730092802026775,1.0002093659554938,0.0003382200352406016
-0.16428863856417592,-0.16428863856417592,1.0001801939850725,0.00033635687498637405
-0.16242415898450419,-0.16242415898450419,1.0001606460703127,0.0003382139637893106
-0.16071081183908972,-0.16071081183908972,0.9992034229828507,0.0003383279671286115
-0.15959866024713848,-0.15959866024713848,1.0000462479627452,0.000338117574604133
-0.15883977757184767,-0.15883977757184767,0.999981519169231,0.00033832751724902776
-0.1582057688930945,-0.1582057688930945,0.9997326625155699,0.0003381262440260385
-0.15582669411669486,-0.15582669411669486,1.0001796117077042,0.0003476903898105667
-0.15222001823640313,-0.15222001823640313,1.0000381644906506,0.00033814401099884525
-0.14970606938077252,-0.14970606938077252,1.0001398210965795,0.00033873994368706177
-0.1477275956007361,-0.1477275956007361,0.9998199786290375,0.0003383444171932391
-0.14489250370752416,-0.14489250370752416,1.000420743771935,0.00033400525639325733
-0.1430670287933026,-0.1430670287933026,0.9997936156848443,0.00033828314538594204
-0.14136389255872928,-0.14136389255872928,0.9994871645240533,0.000338045997099675
-0.14039527928762255,-0.14039527928762255,1.0003661552473955,0.0003383571652413448
-0.1396814156752953,-0.1396814156752953,0.9992786079006641,0.0003384330956688057
-0.13905161822622175,-0.13905161822622175,0.999764543016125,0.00033812147069160064
-0.13802866300320601,-0.13802866300320601,0.9997748171423604,0.0003435573705507039
-0.13395900253744913,-0.13395900253744913,1.0001710764378609,0.0003385033918168983
-0.13152263328738628,-0.13152263328738628,1.0003116844598483,0.00033821247536843494
-0.12963312440479058,-0.12963312440479058,1.000017740539722,0.0003401832779513914
-0.12743228082545102,-0.12743228082545102,0.9997242622316731,0.00033738589958337464
-0.12516207412991207,-0.12516207412991207,0.9996767298362899,0.0003356370675790668
-0.12366097943449858,-0.12366097943449858,0.9997008980120128,0.0003381429448560915
-0.12195843608933502,-0.12195843608933502,0.9996837005266472,0.0003383844916345468
-0.12087244359863689,-0.12087244359863689,0.9997588223693483,0.00033867479822746136
-0.12024457049192279,-0.12024457049192279,0.9998326172640917,0.0003381023978156405
-0.11957743239181581,-0.11957743239181581,0.9998918164303106,0.0003381540371499904
-0.11780959550305851,-0.11780959550305851,0.9998456288869612,0.00036639824685286246
-0.1136511602308019,-0.1136511602308019,0.9999273720854498,0.00033824599065922407
-0.11117144789968733,-0.11117144789968733,0.9999030130517713,0.00033937034970741946
-0.10951207842226722,-0.10951207842226722,0.9998393488419403,0.00033818167933369244
-0.10685231116804061,-0.10685231116804061,1.0000037784838676,0.000335633469119697
-0.10493384573419462,-0.10493384573419462,0.9998958201339752,0.000338146015500611
-0.10322505208823714,-0.10322505208823714,1.0000845375546217,0.0003381841178398177
-0.1020157764905889,-0.1020157764905889,0.9999970872955597,0.0003382257265117489
-0.1011987969337497,-0.1011987969337497,1.0001585248208118,0.00033840104725875594
-0.10055743402335793,-0.10055743402335793,0.9999027995084926,0.0003380245307190941
-0.09951172194996616,-0.09951172194996616,0.9999216598702786,0.0003524859354241953
-0.09601691026327899,-0.09601691026327899,0.9999348107620831,0.0003382336061211528
-0.09334389784562518,-0.09334389784562518,0.999772293583353,0.0003384170860220758
-0.09129904836954665,-0.09129904836954665,0.9998706490615513,0.00033893741251074305
-0.08867499432963086,-0.08867499432963086,0.9995572403536223,0.0003369827782665876
-0.08664894508328871,-0.08664894508328871,0.999503164030083,0.00037742505979381397
-0.08489934833778534,-0.08489934833778534,0.9995867887068082,0.0003380889251401098
-0.08332306389493169,-0.08332306389493169,0.9997302718761137,0.0003381897735531761
-0.08247432154312265,-0.08247432154312265,0.9996363620670365,0.00033813540189196517
-0.08178840866457904,-0.08178840866457904,0.9999363297660372,0.00033790590053841234
-0.08114663161322824,-0.08114663161322824,0.9999464040610176,0.0003378255914045126
-0.07790878158193663,-0.07790878158193663,0.9999649544251474,0.00034603059588405964
-0.07490891917841509,-0.07490891917841509,0.9997226275644847,0.00033831058881635064
-0.07230174591823016,-0.07230174591823016,1.0001730375676332,0.000338107283906695
-0.06965947284043068,-0.06965947284043068,0.9995848320490566,0.0003370321310077126
-0.06753093739098404,-0.06753093739098404,1.0002145309746542,0.00033589194009156595
-0.06587302338812151,-0.06587302338812151,1.0002292940220276,0.0003382579187558489
-0.06428990177155355,-0.06428990177155355,1.0005078241482948,0.00033819369290765593
-0.06340738006838365,-0.06340738006838365,1.0002958468324146,0.00033841936720276934
-0.06274376400906476,-0.06274376400906476,1.0000450456692742,0.0003381521658294724
-0.06210044897452462,-0.06210044897452462,0.9997750544284729,0.0003379316226976645
-0.061122466878441625,-0.061122466878441625,0.9994877708103012,0.0003423538436530467
-0.056467249851993986,-0.056467249851993986,0.999952341604635,0.00033824210728465576
-0.05373956735420506,-0.05373956735420506,1.0002617076892655,0.000339695219961991
-0.05218083635045332,-0.05218083635045332,0.9995784863345829,0.00033830773714109023
-0.04950866195213166,-0.04950866195213166,1.0001343775202958,0.00033550614274111153
-0.04749971945639118,-0.04749971945639118,0.9999962248397395,0.0003376799825830293
