time,time,flux,flux_err
-0.49829856746509904,-0.49829856746509904,1.000975469094111,0.0012745281205163432
-0.49569028579814284,-0.49569028579814284,0.9995126287270915,0.0012438692601559934
-0.4942414736666251,-0.4942414736666251,0.9998688417181928,0.0011616577709748738
-0.4931348531914409,-0.4931348531914409,1.0008175688766179,0.0011650210245510262
-0.4905078215582762,-0.4905078215582762,1.0002744913695785,0.001134862074946149
-0.4891349937737687,-0.4891349937737687,0.9996093256366038,0.0011571356744704067
-0.4872895112464903,-0.4872895112464903,1.0014394589484426,0.0011477215784907627
-0.4858526142896153,-0.4858526142896153,0.9999580882839935,0.0011471656452589816
-0.48312105023069307,-0.48312105023069307,1.0016982575192428,0.0011318058534362757
-0.4820461067633005,-0.4820461067633005,1.0002148903077699,0.0011543617349610805
-0.4801794704631902,-0.4801794704631902,1.0002611302221835,0.0011422458243047807
-0.4780100848467555,-0.4780100848467555,1.000403380951886,0.0011351977953695989
-0.4756012295576511,-0.4756012295576511,1.000386127512713,0.0011398591944915804
-0.4746116771508241,-0.4746116771508241,0.9995501379539837,0.0011505276894335302
-0.4728188199456781,-0.4728188199456781,1.0005069068972294,0.0011402403222792116
-0.47113634427951184,-0.47113634427951184,0.998854949281467,0.0011734428119318577
-0.4684912440920016,-0.4684912440920016,1.000477060185993,0.0011392635690449138
-0.46712962196324953,-0.46712962196324953,1.0002936830559759,0.00114204618869514
-0.46555897150246894,-0.46555897150246894,0.9995177902129757,0.0011808637413816309
-0.46311023077869323,-0.46311023077869323,1.0017087948529355,0.0011349862301022037
-0.46156389798270536,-0.46156389798270536,0.999437980798039,0.0011504065747512068
-0.4599950667558005,-0.4599950667558005,0.9988774579956466,0.0011512910829201864
-0.4587621007260168,-0.4587621007260168,1.0010966586938421,0.001134255159152053
-0.456808627807186,-0.456808627807186,1.0002731289636586,0.0011530761674497323
-0.4548640049470123,-0.4548640049470123,1.0003798869799065,0.0011541901693580714
-0.4533097612904385,-0.4533097612904385,0.9994018667801956,0.0011418163322458874
-0.45160086849937214,-0.45160086849937214,0.9993349559936204,0.0011482039160658163
-0.4489019661414204,-0.4489019661414204,1.0001171763228445,0.0011316199993266014
-0.4474524680234026,-0.4474524680234026,0.9999402350998494,0.0011522553169038435
-0.4459218264761148,-0.4459218264761148,1.0010034521459428,0.0011421362667591865
-0.44391453004791404,-0.44391453004791404,0.9993990833562215,0.0011823818835130335
-0.44117318438948133,-0.44117318438948133,1.0017874613202218,0.0011424785946240706
-0.4398935268283822,-0.4398935268283822,1.0001050656689272,0.0011684930544672
-0.43869930910877886,-0.43869930910877886,1.0003819475889624,0.0011367257326803527
-0.43690757468575614,-0.43690757468575614,0.998076592007789,0.0011686671597537454
-0.43509094859764447,-0.43509094859764447,0.9987934829350744,0.001133925504983304
-0.4330803198303329,-0.4330803198303329,1.000284424146751,0.0011480089407936906
-0.43201164023776073,-0.43201164023776073,0.9989559216077346,0.00118036027892592
-0.43064111593412235,-0.43064111593412235,0.9998357318132,0.0011393956203399533
-0.4283956034312723,-0.4283956034312723,1.0003829025193407,0.0011330113310930455
-0.42674662164936306,-0.42674662164936306,1.0002771994977082,0.0011553448355441109
-0.4249741716630524,-0.4249741716630524,1.0012132432878886,0.0011502284990217832
-0.42281635996187106,-0.42281635996187106,1.0009757382734248,0.001136053532482902
-0.4204715978848981,-0.4204715978848981,0.9996120536719351,0.0011319372005434516
-0.4194454903132282,-0.4194454903132282,0.999411056450025,0.0011507336123021512
-0.4177885744255036,-0.4177885744255036,1.0002957777257175,0.001178369725112193
-0.41538991257257296,-0.41538991257257296,1.0015076119820976,0.0011357872690355127
-0.41342581106582654,-0.41342581106582654,0.9997665364294026,0.0011426770419414836
-0.4125761465256801,-0.4125761465256801,1.0001363736910571,0.0011510599954820918
-0.41077861105732155,-0.41077861105732155,1.0000142349537087,0.0011395627435329956
-0.4091027181450045,-0.4091027181450045,1.0010204720741602,0.0011746708046153835
-0.4068393050227314,-0.4068393050227314,0.9993430984138133,0.0011329932067605185
-0.405365448151133,-0.405365448151133,1.0003826626887338,0.0011522297103151063
-0.40352948265499433,-0.40352948265499433,0.9984869925180252,0.0011390315530443358
-0.40130676289845724,-0.40130676289845724,1.0010390842988461,0.001182478883592236
-0.3994635556533467,-0.3994635556533467,0.9994877465144716,0.0011281634841504447
-0.3977306399610825,-0.3977306399610825,0.9982131742822548,0.0011519885798737177
-0.3963110178068746,-0.3963110178068746,1.0006334033565114,0.0011518995171573034
-0.39374513786751775,-0.39374513786751775,1.0015847449827404,0.0011333263747707939
-0.39239098770194686,-0.39239098770194686,1.0012772964169312,0.001153896107439028
-0.39048268310143613,-0.39048268310143613,1.0012021249945682,0.001143452274837527
-0.38862490256433374,-0.38862490256433374,0.9992860639510799,0.0011517874820561468
-0.38604780644818676,-0.38604780644818676,1.0010771989330152,0.0011493443484886087
-0.38524032196437474,-0.38524032196437474,1.0008507016599149,0.0011639902988775461
-0.3834382142376853,-0.3834382142376853,1.0011326342105114,0.001141496726855817
-0.38164937566616575,-0.38164937566616575,0.9980647819330668,0.0011848660764646238
-0.3793032757937908,-0.3793032757937908,0.999648669829312,0.0011541895094294206
-0.37822838308638895,-0.37822838308638895,1.0010321911075235,0.001157125945425523
-0.37727455782005564,-0.37727455782005564,0.9993366963321739,0.0011522005506529004
-0.37527089931536467,-0.37527089931536467,1.0022045168490674,0.0011413360575551214
-0.37315644637565126,-0.37315644637565126,1.0009060368729608,0.0011666438447936833
-0.37104273249278774,-0.37104273249278774,1.000065256787663,0.0011486311407872232
-0.36997693104785867,-0.36997693104785867,1.0000037603718686,0.001180775525326194
-0.3682347655209014,-0.3682347655209014,1.0004404182364177,0.0011401051312393115
-0.36568336048221683,-0.36568336048221683,1.0001271147133353,0.0011577998126802024
-0.3639058661676245,-0.3639058661676245,0.9998240292378814,0.0011439699811692894
-0.3623679829877801,-0.3623679829877801,0.9998349780698863,0.0011354038885469657
-0.35955366417765616,-0.35955366417765616,0.9989269125903615,0.0011334831559409947
-0.3580853662308073,-0.3580853662308073,0.9999963003793235,0.0011534072259782792
-0.35673667659284547,-0.35673667659284547,0.9997753419164395,0.0011722705331058754
-0.35519277994753795,-0.35519277994753795,1.0011515076355593,0.0011699963787015016
-0.3528517377824755,-0.3528517377824755,1.0008736657416182,0.0011728588878820228
-0.35124777600867674,-0.35124777600867674,1.0003388292544322,0.0011397844184186938
-0.3502945086947875,-0.3502945086947875,1.0007502740725218,0.0011515709620761195
-0.3483982344303513,-0.3483982344303513,1.0002143078971915,0.0011406745093317243
-0.34661146920407193,-0.34661146920407193,0.9998820378963764,0.0011786377752402665
-0.3440239699819358,-0.3440239699819358,0.9999738756350027,0.001136070724365869
-0.3427616306493292,-0.3427616306493292,1.0001879218503131,0.0011436378493062573
-0.34059765376732687,-0.34059765376732687,0.9985464443562442,0.0011572153174529741
-0.33900788641476537,-0.33900788641476537,1.0025031365581154,0.0011817250299421954
-0.33697646371729206,-0.33697646371729206,1.0007857328833243,0.0011355115307522799
-0.3354057967721019,-0.3354057967721019,1.0006903432742607,0.0011442021606860335
-0.333207871063496,-0.333207871063496,0.9998465651214087,0.0011572055369508199
-0.3310568013053853,-0.3310568013053853,1.0014171034412214,0.0011525082434436942
-0.3296421973849647,-0.3296421973849647,0.9976889563515667,0.0011360385885616432
-0.3279406146350084,-0.3279406146350084,0.9994993623166154,0.0011765114033036662
-0.3263276803860208,-0.3263276803860208,0.9989128772798882,0.0011864566807651483
-0.32400405521329956,-0.32400405521329956,1.0006773160465987,0.0011495015602676114
-0.3232094935083296,-0.3232094935083296,0.9995395816186121,0.0011643015609784902
-0.3213983173161978,-0.3213983173161978,0.9977897687173636,0.0011411792699904369
-0.3193433807900874,-0.3193433807900874,1.0015325013048864,0.0011369705718653012
-0.3169560671201907,-0.3169560671201907,0.9999437259058526,0.001164119367182007
-0.31599718510406094,-0.31599718510406094,1.0006149979762302,0.001148138441498395
-0.31493894540180917,-0.31493894540180917,1.000557598909761,0.0011574840945366136
-0.3129749444546178,-0.3129749444546178,0.9996350368689727,0.0011367025244249105
-0.31111859863740393,-0.31111859863740393,0.9994440277863428,0.0011674335396771884
-0.3090051677747397,-0.3090051677747397,1.0005354778545277,0.0011484918424310658
-0.3076848724129377,-0.3076848724129377,1.0022341999108189,0.0011342764913345334
-0.30495185021718496,-0.30495185021718496,0.9992219739385402,0.0011365576792808142
-0.3032953804678982,-0.3032953804678982,1.0002091694594797,0.0011766661111335145
-0.3014302962197689,-0.3014302962197689,0.9995431001490497,0.0011469815591257763
-0.2999772848299472,-0.2999772848299472,0.9988950621737083,0.0011777630833130852
-0.297663268254837,-0.297663268254837,1.0000492285436215,0.0011511104362490663
-0.29614584098162594,-0.29614584098162594,0.9997854664928386,0.0011539483012156277
-0.29505795718578154,-0.29505795718578154,0.9998818313392807,0.0011638390065923166
-0.29341447255865205,-0.29341447255865205,1.0004375672304544,0.0011774098048888191
-0.2916130402300041,-0.2916130402300041,1.000955678893301,0.0011359669977490008
-0.289482114938437,-0.289482114938437,1.0000767856971815,0.0011400385455965663
-0.2885051619989099,-0.2885051619989099,1.000118948890902,0.0011510186662276442
-0.2866983039915795,-0.2866983039915795,1.0012026074293998,0.0011403901397349734
-0.2846033064066432,-0.2846033064066432,1.001615695285528,0.0011777380386909196
-0.2819851058156928,-0.2819851058156928,0.9991841499498353,0.0011368538960746313
-0.2807216129702283,-0.2807216129702283,1.000037331245033,0.001144132193515602
-0.2784227639873279,-0.2784227639873279,1.0005511411166064,0.0011618280188636998
-0.2766905883239815,-0.2766905883239815,0.9996320753194647,0.001162639514202551
-0.27460948967782317,-0.27460948967782317,0.9998875015257092,0.0011358476836481825
-0.2733653124072589,-0.2733653124072589,0.9974765549839019,0.0011414270831345157
-0.27162318931659685,-0.27162318931659685,1.0006743424943139,0.0011778875715248876
-0.26929186535417104,-0.26929186535417104,0.9978631796173698,0.0011291588962013765
-0.2680227972305147,-0.2680227972305147,1.0013226353060916,0.0011952253066492397
-0.2664471787342336,-0.2664471787342336,1.0001990329564439,0.0011837725065437141
-0.26487088699359446,-0.26487088699359446,1.0021109862925193,0.0011712421875894438
-0.26230000269133597,-0.26230000269133597,1.000166721132834,0.0011309276206945573
-0.26120456243806983,-0.26120456243806983,1.000047721513145,0.0011533686631510875
-0.2593584568850929,-0.2593584568850929,1.0002219400821843,0.0011418342139028314
-0.25717123079230075,-0.25717123079230075,0.9996473548424369,0.0011336244563290216
-0.2547042337042512,-0.2547042337042512,1.0003882021966741,0.0011657381455733229
-0.2539487161062425,-0.2539487161062425,1.0003367940353463,0.0011761127534679525
-0.25245775853691155,-0.25245775853691155,1.0002274636990698,0.0011362245993536571
-0.2507053046487272,-0.2507053046487272,1.001561475148851,0.0011728502746136868
-0.2485262623435119,-0.2485262623435119,0.9995671571817472,0.001133399278179397
-0.24676825333444868,-0.24676825333444868,1.0006717005741868,0.0011486665725337357
-0.24524994638341013,-0.24524994638341013,0.998695011933427,0.0011352610055760483
-0.24235104428371415,-0.24235104428371415,0.9987257115452264,0.0011350374882330991
-0.24085205186274833,-0.24085205186274833,1.0003581019041348,0.0011883608637783376
-0.23910985050606542,-0.23910985050606542,1.0008770765968857,0.0011497566411552448
-0.23670606703963132,-0.23670606703963132,0.9993092206008555,0.0011391504466300277
-0.23456820463761688,-0.23456820463761688,0.999295718456661,0.0011442057508041818
-0.23361101935151965,-0.23361101935151965,0.9996213247519412,0.0011528641925462363
-0.23169879790802952,-0.23169879790802952,1.0001846840538398,0.0011428394816313217
-0.22928740016068333,-0.22928740016068333,1.0005277334741756,0.0011370181064845923
-0.2271685613086447,-0.2271685613086447,1.0014399353576153,0.0011612978425345239
-0.22622190850670448,-0.22622190850670448,0.9999752163495266,0.0011311252695887421
-0.22432005578884856,-0.22432005578884856,1.00066070069671,0.0011417278848403968
-0.2219832938921172,-0.2219832938921172,0.9996419149368826,0.001177365537709483
-0.2196492351795314,-0.2196492351795314,1.000559099092585,0.0011528702397885396
-0.21830181749828625,-0.21830181749828625,1.000204556216985,0.00113527116653004
-0.21599469416541978,-0.21599469416541978,1.0015310127244619,0.0011871684831824352
-0.21428899659367745,-0.21428899659367745,1.0004057786683689,0.001131017605090046
-0.21224971576593815,-0.21224971576593815,1.0002576057654538,0.001149869843672255
-0.21112917545833626,-0.21112917545833626,1.0003572184698144,0.0011581329976632863
-0.2088247228821274,-0.2088247228821274,1.0002782636771443,0.001137546716254826
-0.20670351659355218,-0.20670351659355218,1.0007555712410943,0.0011562265371452
-0.2055806546995882,-0.2055806546995882,0.9989125676610981,0.0011296479750587515
-0.20405854549608193,-0.20405854549608193,0.9999019964259455,0.0011473691244780339
-0.2013703298784094,-0.2013703298784094,1.0000307657587992,0.0011369153100617875
-0.19940329661767464,-0.19940329661767464,1.0006410913366264,0.001151930372573383
-0.19825819403340575,-0.19825819403340575,1.00069257414185,0.001135287229431535
-0.19623915539996234,-0.19623915539996234,0.9994525078295023,0.0011397589164961104
-0.19327883551304695,-0.19327883551304695,1.001775836375543,0.0011559894458885228
-0.1921132963616401,-0.1921132963616401,1.0006364536126937,0.0011576065686421321
-0.19109010972315446,-0.19109010972315446,0.9985739708972117,0.0011500285329811791
-0.189243704918772,-0.189243704918772,1.0008162608976192,0.001141459178431663
-0.18741200367221608,-0.18741200367221608,1.000802462314504,0.0011895760944501867
-0.18533925699011888,-0.18533925699011888,0.9990223377169082,0.0011569682117707927
-0.18427325890224894,-0.18427325890224894,0.9997589094778597,0.0011406246901778968
-0.1821342808980262,-0.1821342808980262,0.99846888985369,0.0011399627263411242
-0.17950949125515764,-0.17950949125515764,1.0011945832069633,0.0011301612864205526
-0.1773520257382188,-0.1773520257382188,0.9991445287576395,0.0011482145219831714
-0.17530245075467973,-0.17530245075467973,0.9989620167011972,0.001140865752857193
-0.1730355603969656,-0.1730355603969656,1.0002936675296352,0.0011457911297516378
-0.1719698505505221,-0.1719698505505221,0.9991946448139128,0.0011547067313348188
-0.17084901338384953,-0.17084901338384953,1.0010714567238261,0.0011687825844458736
-0.1689442593138665,-0.1689442593138665,0.9996807153899603,0.0011395097856920348
-0.16607762937783263,-0.16607762937783263,0.9997879143310545,0.001145572658469629
-0.16474168082932011,-0.16474168082932011,0.9995268750470079,0.0011473056327257428
-0.16387879723042714,-0.16387879723042714,1.0000040718891763,0.0011598364039318329
-0.16210946399951354,-0.16210946399951354,0.9992166609966848,0.0011630957834539405
-0.15994514802005141,-0.15994514802005141,0.999401338402978,0.0011785713200052118
-0.15761187426105608,-0.15761187426105608,0.9991039128501678,0.0011539235039576662
-0.15651518886152188,-0.15651518886152188,0.999633749477605,0.00115014125341097
-0.15453979906451423,-0.15453979906451423,1.0000028057301726,0.0011415323853777937
-0.1526152664417168,-0.1526152664417168,0.9996881936285785,0.001163093240856607
-0.15053113995236345,-0.15053113995236345,0.9995855835691151,0.0011354917412843841
-0.14933140717621426,-0.14933140717621426,1.0006361764483835,0.0011703232793812636
-0.14738583082798867,-0.14738583082798867,0.9977952566429303,0.0011377479229281093
-0.14492393620312213,-0.14492393620312213,1.0007340617321852,0.001154313410981861
-0.14351077386818362,-0.14351077386818362,1.0008392259149352,0.0011372004342352455
-0.14188976683071813,-0.14188976683071813,0.9995556219717475,0.0011984212124282008
-0.1399508101923857,-0.1399508101923857,1.0007788322611597,0.0011351850480226821
-0.13761094610672445,-0.13761094610672445,1.000384310672555,0.0011525758639689405
-0.1365876043040771,-0.1365876043040771,1.0005447788773387,0.001128824122291932
-0.13457381333282684,-0.13457381333282684,1.0015106976495671,0.0011456458819072747
-0.13191912264446728,-0.13191912264446728,1.0002257336054918,0.0011606452876866617
-0.13042823670839426,-0.13042823670839426,1.0009139636386455,0.0011394714505589966
-0.12945649411994964,-0.12945649411994964,1.0005498055818616,0.0011501030687217659
-0.12757458421983756,-0.12757458421983756,1.0010767318144365,0.0011393778794887147
-0.12575954690983054,-0.12575954690983054,0.9999030714043237,0.0011730673020382853
-0.12330659572035074,-0.12330659572035074,1.0002385376172664,0.001157573897870514
-0.12223218203580473,-0.12223218203580473,0.9997949862506783,0.0011410061221803999
-0.12010082207270897,-0.12010082207270897,1.0008365099265721,0.0011414978093133121
-0.11746031923394185,-0.11746031923394185,1.0011433501606342,0.001149629106826373
-0.11531292635772843,-0.11531292635772843,0.9983903512588126,0.00114800508058526
-0.11400992399430834,-0.11400992399430834,0.9997707180660317,0.001161066624848215
-0.11188203021592927,-0.11188203021592927,0.998378971337788,0.0011529902808833411
-0.11025838111818302,-0.11025838111818302,1.0001794223479872,0.0011467712149096684
-0.10922648635169026,-0.10922648635169026,1.001193390047462,0.0011528359689158972
-0.10728108214971144,-0.10728108214971144,0.9993407203368326,0.0011460096197137102
-0.10459349928132725,-0.10459349928132725,0.9991335968014496,0.0011366346935256708
-0.10287528125045356,-0.10287528125045356,1.000137705737517,0.0011591004230267468
-0.10210051871836186,-0.10210051871836186,1.0007180041837118,0.0011620705991061751
-0.10047244192974177,-0.10047244192974177,0.9968711386378246,0.0011689650147940409
-0.09893305320292711,-0.09893305320292711,1.001122370572337,0.001196061990274793
-0.09626658922352363,-0.09626658922352363,0.9999461398940909,0.0011407752979009824
-0.09497858274844476,-0.09497858274844476,1.0003253627064184,0.0011670570781489567
-0.09336269680061378,-0.09336269680061378,0.9999222974711002,0.0011329300291060716
-0.09128733267716597,-0.09128733267716597,1.000880586057603,0.0011683656223441165
-0.08930197481240612,-0.08930197481240612,1.0012176256153753,0.0011319498761889258
-0.08786657273303718,-0.08786657273303718,1.0013179963705936,0.0011750343485724744
-0.08674989843566436,-0.08674989843566436,1.0008902695869,0.001162283630646534
-0.08410530183173251,-0.08410530183173251,0.99984485989468,0.0011336425919611837
-0.0825296127673937,-0.0825296127673937,1.0009643362645828,0.0011557639314783497
-0.08060822030820418,-0.08060822030820418,1.0005425046813397,0.0011640324071171936
-0.07914096324821003,-0.07914096324821003,0.9990390102509986,0.001134540525260295
-0.07618064024136402,-0.07618064024136402,0.9994709727280261,0.0011315404777502726
-0.07509887248743326,-0.07509887248743326,0.99897298304122,0.0011541662950004374
-0.07323906300298404,-0.07323906300298404,1.000564082373327,0.0011420795315485672
-0.07106097372598015,-0.07106097372598015,0.9999773512614469,0.0011359186844706816
-0.06866089128307067,-0.06866089128307067,0.9994091540774394,0.0011401080079447084
-0.06775792837725021,-0.06775792837725021,0.9999706385568015,0.0011506761332438832
-0.06633284988056402,-0.06633284988056402,0.9985591318970313,0.001135062037596763
-0.06460935364302714,-0.06460935364302714,1.0001453507220244,0.0011753854061574457
-0.06196608011086937,-0.06196608011086937,0.9996125085452391,0.001131531492124424
-0.06045141355716623,-0.06045141355716623,1.0005835425859788,0.0011511159205162542
