time,time,flux,flux_err
-0.49991166871101694,-0.49991166871101694,1.000046047108354,0.00010997893082382974
-0.4996754868043354,-0.4996754868043354,0.9999466781348598,0.00010769562448740771
-0.4995326231904376,-0.4995326231904376,0.9998537304102287,0.00010696908830037767
-0.49938084102759606,-0.49938084102759606,0.9999604370816663,9.812133359203112e-05
-0.49931352807980145,-0.49931352807980145,0.9998116671298053,9.763225148352486e-05
-0.4991912861041783,-0.4991912861041783,1.000079469031905,9.693581865550483e-05
-0.499070737981674,-0.499070737981674,1.0001394299388697,9.566969130893183e-05
-0.498848420970171,-0.498848420970171,1.000082067139352,9.685091324780435e-05
-0.49870684355919365,-0.49870684355919365,1.0000234729730828,0.00010046475806269812
-0.498633283055824,-0.498633283055824,1.0000624382344625,9.883066158794694e-05
-0.49850402621232204,-0.49850402621232204,1.0000903677328488,9.733186704788635e-05
-0.4982453813361644,-0.4982453813361644,1.0001830190481704,9.787678203235695e-05
-0.4980531734028773,-0.4980531734028773,0.9999479876815005,9.701220107026956e-05
-0.49790092911061945,-0.49790092911061945,0.9998997564672967,9.894899875572342e-05
-0.497784250145196,-0.497784250145196,0.999833088532531,9.806172391785941e-05
-0.4977092551169335,-0.4977092551169335,1.0000077410505193,9.616691283659371e-05
-0.4976215474300261,-0.4976215474300261,1.000015114040743,9.747488776315632e-05
-0.49754368877765953,-0.49754368877765953,0.9999223489995239,9.674004843867364e-05
-0.4974064500973327,-0.4974064500973327,1.0000625508837626,9.809119958380092e-05
-0.49725351451415917,-0.49725351451415917,0.9998234423917136,9.831381349785188e-05
-0.4971309691041824,-0.4971309691041824,0.9999065460196496,9.702090275915523e-05
-0.49701644657034194,-0.49701644657034194,0.9999751848070885,9.857075788042432e-05
-0.49695026524932473,-0.49695026524932473,1.0002011154869612,9.672018893485045e-05
-0.4969031428998278,-0.4969031428998278,0.9999881921292975,0.00010086345873789862
-0.49678773292544065,-0.49678773292544065,0.9999344988976961,9.810170755099761e-05
-0.4966873546298302,-0.4966873546298302,1.0001584788392648,9.536753987782164e-05
-0.49661059136851693,-0.49661059136851693,0.9998778982917591,9.586768797253554e-05
-0.49647369233643984,-0.49647369233643984,1.0001331526254238,9.950394632516607e-05
-0.49631580249842955,-0.49631580249842955,0.999900294840488,9.891070666778883e-05
-0.496207148929534,-0.496207148929534,0.999993912682409,9.834350294017162e-05
-0.49610648714005945,-0.49610648714005945,0.999997753516903,9.754530404228668e-05
-0.4960275928620831,-0.4960275928620831,0.9999928048391522,9.725945308007863e-05
-0.49594454077159755,-0.49594454077159755,0.9999611616067398,0.00010137961259885446
-0.4958558521939267,-0.4958558521939267,1.00021755106875,9.816207567768466e-05
-0.4957983419830271,-0.4957983419830271,1.0000225096802589,9.758279528132863e-05
-0.49571512455731864,-0.49571512455731864,0.9998191220505198,9.663374387236661e-05
-0.49549750253208913,-0.49549750253208913,0.9999510978888064,9.810508066390117e-05
-0.49538380499434426,-0.49538380499434426,1.0000411128721658,0.0001011514671857847
-0.4952391807826643,-0.4952391807826643,0.9998632478143359,9.797804960703529e-05
-0.49505444883034216,-0.49505444883034216,1.0001177764519338,9.850970501270285e-05
-0.4948977610292786,-0.4948977610292786,1.0000821730646698,9.805422720014586e-05
-0.49475003914776605,-0.49475003914776605,0.9998955964397205,9.780869476583732e-05
-0.4946541400604474,-0.4946541400604474,0.9999635544690939,9.766446776688037e-05
-0.4945183845185966,-0.4945183845185966,1.000030243583487,9.790031428399626e-05
-0.49439908448257486,-0.49439908448257486,1.0000997291408869,9.710486724398147e-05
-0.4941710676168441,-0.4941710676168441,1.0001202096115362,0.00010053091415874184
-0.49404875651598557,-0.49404875651598557,1.0001050147950732,9.858116091184248e-05
-0.49391893332795006,-0.49391893332795006,1.0001083313239096,9.732283447876902e-05
-0.4937568393550464,-0.4937568393550464,1.0001141961944051,9.611403216996426e-05
-0.49353249850828435,-0.49353249850828435,1.0000953871736156,9.700885577492158e-05
-0.49336400751417386,-0.49336400751417386,0.9998766483038383,9.81820552578523e-05
-0.49324571463293976,-0.49324571463293976,1.00003258686164,9.708785442975194e-05
-0.49313380661478734,-0.49313380661478734,0.9999274815958075,9.811538014946116e-05
-0.4930196778921527,-0.4930196778921527,1.0001783408200977,9.779877929774236e-05
-0.49294532188214363,-0.49294532188214363,1.000027130065115,9.679982532613967e-05
-0.49283859238639705,-0.49283859238639705,1.000159499445331,9.74298526253312e-05
-0.4927069777462748,-0.4927069777462748,1.00007357524162,9.593999732423744e-05
-0.4925613360021089,-0.4925613360021089,1.0000457405143104,9.707595917124939e-05
-0.492450466286391,-0.492450466286391,0.9998352463157341,9.736435881617877e-05
-0.4923455287833349,-0.4923455287833349,1.000032264949399,0.00010417533661280134
-0.49228539530740817,-0.49228539530740817,1.0000467425480402,9.603319529332086e-05
-0.492197444645717,-0.492197444645717,1.0000791990170874,9.742531186369681e-05
-0.49207310968631646,-0.49207310968631646,1.000244879534345,9.695017829513461e-05
-0.49194134893405134,-0.49194134893405134,1.0001029473143057,9.651462300106116e-05
-0.4918216234051215,-0.4918216234051215,0.9999954454275202,9.934193496403116e-05
-0.49166325944388517,-0.49166325944388517,0.9999292743809732,9.842021193135885e-05
-0.49156568553880786,-0.49156568553880786,1.000090000930308,9.745601784393283e-05
-0.491459985479014,-0.491459985479014,0.9998885796237029,0.00010131383033023368
-0.49136765269213356,-0.49136765269213356,1.0001002999155524,9.742936227777854e-05
-0.49128143575944705,-0.49128143575944705,0.999995131331502,0.00010097295984376283
-0.49116092456533805,-0.49116092456533805,0.9999007938169562,9.755195789493387e-05
-0.4910174378193915,-0.4910174378193915,0.9999464442058615,9.800184129613073e-05
-0.49087022185267415,-0.49087022185267415,0.9999513042532187,0.00010170004374443873
-0.49072019850282234,-0.49072019850282234,1.000012653466852,9.754921629884812e-05
-0.490570261720859,-0.490570261720859,1.000054859986891,9.811080652761064e-05
-0.49041337866729007,-0.49041337866729007,0.9999777632449207,9.722983848991747e-05
-0.4903238269042049,-0.4903238269042049,1.0000878379300655,9.815436376332069e-05
-0.4902142286271555,-0.4902142286271555,0.9998881579006038,9.767923335759919e-05
-0.49004446777762495,-0.49004446777762495,0.999976391184016,9.615133330102069e-05
-0.48990347471335555,-0.48990347471335555,1.00004904251039,9.742246100903993e-05
-0.48972097865189423,-0.48972097865189423,0.9999837038117608,9.640883438342367e-05
-0.4895840989724093,-0.4895840989724093,1.0000668094600091,9.785536719697764e-05
-0.48950438579850014,-0.48950438579850014,1.0000520026732544,9.843172951722244e-05
-0.4893812212940247,-0.4893812212940247,1.000016930077529,9.738826587736781e-05
-0.4892408762374544,-0.4892408762374544,0.999990684412308,9.718090809407127e-05
-0.48908685876303937,-0.48908685876303937,1.0001227658803324,9.691454163647634e-05
-0.48894144300720654,-0.48894144300720654,1.0000413857816244,9.695653273584795e-05
-0.48880340736359357,-0.48880340736359357,0.9998912934909425,9.798287854697765e-05
-0.4886503015710332,-0.4886503015710332,0.9999547404040496,9.798982750879306e-05
-0.4885388694674475,-0.4885388694674475,0.9999264384338271,9.749625150917818e-05
-0.48845538887908335,-0.48845538887908335,0.999880248569675,9.713604339591448e-05
-0.4883693099647644,-0.4883693099647644,1.0000961799622816,9.743503796109037e-05
-0.48826286856419754,-0.48826286856419754,0.9999981156746663,9.69979520456045e-05
-0.48809556538253673,-0.48809556538253673,1.000238632352185,9.625568337697582e-05
-0.48798387678471045,-0.48798387678471045,0.9997046599524173,9.637634056186163e-05
-0.487902990677685,-0.487902990677685,1.0000110894157412,9.55784509206342e-05
-0.48784778419721986,-0.48784778419721986,0.9997978520662144,9.746030404886147e-05
-0.48774483861925544,-0.48774483861925544,1.0001741516385407,9.647585163505162e-05
-0.4876429661759175,-0.4876429661759175,1.0000554219458946,9.608544759690064e-05
-0.4875549722113647,-0.4875549722113647,1.0000089297186407,9.804553159926886e-05
-0.48747077360676483,-0.48747077360676483,1.000074607474669,9.609916424890075e-05
-0.48733892979144,-0.48733892979144,1.0000571380192318,9.613497071272415e-05
-0.48718805874159443,-0.48718805874159443,1.0001446238829215,9.694739798810103e-05
-0.4870425390530727,-0.4870425390530727,0.9999011767304795,9.917580368744828e-05
-0.48691663528443313,-0.48691663528443313,1.0001651172225539,9.702935467733905e-05
-0.48677139062128844,-0.48677139062128844,1.0000050666853135,9.804226973891093e-05
-0.48667773831402883,-0.48667773831402883,1.000038913382482,0.00010064128296466101
-0.4865962102281628,-0.4865962102281628,0.9997977445541972,9.663068659118353e-05
-0.4864818213645776,-0.4864818213645776,1.0001296048487722,9.81436829912392e-05
-0.4863196746751782,-0.4863196746751782,1.0000007396832606,9.818049354389333e-05
-0.4862074997930904,-0.4862074997930904,1.0001410625371956,0.0001025462707415895
-0.4861158989428077,-0.4861158989428077,1.0000821158714879,0.00010911108640332267
-0.4860150593951403,-0.4860150593951403,1.0000162710245948,9.590252027683482e-05
-0.48586490774614505,-0.48586490774614505,1.000077059805001,9.879015538366383e-05
-0.4857873061700957,-0.4857873061700957,1.0000283112728414,9.764665052609793e-05
-0.4856851977019687,-0.4856851977019687,1.000152643808713,9.680085599399302e-05
-0.48555188740283484,-0.48555188740283484,0.999957573090801,9.66759417407149e-05
-0.485440978888073,-0.485440978888073,1.0000076265829705,9.688104804036696e-05
-0.48534629180285266,-0.48534629180285266,1.0000751545658646,9.680670386074473e-05
-0.48524569924047684,-0.48524569924047684,1.0001004359907681,9.652229083822747e-05
-0.48499226742424073,-0.48499226742424073,1.0000241876730782,9.727186842486328e-05
-0.48479032578252373,-0.48479032578252373,1.0000606777814909,9.721191204808597e-05
-0.4847053194178443,-0.4847053194178443,1.0000852042938884,9.733524509246582e-05
-0.4845914679091948,-0.4845914679091948,1.0000088358156454,9.638700169030832e-05
-0.4844865731727623,-0.4844865731727623,0.9999572738916219,9.582359078107527e-05
-0.4843974632014579,-0.4843974632014579,0.9999631502447416,9.631764199950328e-05
-0.4842550917550398,-0.4842550917550398,0.9999138501098717,9.657903577106653e-05
-0.48411013243094203,-0.48411013243094203,1.0001030997476867,9.544302870933787e-05
-0.4840027117817954,-0.4840027117817954,0.9999810156402976,9.814969336157785e-05
-0.4839159152448701,-0.4839159152448701,1.0001769561803866,9.728738941995789e-05
-0.48381191753069286,-0.48381191753069286,0.9999464885054635,9.734690357321031e-05
-0.48372557241964387,-0.48372557241964387,0.999906223381933,9.675773470558444e-05
-0.4835718142370752,-0.4835718142370752,0.9999440727520359,9.703813066525965e-05
-0.4834812986970064,-0.4834812986970064,1.000014998098855,9.604917818442716e-05
-0.4833863723790273,-0.4833863723790273,1.000140839852885,9.882867146072572e-05
-0.4832956371647015,-0.4832956371647015,0.9999875277660537,9.562394203150738e-05
-0.48321865849866297,-0.48321865849866297,0.9999848117917496,9.806380443607617e-05
-0.4830850576974626,-0.4830850576974626,1.0000763615161283,9.831895028779826e-05
-0.4829936716334487,-0.4829936716334487,1.0000774810590165,9.793598812123955e-05
-0.48290273706879816,-0.48290273706879816,0.999980230963138,9.664900694342622e-05
-0.4828008530748775,-0.4828008530748775,1.000147893979968,9.662462294836343e-05
-0.4826646455941955,-0.4826646455941955,1.0000625283987823,9.678452954435678e-05
-0.48251246266372616,-0.48251246266372616,1.0000824130846606,9.821572422945833e-05
-0.4823656449392729,-0.4823656449392729,0.9996245711850043,9.734021248097937e-05
-0.4822656378564716,-0.4822656378564716,1.0001019359911876,9.684510327052965e-05
-0.4821753522839572,-0.4821753522839572,0.9998012072524428,9.8526504429468e-05
-0.48209052930542384,-0.48209052930542384,1.0002407363667458,9.97052044262146e-05
-0.4820075232433737,-0.4820075232433737,0.9998391535809382,9.57034916515948e-05
-0.4819512873007625,-0.4819512873007625,1.0001442291132796,9.873468663786661e-05
-0.48178906047251074,-0.48178906047251074,1.0001382083670032,9.801070497907444e-05
-0.4816567113819474,-0.4816567113819474,0.9999001004934724,0.00010192629060525862
-0.48154589590849356,-0.48154589590849356,1.000132469785195,0.00010336951016359425
-0.48146103219187353,-0.48146103219187353,0.9999869833716553,9.662513831427409e-05
-0.4813523153701681,-0.4813523153701681,0.9998803665603001,9.639824038217267e-05
-0.4812335029389942,-0.4812335029389942,1.000057336562616,9.939505682414032e-05
-0.48114574974752033,-0.48114574974752033,0.999996911623372,9.631486089531201e-05
-0.4810162064793985,-0.4810162064793985,1.0002465836393957,9.757132507406179e-05
-0.48089001561893385,-0.48089001561893385,1.0002214089701613,9.699911195010629e-05
-0.4807845228620863,-0.4807845228620863,1.00016920219162,9.572390055164864e-05
-0.48070237885258393,-0.48070237885258393,0.9997454675106574,9.744487269245775e-05
-0.48053289341914934,-0.48053289341914934,1.000001150389031,9.811886642467785e-05
-0.4803386447689263,-0.4803386447689263,1.0000642818192724,9.719286820593919e-05
-0.48022380787006114,-0.48022380787006114,0.999982915302418,9.707112208953711e-05
-0.4801409643434454,-0.4801409643434454,0.9999397603065805,9.70886578918789e-05
-0.4800119042476581,-0.4800119042476581,0.999814809034086,9.714315982920432e-05
-0.479849010790349,-0.479849010790349,1.0000607665841783,9.638525423277935e-05
-0.47969041239630317,-0.47969041239630317,1.0002234894124755,9.715883598350334e-05
-0.47950368985693786,-0.47950368985693786,0.9999668676329021,9.704643451579739e-05
-0.4793970403552521,-0.4793970403552521,1.0001722391421919,9.875843898895503e-05
-0.4792863540678809,-0.4792863540678809,0.9999700848973779,9.649169909928909e-05
-0.47914371201841277,-0.47914371201841277,1.000080198057023,9.799530197057604e-05
-0.47896991942761813,-0.47896991942761813,1.000047776313416,9.718307186756746e-05
-0.47888855158817023,-0.47888855158817023,1.000088517843921,9.664170247119644e-05
-0.4787702919376898,-0.4787702919376898,0.9999347933200206,9.638134398122008e-05
-0.47864331152668455,-0.47864331152668455,0.9998415228585571,9.780381845277449e-05
-0.4785014825691178,-0.4785014825691178,1.0000727613205407,9.749526438332833e-05
-0.4783937244785193,-0.4783937244785193,0.999942262289165,9.809529969832588e-05
-0.4783056196371035,-0.4783056196371035,0.9999663208241012,9.806655959234033e-05
-0.47822077544915376,-0.47822077544915376,1.000208323802093,9.660592076711638e-05
-0.4780820828804281,-0.4780820828804281,1.000015386097017,9.645382375481281e-05
-0.47789807238368665,-0.47789807238368665,1.0002076519928007,9.931142280757096e-05
-0.47777193630172404,-0.47777193630172404,1.0001035319771858,9.76953154524246e-05
-0.4776383770004031,-0.4776383770004031,0.9999402587213982,0.00010009986703368455
-0.4775283945884439,-0.4775283945884439,0.9999849737341538,9.846969181670059e-05
-0.4774191143580538,-0.4774191143580538,0.9999298634119201,9.626233123192071e-05
-0.4773609281182871,-0.4773609281182871,1.000122130211847,9.847266975487564e-05
-0.47724156449330624,-0.47724156449330624,0.9999480290185678,9.672235100625347e-05
-0.4771023257453635,-0.4771023257453635,0.9998568315610232,0.00010266955958832666
-0.4769552926169126,-0.4769552926169126,0.9999757634700261,9.84998820517907e-05
-0.4768639238274773,-0.4768639238274773,0.9999323782192651,9.653697391268055e-05
-0.4767538567291922,-0.4767538567291922,1.000193052727371,9.75106163055603e-05
-0.4766218500582909,-0.4766218500582909,1.0000910738652982,9.701639886927724e-05
-0.47653552607007443,-0.47653552607007443,1.0000790653179368,9.599984270612167e-05
-0.4764432813484746,-0.4764432813484746,1.0000353147753924,9.790200940612068e-05
-0.4763282919928315,-0.4763282919928315,1.0000906820543958,9.670526064195494e-05
-0.4762006927099719,-0.4762006927099719,0.9999944309196585,9.656257453408738e-05
-0.47612238080691893,-0.47612238080691893,0.9999651178342075,9.744572108920255e-05
-0.4759727086056955,-0.4759727086056955,1.0000555950383214,9.627815359377481e-05
-0.4757479741136194,-0.4757479741136194,1.0000069832146559,9.629321333692947e-05
-0.4756175772439747,-0.4756175772439747,1.0000422431296934,9.754077827670344e-05
-0.4755645567609463,-0.4755645567609463,1.0000064389100873,9.744338832343357e-05
-0.4754890739626717,-0.4754890739626717,0.9999713973262206,9.636311523148451e-05
-0.4753268104403105,-0.4753268104403105,0.9999349737962995,9.647710388963162e-05
-0.4752111335132213,-0.4752111335132213,0.999966840334951,9.664639192703065e-05
-0.4750276258091617,-0.4750276258091617,0.9999942290067698,9.702324783756393e-05
-0.4748956039198674,-0.4748956039198674,1.000068895143392,9.70342147260359e-05
-0.4748120104413829,-0.4748120104413829,1.0001495514788297,9.797556966786606e-05
-0.4746866884335759,-0.4746866884335759,0.9999902204470696,9.600341790374526e-05
-0.474572437362076,-0.474572437362076,1.000234830406717,9.752841463416117e-05
-0.4743635212966183,-0.4743635212966183,1.0000641771682905,9.623330049841125e-05
-0.4742487021860143,-0.4742487021860143,0.9999208725601461,9.665695802183026e-05
-0.4741266043020005,-0.4741266043020005,1.00015410269264,9.654530462567063e-05
-0.474028904424631,-0.474028904424631,1.0001339633267687,9.735850094779801e-05
-0.47396579948836004,-0.47396579948836004,0.9998867490233116,9.709312349480775e-05
-0.47384087264799746,-0.47384087264799746,1.0000858258751681,9.783654851922889e-05
-0.47378347160120027,-0.47378347160120027,0.9999144845028105,9.821391872355809e-05
-0.47368190785709885,-0.47368190785709885,0.9999538189293127,9.740639114227967e-05
-0.47360244519732075,-0.47360244519732075,1.0001372015298595,9.834926406163569e-05
-0.4734839817298052,-0.4734839817298052,0.9999295255848415,9.785665655182992e-05
-0.4732824487575272,-0.4732824487575272,0.9999554029445645,9.830553643628366e-05
-0.4731815289327642,-0.4731815289327642,1.000244929098813,9.703234119469355e-05
-0.47305201363924426,-0.47305201363924426,1.0001564515832855,0.0001024214341152151
-0.4729291035931965,-0.4729291035931965,1.0000060490478153,0.0001009290944844629
-0.472827578754368,-0.472827578754368,1.000006765539289,9.7146475547332e-05
-0.47271986642153935,-0.47271986642153935,0.9999441963311902,9.711764550271204e-05
-0.4725873062176106,-0.4725873062176106,1.000087798077012,9.77264498880996e-05
-0.47247728309812376,-0.47247728309812376,0.9999389376416079,9.792941064459216e-05
-0.47234251536792726,-0.47234251536792726,0.9999897508931561,9.841897901113269e-05
-0.4722205471043708,-0.4722205471043708,1.000064962180188,9.572842948456994e-05
-0.47206650270018147,-0.47206650270018147,1.0000324666090323,9.831635595413143e-05
-0.4719734231381153,-0.4719734231381153,1.0000399329736944,9.726652430620415e-05
-0.4718613445387746,-0.4718613445387746,1.000090006145586,9.678149435030786e-05
-0.47178321019600844,-0.47178321019600844,0.9999546697753818,9.722486936780057e-05
-0.47160621584480394,-0.47160621584480394,0.9999955305527403,9.706969883067154e-05
-0.47144630741968285,-0.47144630741968285,0.9998678438946765,9.68919265199066e-05
-0.47131683405386865,-0.47131683405386865,0.9999871785530736,9.651342212514501e-05
-0.4710652036752435,-0.4710652036752435,0.9999905513121383,9.707461164320665e-05
-0.47094807276153006,-0.47094807276153006,1.000051633713851,9.728461400793059e-05
-0.4707737148964952,-0.4707737148964952,1.0000401348424308,9.673223561046641e-05
-0.4706291013833834,-0.4706291013833834,1.0000286793412272,9.730929726336208e-05
-0.47040493132080885,-0.47040493132080885,1.0000434533203717,9.776795731720813e-05
-0.47031619623448934,-0.47031619623448934,0.9998805092427043,9.718719105789337e-05
-0.4702447886338632,-0.4702447886338632,0.9998817694539779,9.704635788234014e-05
-0.47013089395622953,-0.47013089395622953,1.0000936270588092,9.632660967663124e-05
-0.4700576568546239,-0.4700576568546239,1.000027630616432,9.674190547993897e-05
