time,time,flux,flux_err
-0.4998773572697246,-0.4998773572697246,1.0003611354773858,0.0005336396179650358
-0.4997470925894352,-0.4997470925894352,1.0000729793674439,0.0005539893522520774
-0.49963211572467114,-0.49963211572467114,1.0005328144655443,0.0005036162737291061
-0.4995487200474599,-0.4995487200474599,1.0007992577052238,0.0005223433698611311
-0.4994726860888477,-0.4994726860888477,0.9997301324928063,0.0005314787363866614
-0.4993986707937438,-0.4993986707937438,1.000286529416163,0.000533485594291939
-0.4992458210334007,-0.4992458210334007,1.00002927875881,0.0004938837371191843
-0.499134977835638,-0.499134977835638,0.9996764221536388,0.0004759321845657641
-0.49896949095418675,-0.49896949095418675,0.9991655168858993,0.0005148862523860524
-0.4988035345239041,-0.4988035345239041,1.0006549230292865,0.0005336513042827797
-0.49870798295523855,-0.49870798295523855,1.0001064765450332,0.0005094691150035823
-0.49861678267843673,-0.49861678267843673,0.9997417564366475,0.0004465807123397364
-0.49849620409950146,-0.49849620409950146,0.999896259832955,0.0006156198228090211
-0.49842960463793134,-0.49842960463793134,1.0004380024224777,0.0005322383805516947
-0.4983241214344162,-0.4983241214344162,1.0000299069138319,0.0004842641555087179
-0.4981426249803917,-0.4981426249803917,0.9994349681010857,0.0005093947136438909
-0.4979935398783709,-0.4979935398783709,0.9999444470299377,0.0004982404122997844
-0.49786613335381846,-0.49786613335381846,0.9994226027996576,0.0005120446708140634
-0.49773612953576957,-0.49773612953576957,0.9994323279468904,0.000503445107172158
-0.497553580954991,-0.497553580954991,1.0000369115488665,0.0004951650250761754
-0.4973991017424851,-0.4973991017424851,1.000636895035073,0.0006315008389133093
-0.49723180121000043,-0.49723180121000043,1.000074187302508,0.0004955715064548525
-0.4971384836957441,-0.4971384836957441,0.9999518759123747,0.0004803686243716011
-0.496977250873897,-0.496977250873897,0.9994574690629541,0.0004860281678769012
-0.4967988517331833,-0.4967988517331833,1.000388970353559,0.0005416121184303378
-0.49662842569377974,-0.49662842569377974,0.999824716163979,0.000534258453147145
-0.49644536559208063,-0.49644536559208063,1.00053990321769,0.000507868399161791
-0.49636455600775664,-0.49636455600775664,0.9999020901294152,0.0005312287582877672
-0.49623824443042397,-0.49623824443042397,1.0008774924014108,0.0005105621644281167
-0.49609486967965494,-0.49609486967965494,1.0002854594130643,0.000526215281033969
-0.4959225099890318,-0.4959225099890318,1.0004700909209876,0.0004931548932967594
-0.4956726518954383,-0.4956726518954383,0.9995415795714363,0.0005017582058314122
-0.49554883265809624,-0.49554883265809624,1.0000689843014787,0.000517740245859602
-0.4954645654877822,-0.4954645654877822,0.9994337053306962,0.00048006520261989325
-0.4953823433170328,-0.4953823433170328,1.0003926140746624,0.0005192672238125246
-0.4953164133723476,-0.4953164133723476,0.9999049927422752,0.0005262011472806896
-0.495231366668304,-0.495231366668304,0.9999281819643191,0.00053858727222356
-0.49510580537389615,-0.49510580537389615,0.9995655175181589,0.0004728089500474372
-0.4949753481669177,-0.4949753481669177,1.0001023099359425,0.0005029907321160362
-0.4947988179868844,-0.4947988179868844,0.9999785030328974,0.0005084967679493619
-0.49460066683386683,-0.49460066683386683,1.0002438579126456,0.000523155880388188
-0.4945578941697022,-0.4945578941697022,1.0002146852459097,0.00048769007306526086
-0.4944825107937504,-0.4944825107937504,1.000410121288624,0.00044648423631585266
-0.4943679554016853,-0.4943679554016853,1.0004490086785542,0.0005592006777126049
-0.49429545025705013,-0.49429545025705013,1.0001229389192807,0.0005708188088070626
-0.494107495786011,-0.494107495786011,0.9998758833801213,0.0004983165607091984
-0.4939590374924592,-0.4939590374924592,1.0003251415729497,0.0005053371699135438
-0.4938481567049166,-0.4938481567049166,0.9998886928338493,0.000526594153823045
-0.4937337895775272,-0.4937337895775272,0.9998971811854445,0.0005116480791941332
-0.4936275819200091,-0.4936275819200091,0.9999267747504451,0.0004727971738812977
-0.4935306917337584,-0.4935306917337584,1.000246822253364,0.0004986382367606512
-0.49336368989315815,-0.49336368989315815,0.9999081139915276,0.00047246351445706604
-0.4932338226346474,-0.4932338226346474,0.9999474131330762,0.0005358547813010962
-0.4931118728170986,-0.4931118728170986,1.000693501366532,0.00044650700633924533
-0.4930142764671473,-0.4930142764671473,0.9999293034321648,0.0005252815514700803
-0.49286647290718977,-0.49286647290718977,1.0000846053629993,0.00046645571993500273
-0.492700109721045,-0.492700109721045,1.0005987377104784,0.0005465335330219932
-0.49256511160347144,-0.49256511160347144,1.000623445166222,0.0005167889481202328
-0.4924066482715716,-0.4924066482715716,1.000102003788949,0.000523024979233487
-0.4922984279124648,-0.4922984279124648,1.0004416190329983,0.0005078068227054961
-0.4922067268227693,-0.4922067268227693,1.0006052651609803,0.0005323670393305179
-0.4920774070211337,-0.4920774070211337,0.9993086104956144,0.0005305607897706799
-0.4919209502906597,-0.4919209502906597,0.9998971249151756,0.0005393713581806199
-0.49162983050264303,-0.49162983050264303,1.0002167439666796,0.000512696010714057
-0.4914433092031686,-0.4914433092031686,1.0003826948167833,0.0004727560719876657
-0.49136075888600317,-0.49136075888600317,0.9999218799202954,0.0005023516497668845
-0.49128814544601485,-0.49128814544601485,1.0003156405906073,0.0005232907377664129
-0.4912081954804307,-0.4912081954804307,1.0005185004187307,0.0005142420423682769
-0.49116204006495534,-0.49116204006495534,0.9993366352552375,0.0005058924931481281
-0.4910272574248665,-0.4910272574248665,1.0003721202991216,0.0005379481872455771
-0.4908723053638823,-0.4908723053638823,0.9999559214633346,0.0004836124967804851
-0.49070914040421487,-0.49070914040421487,1.0002718213296269,0.0004916014686837853
-0.4905847740803438,-0.4905847740803438,0.9998656820501877,0.0005336947624151079
-0.49044590763369345,-0.49044590763369345,0.9999050458718417,0.0005113541200909958
-0.4904041047564533,-0.4904041047564533,1.000225735395505,0.00045936606218227626
-0.49027607982425253,-0.49027607982425253,1.0008324035947722,0.0005481702672553407
-0.49018906279743535,-0.49018906279743535,0.9994736576235204,0.000508901256290802
-0.4900991151116614,-0.4900991151116614,0.9996114125677111,0.0004951996663778309
-0.48984254356182644,-0.48984254356182644,0.9996162529708854,0.000520623075389817
-0.48968466316655396,-0.48968466316655396,0.9999561806558527,0.000501244582365149
-0.489596336222894,-0.489596336222894,0.9996883243941582,0.0005096188084347163
-0.4894652898372442,-0.4894652898372442,0.9993414650482318,0.0004972273088345144
-0.4892989638879953,-0.4892989638879953,0.9999562663382028,0.0004942879186292992
-0.4891181098413654,-0.4891181098413654,0.9998239030117206,0.000532614539787752
-0.48895407074451214,-0.48895407074451214,0.9995987474733121,0.00044809944622253145
-0.4888664592384885,-0.4888664592384885,1.0003673893717697,0.0005253192479713418
-0.48873059383768125,-0.48873059383768125,1.000365979279671,0.00046495047271846723
-0.4885537182730332,-0.4885537182730332,0.9998600689018012,0.0005286488276318755
-0.4884555929165799,-0.4884555929165799,1.0005759062656336,0.000502019837995613
-0.4882941061565361,-0.4882941061565361,1.0002207750487382,0.000491895903492976
-0.4881625628186157,-0.4881625628186157,0.9995424740848902,0.0005380602495450647
-0.48806665698357393,-0.48806665698357393,1.0009592181276221,0.0005169574109333073
-0.48794327784053165,-0.48794327784053165,1.0009255647617405,0.0005385034350255705
-0.48782966884537016,-0.48782966884537016,0.9996842117453723,0.0004927362675767675
-0.4876970785575395,-0.4876970785575395,1.0000966564437188,0.0005465542914203307
-0.4873894639145874,-0.4873894639145874,0.9992992837340573,0.0004812747015892359
-0.4872590089260484,-0.4872590089260484,0.9994512757653646,0.0005185448624511795
-0.4871734745254798,-0.4871734745254798,0.9997782315742402,0.0005066499438573028
-0.4870882637187606,-0.4870882637187606,0.9998727296365907,0.0005316552703706209
-0.4870297334622592,-0.4870297334622592,0.9998620547449759,0.0005059336537107453
-0.48690183150829397,-0.48690183150829397,1.000614618142021,0.0005187264394525933
-0.4867719600595592,-0.4867719600595592,0.9993045007555741,0.0005148422374071922
-0.4866065029935271,-0.4866065029935271,1.0003290655009878,0.0004765210348048302
-0.4865074011417164,-0.4865074011417164,1.0001443338312348,0.000517419198158672
-0.4863433409955178,-0.4863433409955178,1.0001018496847571,0.0005195074022895716
-0.48627816749431074,-0.48627816749431074,0.9999006173651847,0.0004848787525087662
-0.48620292247651375,-0.48620292247651375,0.9996345180067306,0.0004717232813911225
-0.4860881317566964,-0.4860881317566964,1.0001498806508415,0.0005372099370655614
-0.4860101315782231,-0.4860101315782231,1.0000814180329236,0.0005197169707252616
-0.48589850134667356,-0.48589850134667356,0.9999505410588976,0.00046175113372050574
-0.48571940869878744,-0.48571940869878744,1.0001078944874893,0.0005083454184421642
-0.4855847476865165,-0.4855847476865165,0.9998005789470927,0.00047660930227837287
-0.48550290243147176,-0.48550290243147176,0.9992958216020489,0.0005123584907801531
-0.485414854229748,-0.485414854229748,1.000322120124866,0.0005266815779998791
-0.48528114372020353,-0.48528114372020353,1.0003562750846606,0.0005536058597023825
-0.4850713436513615,-0.4850713436513615,1.0002268128516716,0.0005345804136958927
-0.4848593460570555,-0.4848593460570555,0.9999242305723893,0.00048049146919335083
-0.4847438229400723,-0.4847438229400723,0.9995633690141521,0.0005236618998498309
-0.48462209418939894,-0.48462209418939894,1.0007036438717274,0.0005001129353116591
-0.4844796451718139,-0.4844796451718139,0.9999680266691146,0.0004816111659366884
-0.4843505467943032,-0.4843505467943032,0.9997986759463032,0.0005207632877874244
-0.4842352967141778,-0.4842352967141778,1.000459776029191,0.0005233389498431744
-0.48412201017490586,-0.48412201017490586,1.0005678031566123,0.00045425068095293587
-0.4840673976468679,-0.4840673976468679,1.0001118879660968,0.0005247119156781661
-0.4839585005371191,-0.4839585005371191,1.0001345364789105,0.000559563871157821
-0.4837990131389233,-0.4837990131389233,1.0004854125627571,0.0005289069281237177
-0.4836349987715948,-0.4836349987715948,1.0002292710424672,0.0005062596811391241
-0.48351385155619936,-0.48351385155619936,1.000221349863653,0.00046815308273792167
-0.48329412841412706,-0.48329412841412706,0.999495299690744,0.00048237143029671476
-0.48317777577831295,-0.48317777577831295,0.9994520746735802,0.0004879215920529675
-0.48309376549805166,-0.48309376549805166,0.9996839447970046,0.0004825055639017314
-0.483006422084145,-0.483006422084145,0.9993683281981944,0.0005258752211490431
-0.48293754211990747,-0.48293754211990747,0.999667567193104,0.0005433408970935337
-0.4828526648343541,-0.4828526648343541,1.0006887701020564,0.0005128637448463337
-0.48270663432922445,-0.48270663432922445,1.0000281939456657,0.0005120470712151244
-0.4825317584633012,-0.4825317584633012,0.9999484070416027,0.000525336847494845
-0.482343097050034,-0.482343097050034,0.9998344954244704,0.0005132182550057035
-0.48219182042230385,-0.48219182042230385,1.0006195810277865,0.0005197847369435039
-0.48213502010548837,-0.48213502010548837,1.0003532392525902,0.00048333328850775324
-0.4820260477164993,-0.4820260477164993,1.0000511415219306,0.0005349117187371606
-0.4819380817141791,-0.4819380817141791,0.999942081269562,0.0004576394030618881
-0.4818742256022233,-0.4818742256022233,0.9998954265005974,0.0005216402802510677
-0.48173909111283136,-0.48173909111283136,0.9999210737370022,0.0004939979425401641
-0.48153534970988404,-0.48153534970988404,0.9997051140654122,0.0004888550855742222
-0.4814325556413678,-0.4814325556413678,1.0000134485537564,0.00048741911582536254
-0.48136529861585586,-0.48136529861585586,1.0000998070150975,0.0005127947214959507
-0.48126939206558744,-0.48126939206558744,1.0000566032923923,0.0005168746357447476
-0.4811044118294376,-0.4811044118294376,0.9993954517757031,0.0005714570853197893
-0.48096110839251194,-0.48096110839251194,1.000293025675768,0.000522343996434473
-0.4808017660245241,-0.4808017660245241,0.9999612400953298,0.0005310267593549734
-0.4806371997401584,-0.4806371997401584,0.9995768605035774,0.0005027039248885274
-0.48052897680317985,-0.48052897680317985,0.999648655774078,0.0004757974535205964
-0.48038358552585125,-0.48038358552585125,0.9992948815005505,0.0005274461556845072
-0.48023182013130283,-0.48023182013130283,0.9991361094034481,0.0004923309860036245
-0.48012924878130436,-0.48012924878130436,0.9996029004880691,0.0005251732272062936
-0.47999839905096453,-0.47999839905096453,1.0000774602273719,0.00047273388873777253
-0.47993146912413065,-0.47993146912413065,0.9997937370292409,0.0005342451135563599
-0.47981948593151175,-0.47981948593151175,1.0004202181118287,0.0005292254575065306
-0.47975809995405144,-0.47975809995405144,1.0002729439437854,0.0004943722606439466
-0.4796233802720963,-0.4796233802720963,1.000420736367478,0.0005263698616036318
-0.4795015008858172,-0.4795015008858172,0.9998930985755965,0.0005544960830302756
-0.47939898899785477,-0.47939898899785477,0.9998083982224492,0.0004321397888545096
-0.4792047660310345,-0.4792047660310345,0.9997300268324608,0.0005371375017317746
-0.47911943863728085,-0.47911943863728085,1.0003525817389163,0.00047052136751887173
-0.47901008374756204,-0.47901008374756204,1.0005633027887133,0.0005166706507246067
-0.47892905096741745,-0.47892905096741745,1.0004312185081292,0.00048088634169129286
-0.4788557577878237,-0.4788557577878237,1.0009586405630464,0.0005189947163148022
-0.47879087864639586,-0.47879087864639586,1.0001934644783197,0.00052651994426557
-0.47868448138760866,-0.47868448138760866,1.0001878142217007,0.0005117701773243165
-0.47854477692235375,-0.47854477692235375,1.0006028836963483,0.0004887787460054689
-0.47835962139215554,-0.47835962139215554,0.9995067189722017,0.000530101144492885
-0.478226647729025,-0.478226647729025,1.0001063201147313,0.0005607811241657026
-0.4781012195162475,-0.4781012195162475,1.000236914778521,0.0005181091848766504
-0.4780328707747685,-0.4780328707747685,1.0006308960311496,0.00046374333029956544
-0.47797708278521894,-0.47797708278521894,1.0004118667952848,0.00047346177630729677
-0.47784395125927404,-0.47784395125927404,0.9995246815404902,0.0005050198105116391
-0.4777816544759844,-0.4777816544759844,0.9997805121012056,0.0005142534510750188
-0.47765983759309166,-0.47765983759309166,1.0002380895141492,0.00048101723204353595
-0.4774894408910768,-0.4774894408910768,1.000227253507266,0.0005082714908598931
-0.4773135575393098,-0.4773135575393098,1.0002294860984686,0.0004759321740625237
-0.47723742100351957,-0.47723742100351957,1.000245317206263,0.0005328490996135037
-0.4771725076599978,-0.4771725076599978,1.0002443812253818,0.0005254857457422552
-0.4770256269737729,-0.4770256269737729,1.0002872070353916,0.0005191279417247737
-0.47680406955696525,-0.47680406955696525,1.0001310450845888,0.0005519629849791559
-0.47659137663285944,-0.47659137663285944,1.0010221091539002,0.00046703121927080894
-0.4764516062212351,-0.4764516062212351,1.000244640481113,0.0005241992439999058
-0.47631747553605236,-0.47631747553605236,1.000117043802871,0.0005233298539961063
-0.4761784589813033,-0.4761784589813033,1.000070394551663,0.0004683570490564851
-0.47607881846124656,-0.47607881846124656,0.9997241441405567,0.0005121594360573235
-0.47596120567250183,-0.47596120567250183,0.9995629010026608,0.0005233614073060741
-0.4758522446150891,-0.4758522446150891,0.9997849673289018,0.00044169845925335195
-0.47581754165366874,-0.47581754165366874,0.9997651631974795,0.0005231516618232179
-0.4757164057162299,-0.4757164057162299,0.9995821655755938,0.0005136805609645882
-0.4756067990776501,-0.4756067990776501,1.0000672322090054,0.0005506063680111763
-0.4754879754764261,-0.4754879754764261,1.0001922166475317,0.000531577448801408
-0.47537818565615453,-0.47537818565615453,0.9996251165461894,0.000556995031368652
-0.47520970773184673,-0.47520970773184673,1.0004464660198902,0.0004792052668815532
-0.47503697338688655,-0.47503697338688655,1.0000110313415285,0.0005361711246458257
-0.47489697215205523,-0.47489697215205523,1.0002458430997039,0.00048554499380411303
-0.474809456874209,-0.474809456874209,1.0004808520568356,0.0004958201215881209
-0.47472366006113587,-0.47472366006113587,0.9998183243945024,0.0005168593597166415
-0.4746666095066757,-0.4746666095066757,0.9997454890562022,0.0005230975904117321
-0.47459195122501113,-0.47459195122501113,1.0004253817906767,0.0005103769114257847
-0.474451081098232,-0.474451081098232,1.000192544466414,0.0004764847316922487
-0.4743205710306938,-0.4743205710306938,0.9993770677506781,0.0005592551193429613
-0.47417823590440095,-0.47417823590440095,1.0004359883665184,0.0004955257200952069
-0.47405135498120216,-0.47405135498120216,0.9996918523483307,0.0005673675455397883
-0.4739491041851579,-0.4739491041851579,1.000099827775443,0.0004999471613360755
-0.47386472650614453,-0.47386472650614453,1.0001535112528916,0.00045074699006054453
-0.4737906511123583,-0.4737906511123583,1.0001692505829145,0.0004868072575037601
-0.47368431516661075,-0.47368431516661075,0.9998606634063382,0.000492742577564259
-0.4736038515904511,-0.4736038515904511,1.0003615195841173,0.0005160158047749278
-0.47347389840870163,-0.47347389840870163,1.0003004110088565,0.0004827973126398967
-0.47331752786922154,-0.47331752786922154,1.000274334992018,0.000506076817338405
-0.47319426744870724,-0.47319426744870724,0.9994081503648233,0.00046056873608773575
-0.47310848929482746,-0.47310848929482746,1.0000260374491727,0.0005157360600924563
-0.4730680015971302,-0.4730680015971302,0.9994350442143357,0.0005456595812630958
-0.47296441337966827,-0.47296441337966827,1.000343168737825,0.0005092088576059561
-0.47276686097975473,-0.47276686097975473,0.9993715680034067,0.0004906756424094662
-0.4725901000558224,-0.4725901000558224,0.9998025676651114,0.0005508192293606301
-0.4723853708812385,-0.4723853708812385,1.0000497643893291,0.0004690712648785702
-0.47228557052949327,-0.47228557052949327,1.0003203180954556,0.0004949502240619489
-0.47217371338629166,-0.47217371338629166,1.000115269272399,0.0005106780646540187
-0.4720467037208437,-0.4720467037208437,1.0000686572163464,0.0004918560957401199
-0.47193505692703186,-0.47193505692703186,0.9995329928645769,0.0005168750949062007
-0.4717800513986731,-0.4717800513986731,0.9996822182368952,0.0005053254360034759
-0.47168142481386893,-0.47168142481386893,1.0001571264609144,0.0005214268736557094
-0.47155460645954006,-0.47155460645954006,0.9998672951391591,0.0005395992184451423
-0.47144594305063947,-0.47144594305063947,1.0009241221271796,0.0005304404276916223
-0.47132586482621264,-0.47132586482621264,0.9998970972081128,0.0005109493772239796
-0.4712137329472171,-0.4712137329472171,0.9992425854541445,0.0005134905794197616
-0.47109003120713167,-0.47109003120713167,1.0001486853978996,0.0005057537455359434
-0.4709396834979998,-0.4709396834979998,0.9999412179505385,0.0005782090726454516
-0.47083159654503104,-0.47083159654503104,0.9992378024969699,0.0004992654847067928
-0.47072378622251565,-0.47072378622251565,1.0001069397326579,0.00051089235155466
-0.47065185020910577,-0.47065185020910577,0.9998068071533854,0.00047033619825689806
-0.47056330515042644,-0.47056330515042644,1.0000982495197028,0.0005408690135096176
-0.47050697292361293,-0.47050697292361293,1.0000768507134021,0.0005031891420252189
-0.4703677787241759,-0.4703677787241759,0.9994400460253381,0.0005088289048894838
-0.4702543437408167,-0.4702543437408167,0.9996534413833424,0.0004741589620097241
-0.4701012028308469,-0.4701012028308469,0.999670843507267,0.0005725184375113072
-0.4699459800940531,-0.4699459800940531,0.9999712141223854,0.0005416323614368544
-0.46983220909751255,-0.46983220909751255,1.0004919636724658,0.0005173264185903188
-0.46973165810632056,-0.46973165810632056,1.0001061556224662,0.0004641506366648305
