time,time,flux,flux_err
-0.49880660927842657,-0.49880660927842657,0.9998526839692147,0.0002051888722386629
-0.49714501118621685,-0.49714501118621685,0.9999094325309412,0.00020514675061524676
-0.4956095148995473,-0.4956095148995473,0.9998746498841626,0.0002050629618832186
-0.4940725664103297,-0.4940725664103297,1.0001228655046517,0.00020499810961584713
-0.4925342050726272,-0.4925342050726272,1.0002701005253667,0.00020405756824746476
-0.4909272487470844,-0.4909272487470844,0.9999695047060346,0.00020496892723037867
-0.4892351103712258,-0.4892351103712258,1.000144298339156,0.00020496872545997547
-0.48749690326558265,-0.48749690326558265,0.9996921718056335,0.00020491661830417948
-0.4859001648975777,-0.4859001648975777,1.0000571804675622,0.00020483261586789141
-0.48434791528039794,-0.48434791528039794,1.0000985810024832,0.00020476323144165537
-0.48280956725641316,-0.48280956725641316,1.0003022983259922,0.00020404462228222224
-0.481263877483434,-0.481263877483434,0.99977659340866,0.00020468387810824111
-0.47966361198526786,-0.47966361198526786,0.9998926791726644,0.0002047008486482812
-0.4778487958610185,-0.4778487958610185,1.0003071857618502,0.00020469328374433056
-0.4763133312440345,-0.4763133312440345,0.9997471460497807,0.00020466093086992588
-0.474776409464755,-0.474776409464755,1.0001905636087918,0.00020461373975200377
-0.47323807488296554,-0.47323807488296554,1.0000634457665327,0.00020407075770632318
-0.47169239365638305,-0.47169239365638305,0.9999595393243406,0.00020455570095350486
-0.47009211420249813,-0.47009211420249813,0.999912882636836,0.00020445974133001874
-0.4682772613819338,-0.4682772613819338,0.9998562198359735,0.00020449096422078345
-0.46674181267682113,-0.46674181267682113,0.999991836261489,0.00020446674475026893
-0.4652049042497538,-0.4652049042497538,1.0000628225878578,0.00020442605266539322
-0.46366658324884613,-0.46366658324884613,1.0000507015862645,0.0002040648283870913
-0.46212091045055104,-0.46212091045055104,0.999914920129952,0.00020432619089536468
-0.46052061700510194,-0.46052061700510194,0.9998748053628516,0.0002043115424552236
-0.45870572744699983,-0.45870572744699983,0.9997159952027316,0.00020431988811704438
-0.45717029473590853,-0.45717029473590853,1.000227081551236,0.00020428018702189145
-0.45562653031951184,-0.45562653031951184,1.0003263366015862,0.00020409714673254455
-0.454056018172696,-0.454056018172696,1.0003522897458024,0.00020432683013216828
-0.45247285531794434,-0.45247285531794434,0.9997653953160819,0.00020421207467091
-0.450795975289202,-0.450795975289202,0.999847037538725,0.0002041656986779408
-0.44911792429993513,-0.44911792429993513,0.9999017940194064,0.00020408570929992902
-0.4474496051876713,-0.4474496051876713,1.0002984423047272,0.0002042667527064669
-0.4459141917670649,-0.4459141917670649,0.9996642288490024,0.0002041744981561369
-0.44437731277628245,-0.44437731277628245,1.0001197046828143,0.0002041554687464718
-0.44282480084258397,-0.44282480084258397,0.9998179813723542,0.00020406475977234677
-0.44122447935242237,-0.44122447935242237,0.9998629362536132,0.00020411440330797567
-0.4395464345296432,-0.4395464345296432,1.0001786462592388,0.00020404346751926885
-0.43787807253133904,-0.43787807253133904,0.9996676619075557,0.00020408532126791213
-0.43634267525874293,-0.43634267525874293,1.000255364138796,0.0002041528437705993
-0.4348058096536761,-0.4348058096536761,0.999955446994812,0.0002041165922969399
-0.4332533196084455,-0.4332533196084455,1.0003156375065483,0.0002040927161825942
-0.43165298402659574,-0.43165298402659574,0.9999181766310293,0.00020405107996969703
-0.4299749454807511,-0.4299749454807511,1.0002895768133686,0.0002040212231674083
-0.42830654047054395,-0.42830654047054395,1.0000701851864136,0.00020411683041994216
-0.4267711594101911,-0.4267711594101911,0.9997109538701743,0.0002040991924125539
-0.42523430719339783,-0.42523430719339783,0.9999486355313578,0.00020409934020444815
-0.4236818390571443,-0.4236818390571443,1.0000209378254368,0.00020409595055966243
-0.42202023132360866,-0.42202023132360866,0.9999156330612227,0.00020404981807036764
-0.4204034572020873,-0.4204034572020873,1.0000384285462502,0.00020402357423171953
-0.4186584364367832,-0.4186584364367832,1.0003107721080906,0.00020413061145088218
-0.4170311846322193,-0.4170311846322193,0.999727281906608,0.00020404493632214966
-0.41543308774109844,-0.41543308774109844,0.999913037664769,0.00020407628629570272
-0.4138948386363154,-0.4138948386363154,1.000202075288788,0.0002040495869905557
-0.4123492084493364,-0.4123492084493364,1.0000108309238203,0.000204048020054248
-0.41074884177791093,-0.41074884177791093,1.0001277382715243,0.0002040544281503041
-0.4089337605018727,-0.4089337605018727,0.9999498644290578,0.00020410864147433054
-0.4073984121228932,-0.4073984121228932,1.000365905666667,0.00020414037704688366
-0.4058615866979494,-0.4058615866979494,1.0001082731007584,0.00020410211804915553
-0.4043233516026817,-0.4043233516026817,0.9996452125001527,0.00020402267281102387
-0.4027777294384123,-0.4027777294384123,0.9998552842847275,0.00020406277386001288
-0.4011773485982985,-0.4011773485982985,1.0001028071634883,0.00020406496054131058
-0.3993622303203551,-0.3993622303203551,0.9999740141651253,0.00020410291443222374
-0.397826898379526,-0.397826898379526,0.9999037974647138,0.00020416894876271757
-0.39629008637106156,-0.39629008637106156,0.9999102657892529,0.00020407497308004829
-0.3947518653187558,-0.3947518653187558,0.9999229251796246,0.00020408197843389307
-0.39320625114376073,-0.39320625114376073,1.0000010860632287,0.0002040595181024316
-0.3916058560913257,-0.3916058560913257,1.0001359957835145,0.0002040422486466405
-0.3897907007626486,-0.3897907007626486,1.000058504095585,0.0002041059344731235
-0.3882553853601166,-0.3882553853601166,1.0001278052396634,0.00020411441800421423
-0.38671858674507575,-0.38671858674507575,1.0002338720285546,0.00020409320100635997
-0.3851803797741923,-0.3851803797741923,0.9998545995492927,0.00020407774956345334
-0.383565798255961,-0.383565798255961,0.9994530996753983,0.0002040423438829121
-0.382026767277614,-0.382026767277614,1.000140697351123,0.00020410501352277955
-0.3801425995682621,-0.3801425995682621,1.0005372429783717,0.00020410653540323055
-0.37860730077849214,-0.37860730077849214,1.0000839638027597,0.00020411500742964603
-0.3770705155620476,-0.3770705155620476,0.9997856104223437,0.00020411177991687992
-0.3755323226930386,-0.3755323226930386,0.9999099646861709,0.00020405898275916999
-0.37399430701715347,-0.37399430701715347,1.0001462642049936,0.00020410662684672965
-0.37245529056441457,-0.37245529056441457,0.9996894647330439,0.0002040425469591011
-0.37057107133014144,-0.37057107133014144,1.0002306242635075,0.00020412293552622753
-0.3690095540087214,-0.3690095540087214,0.999968036454411,0.0002040579190264718
-0.3673971492475971,-0.3673971492475971,1.000059890719917,0.00020421195958479562
-0.3655638208932032,-0.3655638208932032,1.0001827469620148,0.00020409948239270823
-0.36390013691056994,-0.36390013691056994,1.0001222993416579,0.00020414643330613595
-0.36231602012721853,-0.36231602012721853,1.0003570782886273,0.00020412616546224975
-0.3606861078778138,-0.3606861078778138,1.0000445381846563,0.00020409266901466142
-0.35905522440590404,-0.35905522440590404,0.9993590482684466,0.0002040168353811463
-0.3572475057541851,-0.3572475057541851,0.9998815337351635,0.0002041308342607317
-0.3557122470778495,-0.3557122470778495,0.9997094650715844,0.00020415282362327077
-0.3541754940959663,-0.3541754940959663,1.0003737990268826,0.00020418877983523535
-0.3526373351559755,-0.3526373351559755,1.0001094903387027,0.00020412820233992783
-0.35109930374530907,-0.35109930374530907,1.0000003442183358,0.00020409545548460655
-0.34948374946411603,-0.34948374946411603,1.0000288277377283,0.00020409692591954928
-0.3476759791052473,-0.3476759791052473,1.0000698025986439,0.00020414498917873278
-0.3461407372752433,-0.3461407372752433,1.0001394814313893,0.0002042681757827298
-0.3446039977252212,-0.3446039977252212,1.0000752242180782,0.00020415969321702622
-0.3430658529411062,-0.3430658529411062,0.9999819494451486,0.00020408804849662474
-0.34145124205850835,-0.34145124205850835,0.9998956116330392,0.00020408561569273858
-0.33991227529245405,-0.33991227529245405,0.9996046112659137,0.00020408187807480628
-0.33802788026754343,-0.33802788026754343,1.0001265934198105,0.00020416977907309822
-0.33649265536870415,-0.33649265536870415,1.0003092253794275,0.000204213040619687
-0.33495592926085466,-0.33495592926085466,0.9999028943364326,0.00020418623037750367
-0.3334177986608552,-0.3334177986608552,0.9998628923761809,0.00020407167279335478
-0.33187223521747455,-0.33187223521747455,0.9999480110880639,0.00020406151620058218
-0.3302870622958153,-0.3302870622958153,0.9999959156681018,0.00020407586961987008
-0.3284265072697849,-0.3284265072697849,1.00011224550324,0.00020410079583371002
-0.3268483413182935,-0.3268483413182935,1.0000952902684732,0.00020417013271069513
-0.3252825077041962,-0.3252825077041962,0.9997937202873162,0.0002041508101853746
-0.3236998540261425,-0.3236998540261425,1.0000308087254823,0.0002041726877094644
-0.3221617404161975,-0.3221617404161975,1.0001629865690078,0.00020410607409087866
-0.3206236876176831,-0.3206236876176831,0.9999565905167497,0.00020407250473453587
-0.3188550347463547,-0.3188550347463547,0.9999019569957264,0.0002040870213092983
-0.31718492941748766,-0.31718492941748766,1.0002696366851154,0.00020415938564347222
-0.3155884837557664,-0.3155884837557664,0.9997830827114493,0.00020417078230696237
-0.314051787238202,-0.314051787238202,1.0002194519400245,0.00020417836395286606
-0.31251368780731353,-0.31251368780731353,1.0001322412618423,0.0002041520457144893
-0.3109756282362923,-0.3109756282362923,1.00004909230717,0.00020414870110808188
-0.30928356299307325,-0.30928356299307325,0.9998886970219871,0.000204091072856727
-0.3075521473270101,-0.3075521473270101,0.9997885599346935,0.00020418832344423708
-0.3060169771159963,-0.3060169771159963,1.000089334805438,0.00020420965122784412
-0.3044802940637169,-0.3044802940637169,0.999826291369741,0.0002041637521191857
-0.3029422087706962,-0.3029422087706962,1.0000164504700704,0.00020415738172888014
-0.3014041423939148,-0.3014041423939148,0.9999349869021497,0.00020409624912790295
-0.299712091997128,-0.299712091997128,0.9999270295660695,0.00020412004104497055
-0.29798062420546784,-0.29798062420546784,1.000280132307943,0.0002042051350622294
-0.29644547120019527,-0.29644547120019527,1.0002096382736787,0.00020423348542473102
-0.2949088016285941,-0.2949088016285941,0.999969139973086,0.00020420868056016426
-0.29337073050434126,-0.29337073050434126,0.9997378451743641,0.00020412484821006032
-0.2918326572780643,-0.2918326572780643,0.999966952975478,0.00020409345088583824
-0.29014062175605204,-0.29014062175605204,1.0001864334576869,0.0002041749355219248
-0.2884091017616811,-0.2884091017616811,1.0000021489635784,0.00020418865942214252
-0.28679739326011033,-0.28679739326011033,0.9997964391325626,0.000204203898659282
-0.2852607371460977,-0.2852607371460977,1.0001325938026226,0.00020419809317270333
-0.28372268019822966,-0.28372268019822966,0.9999760469516771,0.00020418237785036286
-0.2821846000660685,-0.2821846000660685,0.999833201402252,0.00020411179723666106
-0.2805691523055998,-0.2805691523055998,1.0000787476977628,0.00020420376341885826
-0.278761007185642,-0.278761007185642,1.00033277914275,0.00020424427149451593
-0.2772258888692363,-0.2772258888692363,0.9998890072776611,0.0002042870819274246
-0.27568924624368946,-0.27568924624368946,1.0000322848224146,0.00020418015468951872
-0.27415120344644495,-0.27415120344644495,0.9993578986571237,0.00020410324395983673
-0.2726131163852529,-0.2726131163852529,0.9999889240251324,0.00020411920830259688
-0.27099768360734516,-0.27099768360734516,0.9999858668364257,0.00020412700788326115
-0.2691894861461037,-0.2691894861461037,1.0002583272514316,0.00020421909285183126
-0.26765438523573265,-0.26765438523573265,1.0001343615727851,0.0002042002002498967
-0.2661177561113391,-0.2661177561113391,1.0001261854424985,0.00020423596415324236
-0.26457972744185554,-0.26457972744185554,0.9999570652587295,0.00020419889286877512
-0.26304163341563935,-0.26304163341563935,0.9998746728380021,0.00020412497905573958
-0.26142621564597446,-0.26142621564597446,1.0000695694636055,0.00020414473138933805
-0.25961796579463225,-0.25961796579463225,0.9999182190471648,0.00020420140818730217
-0.25808288236213456,-0.25808288236213456,1.0003664294482975,0.00020424276501785553
-0.2569137395156531,-0.2569137395156531,0.9998918085427642,0.0002082393004190156
-0.25530786111588666,-0.25530786111588666,1.00025255918166,0.00020823703638022875
-0.25361586896470956,-0.25361586896470956,0.9997120047583048,0.00020820934769489956
-0.2519607500073334,-0.2519607500073334,0.9999598275507839,0.00020425840198509356
-0.2501959212664474,-0.2501959212664474,0.9999564847299764,0.00020838433956854482
-0.24862101666889203,-0.24862101666889203,0.9999468298846708,0.0002043357895274237
-0.24708300028884195,-0.24708300028884195,0.9998602297848048,0.00020419995659190228
-0.2455448804822254,-0.2455448804822254,1.000182709737841,0.00020417585481234275
-0.24392947673229629,-0.24392947673229629,1.0003948237244127,0.00020425308720834387
-0.24238923091892275,-0.24238923091892275,0.999864178883084,0.00020424286637243317
-0.24058606741142513,-0.24058606741142513,1.000024307036509,0.00020430129175942987
-0.23904946295583612,-0.23904946295583612,0.999777922351945,0.0002042273265863417
-0.23751146068805157,-0.23751146068805157,0.999920910962498,0.00020426042553282653
-0.2359733338059641,-0.2359733338059641,1.0001256265452942,0.0002042012717541291
-0.23435794517988598,-0.23435794517988598,1.0003347740952175,0.00020426539702987642
-0.23281771252881073,-0.23281771252881073,1.0002183674645548,0.0002042638407938227
-0.23099918634064806,-0.23099918634064806,0.9999389031630994,0.00020429218146364396
-0.22929538945153355,-0.22929538945153355,1.0002382521907704,0.00020430135252662434
-0.22754828531276416,-0.22754828531276416,0.9995770814530387,0.00020428076703579264
-0.22584964194649046,-0.22584964194649046,1.0000782086000484,0.00020426603187096308
-0.22426445353771668,-0.22426445353771668,1.000073975565293,0.000204286782546297
-0.22272631664584425,-0.22272631664584425,0.9998223076173105,0.00020414349916428177
-0.22118752210974435,-0.22118752210974435,1.000557874826511,0.0002042718244481084
-0.21934101521169397,-0.21934101521169397,1.000031031039586,0.0002042495900188609
-0.21776745607564862,-0.21776745607564862,0.9999733671940826,0.0002042985424808395
-0.21623088407023944,-0.21623088407023944,0.9998782517149095,0.0002042751574901737
-0.21469291558760234,-0.21469291558760234,0.999867240674661,0.00020429107759864065
-0.21315477152803625,-0.21315477152803625,1.0000536621451201,0.00020416213484730647
-0.2116159922515976,-0.2116159922515976,0.9999376550240129,0.00020419684680330344
-0.2097694985134126,-0.2097694985134126,1.0001241971750061,0.0002042418026076681
-0.2081958912438381,-0.2081958912438381,0.9999525641179702,0.0002043299743115843
-0.2066593327653095,-0.2066593327653095,1.0000037635946868,0.0002043385338047932
-0.20512137833849237,-0.20512137833849237,1.0002770428301635,0.00020427773623184195
-0.2035832270545143,-0.2035832270545143,0.9999022289293175,0.00020420212755244707
-0.20204446309955984,-0.20204446309955984,1.000169908498334,0.0002042409545826084
-0.20019798253395038,-0.20019798253395038,0.9998226063618023,0.00020425927993304526
-0.19862432711022393,-0.19862432711022393,0.9999560876799414,0.00020430427416823641
-0.1970877821894419,-0.1970877821894419,0.9997701798242448,0.00020428059037356366
-0.1955358229481817,-0.1955358229481817,1.0002441891375773,0.00020427858432224772
-0.1939724547305559,-0.1939724547305559,1.0002469653157529,0.00020425932721213633
-0.1923424073891283,-0.1923424073891283,1.0001110834522065,0.00020417922080916015
-0.1905586290648671,-0.1905586290648671,0.9999696026767337,0.00020427399452279548
-0.18894188260211423,-0.18894188260211423,0.999912729460178,0.0002042406659638301
-0.18736816934058426,-0.18736816934058426,0.9998198246987364,0.00020431452637299135
-0.18583164069365238,-0.18583164069365238,1.0004547350367883,0.00020437307531184245
-0.18429371712527426,-0.18429371712527426,0.9999127389634876,0.0002042679238116386
-0.1827555498113725,-0.1827555498113725,0.9998136241114924,0.00020416900732319202
-0.18098710148135524,-0.18098710148135524,0.9998897732586061,0.00020423950660105632
-0.17937036817845636,-0.17937036817845636,1.0000756310563126,0.0002042084811332275
-0.1777966067422426,-0.1777966067422426,1.0000059824404355,0.000204268462410761
-0.17626009166590392,-0.17626009166590392,1.0000326775778532,0.00020425057872843765
-0.17472218211989912,-0.17472218211989912,1.000084358143771,0.00020424598773489212
-0.17318400741742151,-0.17318400741742151,0.9997193590789347,0.00020409772440550586
-0.17141557461412732,-0.17141557461412732,1.0003362812132088,0.00020425348343989713
-0.16979885448637333,-0.16979885448637333,0.9997750262050621,0.00020426426453522815
-0.16822504484730416,-0.16822504484730416,1.0003408378994711,0.00020428622869173794
-0.1666885433466291,-0.1666885433466291,1.0001641070004363,0.00020431586614634806
-0.16515064780764988,-0.16515064780764988,0.9999678843397775,0.0002042516225079645
-0.16361246570629645,-0.16361246570629645,1.000032071083139,0.00020420602056102003
-0.1618440484606367,-0.1618440484606367,0.9994954423781459,0.00020423304714429032
-0.16022734150801626,-0.16022734150801626,0.9997613562549548,0.00020429250967730003
-0.1586534836481519,-0.1586534836481519,1.0002740362567226,0.00020429762230719236
-0.15711699576166893,-0.15711699576166893,0.9999061900878543,0.00020427636937279917
-0.15557911419625725,-0.15557911419625725,1.000288033196681,0.0002042605570204864
-0.15404092464211772,-0.15404092464211772,1.0003057191276707,0.00020418091676498623
-0.15227252303878913,-0.15227252303878913,0.9998444260136585,0.0002042281947043989
-0.1506558292484783,-0.1506558292484783,0.999648856893154,0.0002042338937783144
-0.1490819231677733,-0.1490819231677733,1.0000835984578258,0.00020425925991874038
-0.1475454488955279,-0.1475454488955279,1.0001042634455342,0.0002042764286502382
-0.14600758128057123,-0.14600758128057123,0.9999556560500305,0.0002042842176803312
-0.14446938424543987,-0.14446938424543987,0.9999186597947618,0.0002040666188952787
-0.14270099833070163,-0.14270099833070163,1.0000207557544103,0.00020420118313167315
-0.1410843177206516,-0.1410843177206516,1.000179174847574,0.00020425441193386442
-0.13951036340631617,-0.13951036340631617,1.000184954068025,0.00020426965698625908
-0.13797390274557983,-0.13797390274557983,1.0001939910260456,0.0002043057284170188
-0.13643604908635326,-0.13643604908635326,0.9996447406681332,0.0002042764537811912
-0.13489784451882086,-0.13489784451882086,1.000121277496217,0.00020411729426548776
-0.1331294743336798,-0.1331294743336798,0.9997900141206619,0.0002042445516598029
-0.13151280689882014,-0.13151280689882014,1.0000580861981052,0.00020427832808158348
-0.1299388043482054,-0.1299388043482054,1.0000519404418369,0.00020429836392395624
-0.1284023573325271,-0.1284023573325271,0.9996805242466774,0.00020429086115467712
-0.12686451759807368,-0.12686451759807368,1.0003834558360765,0.00020427480448825583
-0.1253263054416948,-0.1253263054416948,0.9998267100976996,0.00020409068935346662
-0.12355795107345102,-0.12355795107345102,1.0000922316097758,0.00020425079589158238
-0.12194129681120103,-0.12194129681120103,1.000230767409762,0.00020423488842462046
-0.12036724600120578,-0.12036724600120578,1.0002569411672284,0.0002042741658380875
-0.11883081264597876,-0.11883081264597876,0.9997556253326527,0.00020427124945129795
-0.11729298681577802,-0.11729298681577802,1.0001740555484664,0.00020423753263670608
-0.11575476703721961,-0.11575476703721961,0.9997822048263203,0.00020406207365591817
-0.11398642853206412,-0.11398642853206412,0.9999085652053697,0.00020427502567228322
-0.11236978744248063,-0.11236978744248063,0.9999790307842256,0.00020426227739403814
