time,time,flux,flux_err
-0.4988080657215808,-0.4988080657215808,0.9999606312373204,7.235091416475001e-05
-0.49686038771566626,-0.49686038771566626,1.0001203900113969,7.227380565842253e-05
-0.4949684592320409,-0.4949684592320409,0.9999755626376713,7.22693281481639e-05
-0.4934424746655471,-0.4934424746655471,0.9999007367338449,7.225752191823593e-05
-0.49197603452485056,-0.49197603452485056,0.9999201702432542,6.602770861996578e-05
-0.4905348518426763,-0.4905348518426763,0.9998869478843597,6.596860568459699e-05
-0.48912076291017004,-0.48912076291017004,0.9999636974821371,6.600405628235027e-05
-0.4879042645130539,-0.4879042645130539,0.999975415226831,6.614226813117692e-05
-0.486725686925638,-0.486725686925638,0.9999557865542386,6.610638282306484e-05
-0.48551654730399607,-0.48551654730399607,1.0000930037288687,6.609469573680128e-05
-0.4843793404405005,-0.4843793404405005,0.9998852007011523,6.60853215965253e-05
-0.48297103412769504,-0.48297103412769504,0.9999899627504354,6.610173419105144e-05
-0.4815235612681136,-0.4815235612681136,0.9999888367910696,6.610666539630135e-05
-0.4800764824991347,-0.4800764824991347,1.0000711234681077,6.608137040636269e-05
-0.4786567166578607,-0.4786567166578607,0.9999557852499195,6.606276721221427e-05
-0.4775047239178093,-0.4775047239178093,0.9999086130237851,6.603301589109918e-05
-0.4756979451107327,-0.4756979451107327,1.000006424124002,6.602952806917655e-05
-0.47231896592566047,-0.47231896592566047,0.9999178160325553,6.598662294129732e-05
-0.46930670083820586,-0.46930670083820586,1.0000848395476396,6.597844195162572e-05
-0.46744268954935253,-0.46744268954935253,1.0000775724311488,6.606646345473641e-05
-0.4655495348968543,-0.4655495348968543,0.9998732062304594,6.598170653002014e-05
-0.46394136945018544,-0.46394136945018544,0.9998968355876603,6.597424003000198e-05
-0.4625507393779117,-0.4625507393779117,0.9999703112726731,6.597721327316884e-05
-0.46131772225780876,-0.46131772225780876,0.9999405179350445,6.597318106859367e-05
-0.45994822727225254,-0.45994822727225254,1.000084586260425,6.602641827434938e-05
-0.45850409523409325,-0.45850409523409325,1.0000297946973211,6.597318013913003e-05
-0.4570959242366371,-0.4570959242366371,0.999964390934921,6.600375123541059e-05
-0.4558817204349907,-0.4558817204349907,0.9999856571183174,6.615444059627691e-05
-0.45469710547913567,-0.45469710547913567,0.9998694933516088,6.611538676379009e-05
-0.45361522045277525,-0.45361522045277525,0.9999880885924559,6.608603788019883e-05
-0.4526391372739454,-0.4526391372739454,0.9998411524520936,6.608305544227665e-05
-0.4512310194695601,-0.4512310194695601,1.0000573642258874,6.610214133364822e-05
-0.44977917758951663,-0.44977917758951663,1.0000070079554266,6.610733137937942e-05
-0.4483301993910572,-0.4483301993910572,1.0000053018049588,6.608615371141343e-05
-0.44687769229349217,-0.44687769229349217,1.0000584135618669,6.607115930861977e-05
-0.44574730382300914,-0.44574730382300914,1.0000366407234442,6.604949898789105e-05
-0.4441707794103422,-0.4441707794103422,0.99987781902391,6.60212230926082e-05
-0.4409125727179344,-0.4409125727179344,0.9999839543832675,6.600640107457477e-05
-0.43778601812227863,-0.43778601812227863,0.9999371054299804,6.59763889587365e-05
-0.4357060881127836,-0.4357060881127836,0.9999422726954169,6.608123543447059e-05
-0.4339863920453354,-0.4339863920453354,1.000070099836734,6.599495905377073e-05
-0.43216440618853086,-0.43216440618853086,0.99996399153372,6.597368584574471e-05
-0.43080201003031104,-0.43080201003031104,0.9999884996491517,6.597825854438688e-05
-0.42958360422489933,-0.42958360422489933,0.99996917316781,6.596659050231981e-05
-0.42816377335839206,-0.42816377335839206,1.0001019434500011,6.596218206863312e-05
-0.4267838833766291,-0.4267838833766291,0.9999162878236119,6.60185269786079e-05
-0.42533543171011845,-0.42533543171011845,0.9999572707699688,6.601868572412586e-05
-0.4240931330801686,-0.4240931330801686,0.9999728350537233,6.616573187738838e-05
-0.42281501130783,-0.42281501130783,0.9999996427322376,6.612496405680922e-05
-0.42184289529832314,-0.42184289529832314,1.0000800900878832,6.609787011205677e-05
-0.4208365952319582,-0.4208365952319582,0.9999532429723615,6.59782473502131e-05
-0.4194869426617515,-0.4194869426617515,1.0000280724124129,6.608754138861655e-05
-0.41803441224474225,-0.41803441224474225,1.0000374239082226,6.609983996900743e-05
-0.4166001473888173,-0.4166001473888173,0.9998739845930528,6.620496991498632e-05
-0.41498762932023964,-0.41498762932023964,1.000027251242177,6.606875079759638e-05
-0.41371352878340983,-0.41371352878340983,1.0000134735112,6.605821021480514e-05
-0.4121374031659798,-0.4121374031659798,0.999929654412289,6.60212709413437e-05
-0.4088746768786223,-0.4088746768786223,0.9999487737598803,6.60182375241883e-05
-0.4057440897449851,-0.4057440897449851,1.0000430862877079,6.599166110517412e-05
-0.40366833091393345,-0.40366833091393345,1.000003460081304,6.609466314400501e-05
-0.402008841811039,-0.402008841811039,1.0001052406075406,6.605079533402777e-05
-0.4005808820889797,-0.4005808820889797,0.999997346079118,6.598704637969744e-05
-0.3990337146955426,-0.3990337146955426,0.9999970161809146,6.597937402456917e-05
-0.39772480237152197,-0.39772480237152197,0.9998972881064849,6.596302557941187e-05
-0.39655709015496543,-0.39655709015496543,1.0000112629367273,6.597433023138815e-05
-0.39534651297872186,-0.39534651297872186,0.9999955669470324,6.602810172589682e-05
-0.3938965347071644,-0.3938965347071644,1.0000198859960694,6.601036518551995e-05
-0.3924489725191961,-0.3924489725191961,0.9999645675173363,6.59952968467343e-05
-0.39104803124646426,-0.39104803124646426,0.9999600133208515,6.613507838659937e-05
-0.39004294965270675,-0.39004294965270675,0.9999817600935395,6.598109347815046e-05
-0.3890467500401428,-0.3890467500401428,0.9999704605226123,6.60925894552864e-05
-0.3877613632488647,-0.3877613632488647,0.9999613151302874,6.60859064051599e-05
-0.38630795218196,-0.38630795218196,1.000047699726632,6.609759641206261e-05
-0.38485729315580103,-0.38485729315580103,1.0000178978555498,6.610607506483932e-05
-0.3834096193240839,-0.3834096193240839,0.9999509508120242,6.60937978398968e-05
-0.3820765394484624,-0.3820765394484624,0.9999945593804803,6.608443971793738e-05
-0.38091450884530786,-0.38091450884530786,0.9999453862040462,6.604807667629871e-05
-0.3797400454117451,-0.3797400454117451,0.999941322258471,6.602756707093811e-05
-0.3773572029545903,-0.3773572029545903,0.9999562356201821,6.600537299438919e-05
-0.37370223874168007,-0.37370223874168007,1.00002401912029,6.59782857253474e-05
-0.37163064432679677,-0.37163064432679677,0.9999973017776007,6.611773545305384e-05
-0.3699775809960556,-0.3699775809960556,0.9999217479129013,6.604559087423751e-05
-0.36854331701615595,-0.36854331701615595,1.0000616392543686,6.598436860125687e-05
-0.36700018267147244,-0.36700018267147244,1.0000338350069842,6.597193276332664e-05
-0.3656886569369817,-0.3656886569369817,1.000087906380162,6.597315028965622e-05
-0.36452255388867344,-0.36452255388867344,0.9999099575734902,6.596615290090527e-05
-0.3632169881064328,-0.3632169881064328,1.0001153681248969,6.596425480772026e-05
-0.3615860511068604,-0.3615860511068604,0.9999279434935741,6.601711552297836e-05
-0.36013884461135603,-0.36013884461135603,1.0000259747739413,6.600124178736279e-05
-0.3587630165406154,-0.3587630165406154,1.0000269999645026,6.614203530631579e-05
-0.3575905615638476,-0.3575905615638476,0.9999914461778561,6.609845497314968e-05
-0.3565443573752418,-0.3565443573752418,1.0000612569737661,6.608688850144286e-05
-0.35516029506979974,-0.35516029506979974,1.0000420333110291,6.609429980523077e-05
-0.353707144150394,-0.353707144150394,1.0000227666107602,6.611278044488543e-05
-0.3522567520238226,-0.3522567520238226,0.9999840175214372,6.608983180845592e-05
-0.3508093414551695,-0.3508093414551695,0.999982980213655,6.60701646491208e-05
-0.34964626066648635,-0.34964626066648635,0.9999648116185569,6.605863276541215e-05
-0.34848897850170035,-0.34848897850170035,1.0001067473839593,6.598114715101916e-05
-0.34700264531711583,-0.34700264531711583,1.0000765955994606,6.605759040774077e-05
-0.3442593633342767,-0.3442593633342767,0.9998134336429114,6.599244110150515e-05
-0.3408685690330458,-0.3408685690330458,1.0000129953698333,6.598030479876308e-05
-0.3388309761940036,-0.3388309761940036,0.9999554914054526,6.620153269099231e-05
-0.33739369000686564,-0.33739369000686564,1.0001174467938045,6.598543204188165e-05
-0.3358079792087665,-0.3358079792087665,1.0000388768699655,6.598283645551598e-05
-0.3344152882054914,-0.3344152882054914,0.9999608905402944,6.597210149726752e-05
-0.3332533325970871,-0.3332533325970871,0.9999443044478233,6.59834672976712e-05
-0.33207626508374233,-0.33207626508374233,1.0000394047199936,6.59694193702914e-05
-0.33075880913092987,-0.33075880913092987,0.999979963130903,6.59810041341435e-05
-0.3292618005143595,-0.3292618005143595,0.9998515375310919,6.600911944947471e-05
-0.3278146137614385,-0.3278146137614385,1.0000241600914324,6.60094782529785e-05
-0.3266633209845168,-0.3266633209845168,0.9999289129495208,6.76392866528844e-05
-0.3255630243307678,-0.3255630243307678,1.0000173928682519,6.61020938526924e-05
-0.32451296883955366,-0.32451296883955366,0.999903865375266,6.608121724632414e-05
-0.3231597870326368,-0.3231597870326368,0.9999298265909463,6.599075465591367e-05
-0.3219627209880855,-0.3219627209880855,1.0000294577014153,6.60986456819302e-05
-0.32051841842767315,-0.32051841842767315,0.9999163068458934,6.621743159167224e-05
-0.3190812571629067,-0.3190812571629067,0.9999368435043985,6.607645672252115e-05
-0.3178666618987336,-0.3178666618987336,0.9998753426249986,6.598560159060035e-05
-0.3166007617488503,-0.3166007617488503,0.9998931212161091,6.605874333726701e-05
-0.3153824518100009,-0.3153824518100009,0.9999407768075141,6.603147791215538e-05
-0.3128657718145405,-0.3128657718145405,0.999934503795832,6.602483823961108e-05
-0.30937437161046544,-0.30937437161046544,0.99995336361438,6.598336013123944e-05
-0.3069568049002555,-0.3069568049002555,1.0000107011658463,6.605885348180781e-05
-0.30508963690808744,-0.30508963690808744,1.0000921399174583,6.599110535239098e-05
-0.30340314276545544,-0.30340314276545544,0.9999902444526743,6.597952736339479e-05
-0.30184795426321215,-0.30184795426321215,0.9999549491399154,6.597694990149796e-05
-0.30072019582003123,-0.30072019582003123,0.9999227080392655,6.596917268970867e-05
-0.2994815982747241,-0.2994815982747241,1.0000716716910016,6.597575827881787e-05
-0.2981046834669542,-0.2981046834669542,1.000029378103005,6.602434650758492e-05
-0.296668573601346,-0.296668573601346,1.000049143064498,6.600571160087773e-05
-0.29523347329959504,-0.29523347329959504,0.999971505503356,6.61279302661595e-05
-0.2940813395398436,-0.2940813395398436,1.0000481935146674,6.59885509853816e-05
-0.2929551739434828,-0.2929551739434828,1.0001210785756836,6.610933328156612e-05
-0.2916913585388102,-0.2916913585388102,0.9999420204634873,6.608615862645318e-05
-0.29050364392605843,-0.29050364392605843,0.9999628305024973,6.608947212696075e-05
-0.2890874704142334,-0.2890874704142334,0.9999727244731815,6.610353908704725e-05
-0.2876379755558446,-0.2876379755558446,1.0000407463460088,6.610362575901244e-05
-0.28619157752837054,-0.28619157752837054,1.0000378922849014,6.607875743086609e-05
-0.284816124792269,-0.284816124792269,0.9999542312268371,6.60690445846296e-05
-0.28363668015808796,-0.28363668015808796,1.0000487670029554,6.603713149020566e-05
-0.28157689444487916,-0.28157689444487916,0.9999503227433589,6.603066626337058e-05
-0.27790285499359013,-0.27790285499359013,1.0000337989129182,6.59849158287546e-05
-0.2753995513485279,-0.2753995513485279,1.000014125371178,6.597177046592384e-05
-0.27336497787910047,-0.27336497787910047,1.0001418975007246,6.607317477020776e-05
-0.2716653111943742,-0.2716653111943742,0.9998658497702854,6.596904819221243e-05
-0.2700760658379295,-0.2700760658379295,0.9999281279325825,6.597296487710448e-05
-0.26868602147878845,-0.26868602147878845,0.9999516232293398,6.597165529173305e-05
-0.2674524783506058,-0.2674524783506058,1.000075458065551,6.598357015290951e-05
-0.2660759410500759,-0.2660759410500759,1.0000915214265715,6.602585921608236e-05
-0.26464409737382083,-0.26464409737382083,1.0001349049844364,6.600563292868127e-05
-0.2632047391845845,-0.2632047391845845,0.99999907203588,6.613248751208777e-05
-0.26205606366711437,-0.26205606366711437,1.0000161268137708,6.599695039334285e-05
-0.2609248342982028,-0.2609248342982028,0.9999996910387189,6.611177933066468e-05
-0.2598092030675616,-0.2598092030675616,1.000149569105075,6.609062379048884e-05
-0.2587538210602361,-0.2587538210602361,1.0000583236616272,6.608993388553516e-05
-0.257350656928611,-0.257350656928611,0.9999068783994888,6.610058897469365e-05
-0.25590405692346396,-0.25590405692346396,0.9999919466159751,6.610441045577096e-05
-0.25445656846568454,-0.25445656846568454,0.999929944904091,6.608233278971012e-05
-0.2530324040169944,-0.2530324040169944,1.00004975552058,6.606807511890165e-05
-0.25187756732048,-0.25187756732048,0.9999623421996627,6.60440113372608e-05
-0.2500713046611054,-0.2500713046611054,0.9999787619622882,6.603726997091045e-05
-0.24668654098495607,-0.24668654098495607,1.0000696786007992,6.599278822767377e-05
-0.24367288583162008,-0.24367288583162008,0.9998440645685369,6.597081837470808e-05
-0.2418135312240338,-0.2418135312240338,0.9999922862296173,6.60780470647103e-05
-0.2399182497043512,-0.2399182497043512,1.0000181144855365,6.598803810508489e-05
-0.2383145856903866,-0.2383145856903866,1.0000503908545866,6.597414957007597e-05
-0.23692353968508542,-0.23692353968508542,0.9999992808743462,6.596998505979037e-05
-0.23569454886310268,-0.23569454886310268,0.9999802687359803,6.597047719026299e-05
-0.23432602696411778,-0.23432602696411778,0.9999184723827843,6.601927819724289e-05
-0.23288455768197308,-0.23288455768197308,0.9998950860046352,6.60025545611684e-05
-0.2314710855804151,-0.2314710855804151,1.000008141451579,6.597730602931327e-05
-0.23026372037566034,-0.23026372037566034,1.0001013375210868,6.616921569934796e-05
-0.2290742836194113,-0.2290742836194113,0.9999186738122059,6.612767645250248e-05
-0.22798901253408985,-0.22798901253408985,0.999956044080902,6.609003079414878e-05
-0.22701377159246477,-0.22701377159246477,0.9999211951526247,6.60795867521948e-05
-0.22561209773411975,-0.22561209773411975,0.9999691273095028,6.609967621093395e-05
-0.22415990276058437,-0.22415990276058437,0.9999580694124225,6.610492762047727e-05
-0.22271054550656116,-0.22271054550656116,1.0000069093156516,6.608804220774844e-05
-0.2210785802511964,-0.2210785802511964,0.9999237857075209,6.606819939745226e-05
-0.21984370765276254,-0.21984370765276254,1.0000114742057156,6.6053793148264e-05
-0.21803809197735974,-0.21803809197735974,1.0000321149572857,6.60429652392122e-05
-0.21464607845409772,-0.21464607845409772,0.9999746471734999,6.599254504549993e-05
-0.21163068899768406,-0.21163068899768406,1.0000782666741264,6.598179418520266e-05
-0.20977713810862042,-0.20977713810862042,0.9999363474818488,6.608939272757715e-05
-0.2081467591196997,-0.2081467591196997,0.9999327230609474,6.604130926574658e-05
-0.20653784102469216,-0.20653784102469216,1.0000432316040044,6.597587630318406e-05
-0.20516983017441817,-0.20516983017441817,0.9999492307435084,6.598090986899277e-05
-0.20396054921729956,-0.20396054921729956,1.0000257948064541,6.597218287136945e-05
-0.20275836853397777,-0.20275836853397777,0.999954982737645,6.597183030034728e-05
-0.2014646139650722,-0.2014646139650722,1.0000089705221875,6.602338428524889e-05
-0.20001542911777506,-0.20001542911777506,0.9999158983250334,6.601241022933881e-05
-0.1986338809292647,-0.1986338809292647,1.000096602165962,6.61882385552521e-05
-0.19745348344877128,-0.19745348344877128,0.9999972752756158,6.613209597687502e-05
-0.1964496911590686,-0.1964496911590686,1.000091056624536,6.597705398799622e-05
-0.19545288349618203,-0.19545288349618203,1.000004135014376,6.609473911127539e-05
-0.19416605214355515,-0.19416605214355515,0.9999389059035428,6.608260049051736e-05
-0.1927127241564449,-0.1927127241564449,1.0000273444633883,6.610036645258359e-05
-0.19126215963624418,-0.19126215963624418,1.000066717267048,6.610251048620925e-05
-0.18967668643308572,-0.18967668643308572,0.999919130433035,6.618108183362813e-05
-0.18833405517507346,-0.18833405517507346,0.9999214238119197,6.599155786684134e-05
-0.18683703210990643,-0.18683703210990643,0.9999412338419511,6.609190121391865e-05
-0.18511877164419274,-0.18511877164419274,1.0000596846357328,6.599996668577487e-05
-0.18125727864244254,-0.18125727864244254,0.9999907653676379,6.597892236397869e-05
-0.17881263751914958,-0.17881263751914958,0.9999798523615198,6.610030721664772e-05
-0.1769462351774564,-0.1769462351774564,1.0000297892097294,6.605057154038157e-05
-0.17555509488738608,-0.17555509488738608,0.9999970399717377,6.597985598971177e-05
-0.17397562708647457,-0.17397562708647457,0.9999627339812275,6.597909354477409e-05
-0.17258402134175413,-0.17258402134175413,0.9999887140497595,6.597224968350451e-05
-0.1714413300229353,-0.1714413300229353,0.9999198764077584,6.59707233982711e-05
-0.1702166983159259,-0.1702166983159259,0.9999865145655645,6.596743352365072e-05
-0.16856813976773993,-0.16856813976773993,0.9999461826145877,6.600985268380972e-05
-0.1671226552745793,-0.1671226552745793,1.0000684648363152,6.600474458848397e-05
-0.16569690830510808,-0.16569690830510808,0.9999457474627139,6.612600314951806e-05
-0.16453719498385908,-0.16453719498385908,0.9999966603539081,6.599194815659366e-05
-0.16342224579711911,-0.16342224579711911,1.0000971527149787,6.60949973955165e-05
-0.16214263779693283,-0.16214263779693283,1.0000122619459086,6.608543864655445e-05
-0.16068888557347236,-0.16068888557347236,1.0001153048337366,6.609996075271116e-05
-0.15923786151397507,-0.15923786151397507,1.0000310156496606,6.610135544089357e-05
-0.15778978837042815,-0.15778978837042815,0.9998852935024626,6.608689613821054e-05
-0.15645306696533226,-0.15645306696533226,0.9999325050861078,6.608056041311915e-05
-0.155435444212344,-0.155435444212344,1.0000403437627208,6.604989864005102e-05
-0.15438656703481685,-0.15438656703481685,1.0000234776177073,6.602495189240781e-05
-0.15257823150313926,-0.15257823150313926,1.0001146822132094,6.60251929546556e-05
-0.1492165123549057,-0.1492165123549057,1.0001015717679125,6.599252370304332e-05
-0.1462782610062277,-0.1462782610062277,1.0000699733737672,6.613162131387559e-05
-0.14463499348203185,-0.14463499348203185,0.9999625313052188,6.605819958729784e-05
-0.14321515329065732,-0.14321515329065732,1.0000618204800573,6.59905891655387e-05
-0.14167486290680245,-0.14167486290680245,1.000024564290328,6.596975919966535e-05
-0.14028329817519988,-0.14028329817519988,1.0000189811824876,6.596677488427407e-05
-0.1391590862767771,-0.1391590862767771,1.0000211867177304,6.596846602087374e-05
-0.13790599749045213,-0.13790599749045213,1.0000365548059755,6.59723638406553e-05
-0.1362527379547828,-0.1362527379547828,0.9999893527538918,6.601285950948986e-05
-0.13480445919994963,-0.13480445919994963,1.0000627464003577,6.600587867921183e-05
-0.13339906375622376,-0.13339906375622376,1.000032600581163,6.614296562063477e-05
-0.1324959831137676,-0.1324959831137676,0.999908361975032,6.597238006072074e-05
-0.13139170260838,-0.13139170260838,0.9998793141478721,6.609122623476961e-05
-0.13011929094063818,-0.13011929094063818,1.0001089140369095,6.609030273280493e-05
-0.12866511968459235,-0.12866511968459235,1.0000285195281209,6.609470669107311e-05
-0.1272136402374599,-0.1272136402374599,1.0000387534148172,6.610364611298549e-05
-0.12576507328485603,-0.12576507328485603,0.9999922933269947,6.60971600509217e-05
-0.12442380477295956,-0.12442380477295956,0.9999589953608317,6.608360437523994e-05
-0.12325537746801274,-0.12325537746801274,0.9999056525266579,6.606112915504873e-05
-0.1220779215786024,-0.1220779215786024,0.9999302771329249,6.603766902537448e-05
-0.120016674172075,-0.120016674172075,1.0001459397838977,6.60317423389747e-05
-0.11635184837068664,-0.11635184837068664,1.0000104917808594,6.599091740796068e-05
