time,time,flux,flux_err
-0.49935604752378043,-0.49935604752378043,1.0000612008557581,0.00021015467676807994
-0.4980875345681544,-0.4980875345681544,1.0000435723561842,0.00021023861216864877
-0.4968190216579013,-0.4968190216579013,1.0001735124456277,0.00021045598155406423
-0.4955335955101745,-0.4955335955101745,0.9998499847000772,0.0002106053066444833
-0.49433183142220116,-0.49433183142220116,0.9999990211069554,0.0001919443505419859
-0.49330191891883146,-0.49330191891883146,0.9997876856477015,0.00019295894511008174
-0.4922176488527725,-0.4922176488527725,1.0004029240860082,0.00019219485279512946
-0.4911877257022951,-0.4911877257022951,1.0001295012137512,0.0001931047297190032
-0.4901034664205781,-0.4901034664205781,0.9999608209891278,0.00019236389700511204
-0.48907353261958236,-0.48907353261958236,0.9999945541734616,0.00019326491878924159
-0.4879892841221931,-0.4879892841221931,1.000247652487717,0.00019260486528562096
-0.48695933966274935,-0.48695933966274935,0.9998159265612341,0.00019338175920952935
-0.48587510195536654,-0.48587510195536654,1.0001309048193467,0.00019281277986310817
-0.4848451468340869,-0.4848451468340869,0.9997276554151417,0.00019349852081558652
-0.4837609199280507,-0.4837609199280507,1.0000534854487602,0.0001929170860448469
-0.48273095413810835,-0.48273095413810835,1.0000881298226463,0.0001936129890520316
-0.4816467380322905,-0.4816467380322905,1.0000266379531415,0.000193031427650327
-0.480616761571423,-0.480616761571423,0.999944261423169,0.00019369097590476696
-0.4795325562771552,-0.4795325562771552,1.0001222765258382,0.00019314677927453696
-0.4785025691283494,-0.4785025691283494,0.9998464997357075,0.00019374967056049142
-0.47741837465584636,-0.47741837465584636,1.0000354905422486,0.00019329161671980042
-0.47638837682704605,-0.47638837682704605,1.000048487979761,0.00019377846833273539
-0.4753041931706264,-0.4753041931706264,1.000087210847844,0.00019342177076017063
-0.47427418465503307,-0.47427418465503307,0.9998384273628949,0.00019384487486204875
-0.47319001182492004,-0.47319001182492004,1.0000187443802395,0.00019345960760708402
-0.47215999261572106,-0.47215999261572106,1.000131120583507,0.00019400513507450561
-0.4710758306152968,-0.4710758306152968,0.9999917945583678,0.00019347336351768576
-0.4700458007045455,-0.4700458007045455,0.9997270543554848,0.0001940271548735976
-0.4689616495428993,-0.4689616495428993,1.000036325674181,0.00019362599507928606
-0.4679316089317382,-0.4679316089317382,1.0001082984258007,0.00019403743420306585
-0.4668474686088587,-0.4668474686088587,1.0003089116343324,0.00019370639494960292
-0.4658174172882184,-0.4658174172882184,1.0000946656240488,0.00019403194946944594
-0.464733287814326,-0.464733287814326,0.9999383254533246,0.00019378877221925837
-0.46370322577967044,-0.46370322577967044,0.9999755618525967,0.00019417472690184853
-0.46261910716041543,-0.46261910716041543,0.9999606248182493,0.00019384082462457433
-0.4615890344083482,-0.4615890344083482,1.0001602432697516,0.00019424998783985323
-0.4605049266426107,-0.4605049266426107,0.9999373285686046,0.00019386839308788904
-0.45947484316856446,-0.45947484316856446,0.9996077674567643,0.00019416875089531922
-0.458390746267699,-0.458390746267699,1.000076791204792,0.0001939198716077842
-0.4573606520648951,-0.4573606520648951,0.999972679875097,0.00019421584314175772
-0.45627656603113564,-0.45627656603113564,1.0002584126079461,0.00019403333808224328
-0.4552126336958082,-0.4552126336958082,0.9997971555511823,0.0001943358723852349
-0.45412855853712697,-0.45412855853712697,1.0001961325357447,0.000194031349983133
-0.45308152916470873,-0.45308152916470873,1.0000656685617986,0.0001943838623713287
-0.45201437857729443,-0.45201437857729443,0.9999334243572715,0.00019406134537549067
-0.4509673384681719,-0.4509673384681719,1.000283895636859,0.00019436537347768617
-0.4499001987626315,-0.4499001987626315,0.9999049702269989,0.00019416540006597603
-0.4488531479134082,-0.4488531479134082,0.9999793661730868,0.0001943472244619712
-0.4477860190920097,-0.4477860190920097,0.999933620024894,0.0001942202081540812
-0.4467389574868008,-0.4467389574868008,1.0000266653124115,0.00019441894425405556
-0.44567183955749384,-0.44567183955749384,1.0001104356648642,0.0001942778990871146
-0.44462476720536015,-0.44462476720536015,0.9998026398759124,0.00019442447997925367
-0.44345435001806377,-0.44345435001806377,0.9999616298410862,0.00019446458972453514
-0.4421892186079447,-0.4421892186079447,1.0001640591127146,0.0001945296353469276
-0.4411728644258318,-0.4411728644258318,0.9998953329348748,0.0001943541586758119
-0.44007502862023673,-0.44007502862023673,0.9998969176720838,0.0001945143960288441
-0.4390586853381393,-0.4390586853381393,0.9999379836678743,0.0001944054766366002
-0.4379608387663637,-0.4379608387663637,1.0000781660006706,0.0001945955477695433
-0.43694450638994625,-0.43694450638994625,1.0002202960699187,0.00019442565821690911
-0.43584664905197884,-0.43584664905197884,0.9997963451825669,0.00019456433110324328
-0.43483032758692275,-0.43483032758692275,0.9999745215859169,0.00019444164921625013
-0.4337324594793728,-0.4337324594793728,0.9998769529945235,0.0001946147400097798
-0.4327161489233958,-0.4327161489233958,1.0003268145099704,0.00019446219247836399
-0.4316182700417187,-0.4316182700417187,1.0000924289054922,0.00019458533854860253
-0.43060197040503567,-0.43060197040503567,0.9999406969086431,0.00019450225974859686
-0.4295040807446924,-0.4295040807446924,0.9999332100042981,0.00019456184465176628
-0.4284877920318394,-0.4284877920318394,1.0001429489476006,0.00019449158499598474
-0.42738989158489177,-0.42738989158489177,1.000104221669737,0.00019456111404315667
-0.4263736138004077,-0.4263736138004077,0.9997704244512594,0.00019446759970288648
-0.42527570256572744,-0.42527570256572744,1.0001717620540964,0.00019461550786561876
-0.42425943571301444,-0.42425943571301444,0.999807479132483,0.00019448712976090943
-0.42316151368832494,-0.42316151368832494,0.9999546799195962,0.00019462295865657029
-0.4221452577707964,-0.4221452577707964,0.9999527151012997,0.00019450557708369597
-0.4210473249470198,-0.4210473249470198,1.0001884679534299,0.00019469033283770363
-0.41982668526252953,-0.41982668526252953,0.9998742260790696,0.00019443246893880483
-0.4186625217864474,-0.4186625217864474,1.000032967809783,0.00019464819795523446
-0.4175955488905004,-0.4175955488905004,0.999981872382105,0.00019456432416962603
-0.4165483333434139,-0.4165483333434139,0.9999291535848267,0.0001946353442848088
-0.41548137140531766,-0.41548137140531766,1.0002128250779256,0.00019460912839810586
-0.4144341450432819,-0.4144341450432819,0.9999736947348901,0.0001946446164088587
-0.41336719406417044,-0.41336719406417044,1.0000515927703986,0.00019460169783662727
-0.4123199568871826,-0.4123199568871826,0.9998343937167107,0.00019468370503073358
-0.4112530168659134,-0.4112530168659134,1.000421927425998,0.00019464784644914344
-0.4102057688705713,-0.4102057688705713,0.9997824032317194,0.00019468440835432242
-0.40913883981623655,-0.40913883981623655,0.9998619825391735,0.00019462004274335102
-0.4080915809979956,-0.4080915809979956,1.000114774808874,0.00019472505091323554
-0.40702466291740225,-0.40702466291740225,1.0000647154284001,0.00019463854130526368
-0.4059773932569811,-0.4059773932569811,1.0000683697141626,0.0001947259987616948
-0.404910486152383,-0.404910486152383,0.9999558878345152,0.00019458613387150916
-0.40386320566567235,-0.40386320566567235,0.9999541903289405,0.0001946626878627248
-0.4027963095427509,-0.4027963095427509,0.999877060744766,0.0001945472241215934
-0.40174901821612535,-0.40174901821612535,1.000113893783406,0.00019464795455155083
-0.40068213307260125,-0.40068213307260125,1.000246464341141,0.00019464927598489485
-0.3996348309083402,-0.3996348309083402,0.9997630634928086,0.00019470686439870298
-0.3985679567544366,-0.3985679567544366,1.000065475797476,0.00019462015389676147
-0.39752064373779206,-0.39752064373779206,1.0000962817234582,0.0001947176658972199
-0.39645378058370395,-0.39645378058370395,1.0000126947398376,0.00019462862734902922
-0.395406456719212,-0.395406456719212,1.0000472230453927,0.00019470151372412558
-0.3943396045592607,-0.3943396045592607,0.9998271513854304,0.00019463444643871982
-0.3932922698389916,-0.3932922698389916,1.0000101432065902,0.00019468010497979414
-0.39222542868226923,-0.39222542868226923,1.0001066533046237,0.00019463451684842203
-0.3911780831039408,-0.3911780831039408,0.9999264754195314,0.00019468464677758077
-0.39011125295383237,-0.39011125295383237,0.9999039991012999,0.00019458939698589712
-0.389063896511783,-0.389063896511783,0.9999399467843822,0.0001946716790784732
-0.38799707736943956,-0.38799707736943956,1.0000559742205044,0.0001946348821129968
-0.38694971006366075,-0.38694971006366075,1.0001970144396441,0.00019470714501850176
-0.3858829019460813,-0.3858829019460813,0.9998180454124146,0.00019465426762461276
-0.38483552375731167,-0.38483552375731167,1.0000413090198026,0.00019471803553506645
-0.3837687266576978,-0.3837687266576978,1.0000404794190962,0.00019464509941642666
-0.3827213375961179,-0.3827213375961179,1.0001382365507117,0.00019467707022597101
-0.38165455152467587,-0.38165455152467587,0.9998179142570184,0.0001947249101217266
-0.3806071515823618,-0.3806071515823618,1.0001083432066473,0.00019470874155381643
-0.3795403765368263,-0.3795403765368263,0.9999766503909335,0.00019466419919252423
-0.3784929657092448,-0.3784929657092448,0.9998335550251445,0.00019469121340975155
-0.3774262016998165,-0.3774262016998165,1.0001746295509264,0.00019463701429299403
-0.3763787799812889,-0.3763787799812889,0.9999673189603225,0.00019467492444290811
-0.37531202701589733,-0.37531202701589733,1.000088109017407,0.00019458469401124895
-0.3742645944007677,-0.3742645944007677,0.999846501180007,0.00019461673913408837
-0.3731978524805612,-0.3731978524805612,1.000207670791211,0.00019465194191061824
-0.3721504089631509,-0.3721504089631509,1.000053689402931,0.0001947541629339327
-0.37108367809153436,-0.37108367809153436,0.9999229932785896,0.0001946671440743129
-0.3700362236729632,-0.3700362236729632,0.9998886687218818,0.00019469057162391175
-0.368969503853333,-0.368969503853333,1.00001536840681,0.000194745227135855
-0.36792203853134425,-0.36792203853134425,1.0001457198052013,0.00019475225100491073
-0.3668553297716386,-0.3668553297716386,0.999856628987979,0.00019467408312256857
-0.36580785353149564,-0.36580785353149564,0.9998631858936318,0.00019473167769932338
-0.3647411558407839,-0.3647411558407839,1.0003422775737434,0.00019464721325727712
-0.36369366867680525,-0.36369366867680525,0.9999960443479289,0.0001947219368407446
-0.3626269820562271,-0.3626269820562271,0.9999018645667654,0.00019467105569307718
-0.36157948397408857,-0.36157948397408857,0.9999757994836296,0.00019467166437320288
-0.36051280842706035,-0.36051280842706035,0.999824289905481,0.00019465015310035354
-0.3594652994154188,-0.3594652994154188,1.0002344688324165,0.00019471355547735308
-0.35839863494872193,-0.35839863494872193,0.9998572568487338,0.00019461176494534825
-0.35735111500303274,-0.35735111500303274,0.9999306196378408,0.0001947095954314131
-0.35628446162007776,-0.35628446162007776,1.0003170441670506,0.00019468580100338664
-0.35523693074035806,-0.35523693074035806,0.9998423888060884,0.00019471948821103076
-0.3541702884490917,-0.3541702884490917,0.9998828980117122,0.00019470454939075248
-0.3531227466217217,-0.3531227466217217,0.9999283088177947,0.00019468847532982746
-0.3520561154300651,-0.3520561154300651,1.0000459410832274,0.00019469698618412395
-0.3510085626527825,-0.3510085626527825,0.9999927943282165,0.00019473764644387939
-0.34994194255960454,-0.34994194255960454,0.9997823259848548,0.00019469219148445573
-0.3488943788346887,-0.3488943788346887,1.0000743866670865,0.00019470928091776962
-0.34782776984793884,-0.34782776984793884,1.0000585886617201,0.0001947111816993881
-0.3467801951628758,-0.3467801951628758,1.0001609061200085,0.00019469057705354839
-0.3457135972871043,-0.3457135972871043,0.999866395716286,0.00019463150898333385
-0.34466601163738064,-0.34466601163738064,0.9997691059773193,0.00019465921698331355
-0.34359942488050876,-0.34359942488050876,1.0003066030483514,0.00019467408294635564
-0.34255182826612723,-0.34255182826612723,1.0000315931797945,0.00019468419498269384
-0.34148525263721863,-0.34148525263721863,0.9998948186098936,0.0001946504363990669
-0.3404376450366243,-0.3404376450366243,1.000070133374749,0.00019471322551514817
-0.33937108053456766,-0.33937108053456766,0.9999310588542212,0.00019463892882093373
-0.3383234619613745,-0.3383234619613745,0.9999988120922959,0.00019472795273334866
-0.33725690859295127,-0.33725690859295127,0.9999268526506983,0.00019465499343494867
-0.3362092790369616,-0.3362092790369616,1.0000563362000885,0.00019467207467660296
-0.33514273680558515,-0.33514273680558515,0.9996569203577866,0.0001946228686542331
-0.33409509625998624,-0.33409509625998624,1.0005718677794058,0.0001947255766821621
-0.33302856517472035,-0.33302856517472035,0.9996788543865911,0.0001946351749948384
-0.3319809136338421,-0.3319809136338421,0.999972481948741,0.0001946520746700733
-0.33091439370604975,-0.33091439370604975,1.0001864047083064,0.000194712727299055
-0.3298667311585376,-0.3298667311585376,1.0000186924920091,0.00019469967366047197
-0.3288002223870592,-0.3288002223870592,1.0000413279327471,0.00019473350934326239
-0.3277525488329388,-0.3277525488329388,0.999788111113592,0.00019469328438676085
-0.32668605122459554,-0.32668605122459554,1.0003074190955825,0.00019467963355288874
-0.3256383666604421,-0.3256383666604421,0.9997410978032196,0.00019464787331785607
-0.3245718802209012,-0.3245718802209012,1.0002332208763816,0.00019470686585978378
-0.3235241846376454,-0.3235241846376454,0.9998973614301556,0.0001946881225226977
-0.322457709377116,-0.322457709377116,1.0000474773367616,0.00019465479797405033
-0.3214100027679649,-0.3214100027679649,0.99966297428679,0.0001946219212922659
-0.32034353868642995,-0.32034353868642995,0.9999794634468712,0.00019460815782874785
-0.31929582105138365,-0.31929582105138365,1.0002545065551671,0.00019465746810228384
-0.3182293681624799,-0.3182293681624799,0.9999085528381968,0.00019464108772065993
-0.3171816394856421,-0.3171816394856421,0.9998787141619301,0.0001946818295595751
-0.31611519779048647,-0.31611519779048647,1.0004043397971398,0.00019464412011301212
-0.315067458075265,-0.315067458075265,0.9996825214265421,0.00019467216978576838
-0.31400102757954185,-0.31400102757954185,0.9998711359421023,0.00019468533100919412
-0.31295327681233687,-0.31295327681233687,1.0001433364587082,0.0001947206807769003
-0.3118868575285063,-0.3118868575285063,1.0001224919071527,0.00019467319419203504
-0.3108390957047874,-0.3108390957047874,0.9999657019909419,0.00019470716030880553
-0.3097726876373684,-0.3097726876373684,0.999916936793437,0.00019471594300718656
-0.30872491475373354,-0.30872491475373354,0.9997513659710702,0.00019468336717789867
-0.3076585179072964,-0.3076585179072964,1.0003014708370672,0.00019469114859371482
-0.30661073395578453,-0.30661073395578453,0.9999980454095588,0.00019466923074795993
-0.305544348340527,-0.305544348340527,0.9999316215865697,0.00019460642252901116
-0.3044965533109405,-0.3044965533109405,1.0000876925683992,0.0001946412063632197
-0.30343017892913904,-0.30343017892913904,1.0000969444231795,0.00019463181116478206
-0.30238237282261765,-0.30238237282261765,0.9997588746883252,0.00019464695939700743
-0.30131600968219346,-0.30131600968219346,0.9999725572148549,0.00019462406078752948
-0.3002681924862515,-0.3002681924862515,1.0001763641765886,0.00019467932469131077
-0.299201840598559,-0.299201840598559,0.9997093742600562,0.0001945858022111322
-0.2981540123075462,-0.2981540123075462,1.0001789427737946,0.00019462589013419376
-0.2970876716771073,-0.2970876716771073,1.0002111908177322,0.00019464174102081338
-0.2960398322864677,-0.2960398322864677,0.9998784139866672,0.00019461834274659125
-0.29497350291897534,-0.29497350291897534,0.9999148332980342,0.00019459984229027878
-0.2939256524173686,-0.2939256524173686,0.9998689963410831,0.00019461640950020593
-0.29285933432528,-0.29285933432528,1.0001669975357712,0.00019465808409384542
-0.2918114727093098,-0.2918114727093098,0.9998725643685535,0.00019462733516089964
-0.29074516589490995,-0.29074516589490995,0.9999115000547725,0.00019461979080874278
-0.28969729315323034,-0.28969729315323034,1.000092919797932,0.000194661710119193
-0.2886309976278284,-0.2886309976278284,1.0000829589128102,0.0001946219489284021
-0.2875831137604564,-0.2875831137604564,0.999946865327377,0.00019467128517303836
-0.2865168295274799,-0.2865168295274799,1.0000684539576696,0.00019456907110918206
-0.28546893451965333,-0.28546893451965333,0.9997664422138446,0.0001946202513301563
-0.28440266159271343,-0.28440266159271343,1.0000812506859085,0.00019467350234091937
-0.2833547554398962,-0.2833547554398962,1.0000771500371006,0.0001946500350012012
-0.28226143204703646,-0.28226143204703646,0.9997433780119822,0.00019462696438926594
-0.2811898356911172,-0.2811898356911172,1.0002287606383593,0.00019460991005995455
-0.28014049900326654,-0.28014049900326654,1.0000124101011219,0.0001945652838813856
-0.2790756569277761,-0.2790756569277761,0.9998749410030097,0.00019460686624624463
-0.2780263315663717,-0.2780263315663717,1.0001362533157967,0.00019458899468226954
-0.2769614783266235,-0.2769614783266235,1.0001275870745028,0.00019466000509170588
-0.27591216430753607,-0.27591216430753607,1.0002267845326958,0.0001946221930126003
-0.2748472998887763,-0.2748472998887763,0.9999405122254513,0.00019465376855373225
-0.27379799720747255,-0.27379799720747255,0.9998410325726088,0.0001946305342280716
-0.2727331216051795,-0.2727331216051795,1.0000968093256228,0.0001946685658116097
-0.2716838302854683,-0.2716838302854683,1.0000276810440993,0.00019462374287244845
-0.2706189434894185,-0.2706189434894185,1.0000324894120938,0.0001946017858872724
-0.2695696635267808,-0.2695696635267808,0.999932271204177,0.00019455468922224757
-0.2685047655335723,-0.2685047655335723,0.9999523725513283,0.00019461192549829703
-0.2674554969427419,-0.2674554969427419,0.9999806722178606,0.00019454197463981588
-0.2663905877342387,-0.2663905877342387,1.0002282799513424,0.0001945962694386258
-0.2653413305299665,-0.2653413305299665,0.9997898351804245,0.0001945601804451944
-0.2642764101016155,-0.2642764101016155,1.0000817299360396,0.00019457189680737605
-0.2632271642816221,-0.2632271642816221,0.9998672928222533,0.00019454918244880067
-0.2621622326289071,-0.2621622326289071,1.0000134127254072,0.00019457366702628704
-0.26111299820907163,-0.26111299820907163,1.000196189679969,0.00019455152853153467
-0.26004805532291186,-0.26004805532291186,1.0001039278735462,0.00019452617121045756
-0.25899883231004706,-0.25899883231004706,0.9999813659411269,0.0001945623491646138
-0.2579338781790909,-0.2579338781790909,0.9997076682144919,0.00019456724470330933
-0.2568846665879363,-0.2568846665879363,1.000198943870807,0.0001946117401439681
-0.255802788056954,-0.255802788056954,1.0000637234508878,0.00019458884316161056
-0.2547062310925298,-0.2547062310925298,1.000072016441233,0.00019458910602714028
-0.25359051502215096,-0.25359051502215096,0.9999638033573351,0.00019456794900647414
-0.25230171325148093,-0.25230171325148093,1.0000466749158758,0.00019461163529232742
-0.2512023387026915,-0.2512023387026915,0.999862792765963,0.00019461415383478613
-0.2501700768534533,-0.2501700768534533,1.0000225606670219,0.00019462522990309927
-0.2490881622495607,-0.2490881622495607,1.0000099891946044,0.00019466186182412083
-0.24805591186057824,-0.24805591186057824,0.9999883151128943,0.00019467443730008892
-0.24697398595746164,-0.24697398595746164,0.9998034873816541,0.00019459990203984283
-0.24594174704690488,-0.24594174704690488,1.0002562002779747,0.00019471107458349262
-0.24485980984228775,-0.24485980984228775,1.000041466012057,0.00019459785323977248
-0.2438275824078829,-0.2438275824078829,0.999813985673271,0.0001945880545763975
-0.24274563388929096,-0.24274563388929096,0.9997981572136169,0.0001946197928921074
