time,time,flux,flux_err
-0.49922015286089544,-0.49922015286089544,1.0003046720100734,0.001035865529185213
-0.49784003496097284,-0.49784003496097284,1.001025503367678,0.0009436404341401722
-0.4964785039781418,-0.4964785039781418,1.0001174127914942,0.0009417864036253725
-0.4949623812615755,-0.4949623812615755,1.0001688916101659,0.0009675818575396848
-0.4933492463664152,-0.4933492463664152,1.0006914439568166,0.0009426748084685823
-0.49202941589974214,-0.49202941589974214,0.9995736875961926,0.0009414711936028903
-0.49007901340155513,-0.49007901340155513,0.9999469437711237,0.0009450187806585512
-0.4884359780422528,-0.4884359780422528,0.9994476207761671,0.0009427029754888704
-0.48696040379436456,-0.48696040379436456,1.0009045568429067,0.000942352214932408
-0.4854617424462049,-0.4854617424462049,1.0005668012252884,0.0009777743866127154
-0.4836679864260077,-0.4836679864260077,0.999146462180606,0.000942630389086586
-0.48225470915567714,-0.48225470915567714,1.0005750166138316,0.000942705874560514
-0.48016500429948794,-0.48016500429948794,1.0013589170032164,0.0009469925673533016
-0.478653410384868,-0.478653410384868,1.0001666293043177,0.0009422760971111638
-0.47726762487436647,-0.47726762487436647,1.0002081015672333,0.000942036791826599
-0.47572319106475336,-0.47572319106475336,1.000971410646694,0.000985968215944095
-0.4744174380633922,-0.4744174380633922,1.000910474625885,0.0009671299204662559
-0.4732439324521692,-0.4732439324521692,0.9998704832563282,0.0009435207628163353
-0.47154228685831184,-0.47154228685831184,0.999847152893404,0.0009486571227980666
-0.4698712727156817,-0.4698712727156817,1.0003723577747687,0.0009424310946255279
-0.4685606914412347,-0.4685606914412347,1.0007507858472418,0.0009422609507832358
-0.4671226590930019,-0.4671226590930019,0.9996777251180866,0.0009797963409147923
-0.46564083465200384,-0.46564083465200384,1.0000996543435507,0.0009594133431126056
-0.4645054626300407,-0.4645054626300407,0.9999750828903498,0.0009721920754659742
-0.46322179475901065,-0.46322179475901065,1.000944387190751,0.0009420967493493311
-0.46107367045697173,-0.46107367045697173,0.9999147987075873,0.0009498622814764962
-0.45952891086344605,-0.45952891086344605,0.9998797595548868,0.0009425766672602374
-0.45822485501630583,-0.45822485501630583,1.0002568754308307,0.0009421029728972618
-0.45648501398827646,-0.45648501398827646,0.9982115624930004,0.000965374789251935
-0.45518826640109183,-0.45518826640109183,1.0008539946388697,0.0009417857019746901
-0.45370622952614215,-0.45370622952614215,0.9987127668183089,0.0009429349183737049
-0.45196752507908966,-0.45196752507908966,0.9998240408379964,0.0009562123463222122
-0.4502393980954366,-0.4502393980954366,1.0014328475523835,0.0009431598220143181
-0.44839413998342936,-0.44839413998342936,0.9983126811173563,0.0009446077982515264
-0.4460253102093702,-0.4460253102093702,0.998578406056436,0.0009438332062406222
-0.44448367825243623,-0.44448367825243623,1.000638285905589,0.000941394697516016
-0.4428639227626263,-0.4428639227626263,1.0014583723141337,0.0009604852002505163
-0.44113438898930324,-0.44113438898930324,0.9996760412550092,0.0009498427462941679
-0.43981779004971033,-0.43981779004971033,1.0011194180324885,0.0009426142891810193
-0.4374059427274915,-0.4374059427274915,1.0008365251653408,0.000946545547522953
-0.43593454418805777,-0.43593454418805777,0.9997455601836334,0.0009438197516656772
-0.43438208140360074,-0.43438208140360074,0.9998795538758589,0.0009439061549337713
-0.4325956118766044,-0.4325956118766044,1.0015894676980965,0.0009628485431015441
-0.43125067599467004,-0.43125067599467004,0.9990310972449434,0.0009420674414062294
-0.4298137479207071,-0.4298137479207071,1.0002278216751312,0.0009444520950929597
-0.4277539741298824,-0.4277539741298824,0.9999868512324207,0.0009434344568388625
-0.4264491525202175,-0.4264491525202175,0.9980086272762974,0.0009420755926538495
-0.4251477228710428,-0.4251477228710428,1.0012929535652446,0.0009423127456378019
-0.42385416895413075,-0.42385416895413075,1.001277409362176,0.0009722844928168739
-0.42206163445589484,-0.42206163445589484,1.000296590851234,0.0009424801124591336
-0.42066390471663906,-0.42066390471663906,1.0007627820975427,0.0009429708352326697
-0.4185690765611071,-0.4185690765611071,1.0005427699701146,0.0009454752939586223
-0.41704662914562507,-0.41704662914562507,1.0001934956367395,0.0009422901199443456
-0.41567942871988633,-0.41567942871988633,1.0003230285899058,0.0009419370791825413
-0.4139720503852004,-0.4139720503852004,0.99991878225484,0.0009821729776424424
-0.412560822677915,-0.412560822677915,1.0004343998637644,0.0009423319262723063
-0.4111468100367347,-0.4111468100367347,1.0003906917939154,0.0009416039849266774
-0.4089634892741742,-0.4089634892741742,1.0004811878973636,0.0009467103897320224
-0.4072716898044746,-0.4072716898044746,0.9998728745702724,0.0009427657172124876
-0.4058614754903829,-0.4058614754903829,1.000496492423174,0.0009442280449470711
-0.4043073150372948,-0.4043073150372948,0.9994616653478392,0.0009886663213405347
-0.40311350679548924,-0.40311350679548924,0.9990797689556186,0.0009694840984790726
-0.40190498673400726,-0.40190498673400726,0.9997898517794314,0.0009423684082844183
-0.39995241735450693,-0.39995241735450693,1.0003834230402353,0.0009485660598890363
-0.39813998566678493,-0.39813998566678493,1.0006609663495218,0.0009426705030487804
-0.39694510539411565,-0.39694510539411565,0.9992986423698266,0.0009425132645110735
-0.3952660680282861,-0.3952660680282861,0.9997623919371659,0.0009625088525098838
-0.3938336168670503,-0.3938336168670503,1.000495568994752,0.000977369038987635
-0.392643137518462,-0.392643137518462,0.9994750219355508,0.0009430703250532321
-0.39090698949439684,-0.39090698949439684,1.0001212773282375,0.0009505452635248966
-0.3889312852334115,-0.3889312852334115,1.0014839053777198,0.0009430906521309065
-0.38732280955373427,-0.38732280955373427,1.0008269629115465,0.0009445610310506449
-0.38504920426639727,-0.38504920426639727,1.002078712156722,0.0009653310086611069
-0.3838130239964812,-0.3838130239964812,0.9992715782791153,0.0009421486407171596
-0.38230476249518686,-0.38230476249518686,0.9990457877140024,0.0009438981857161669
-0.3804840685384988,-0.3804840685384988,1.0007163622090163,0.0009576109892477874
-0.3788408162465203,-0.3788408162465203,1.0015531563504907,0.0009426327971445199
-0.3767549127864186,-0.3767549127864186,1.000198870131584,0.0009446920125081469
-0.3746252840479428,-0.3746252840479428,1.0023164609012283,0.0009444451887654588
-0.3730844281060854,-0.3730844281060854,1.0010497856323364,0.0009421705480390999
-0.3713686617658823,-0.3713686617658823,0.9994810649721341,0.0009617846924039686
-0.3698845223269018,-0.3698845223269018,1.0000011598016305,0.0009421852611559905
-0.3685913681052625,-0.3685913681052625,0.9994188601952783,0.000942510740792485
-0.3664815192183596,-0.3664815192183596,1.0016393598076836,0.0009454056973998046
-0.3651391018400318,-0.3651391018400318,0.9989440135955384,0.0009430384362394907
-0.36377973386988743,-0.36377973386988743,0.9988589247569374,0.0009414828015557469
-0.3622624340801849,-0.3622624340801849,0.9994163516902234,0.0009673533445745087
-0.36064828227463297,-0.36064828227463297,0.9992700206718986,0.0009425143228742907
-0.35933012932509883,-0.35933012932509883,0.9998589541797779,0.0009416581144414869
-0.3573796894532279,-0.3573796894532279,0.9991425737871644,0.000945189630342355
-0.3559461877848662,-0.3559461877848662,0.9999436259211235,0.000944290459069091
-0.3545228777547891,-0.3545228777547891,1.0006669643050354,0.0009425123324421844
-0.3531130088245845,-0.3531130088245845,0.9993067077194245,0.0009765979216282024
-0.35129558098269625,-0.35129558098269625,1.0007141657489869,0.0009429194031877764
-0.3498197258508299,-0.3498197258508299,1.0005291937070824,0.0009425471859085283
-0.34786977394396673,-0.34786977394396673,1.0002237668560245,0.0009462659666065745
-0.34624870574698435,-0.34624870574698435,0.9995253818654405,0.0009427283375787861
-0.34487717312804306,-0.34487717312804306,0.9995697056444446,0.0009420639235349626
-0.3433242352446541,-0.3433242352446541,1.001533717509402,0.0009855614773939697
-0.34199947189626984,-0.34199947189626984,0.999239717455611,0.0009421322701680841
-0.3407306538763805,-0.3407306538763805,0.9996222853358507,0.0009669676692291391
-0.339251757319289,-0.339251757319289,1.0008707692229473,0.000946905300910022
-0.3375203646894079,-0.3375203646894079,0.9997427343014621,0.0009441920118485679
-0.3360383901228488,-0.3360383901228488,0.9995477375158386,0.0009418548995697116
-0.3347511531661439,-0.3347511531661439,0.999944801089591,0.0009439597733275449
-0.3332112976888311,-0.3332112976888311,1.000029798617683,0.0009939561115276001
-0.3320202130555117,-0.3320202130555117,0.9987005364314425,0.0009714894659577792
-0.3308007829255075,-0.3308007829255075,1.0012141559637382,0.0009419305139752858
-0.3289249959452718,-0.3289249959452718,1.000450518330161,0.0009493982448193914
-0.32732471685521886,-0.32732471685521886,1.001263278491671,0.0009429243321864662
-0.32612494286004223,-0.32612494286004223,1.00072428811944,0.0009421679132527582
-0.3245099121093517,-0.3245099121093517,1.0009398872432378,0.0009649969117156695
-0.3230037425513729,-0.3230037425513729,1.0007141155267179,0.0009433079568971929
-0.3215431298172916,-0.3215431298172916,0.999709787123687,0.0009427700417487782
-0.3200292242261639,-0.3200292242261639,1.0008788911117932,0.0009546468553321864
-0.31818454829772236,-0.31818454829772236,1.0005034950960048,0.0009440761504869513
-0.3166292931324278,-0.3166292931324278,0.9996297345304448,0.0009422238267414375
-0.31405841897212666,-0.31405841897212666,0.999143012041881,0.000945905317358228
-0.3123972879940993,-0.3123972879940993,1.0000814714959418,0.0009425042281534486
-0.31089287750510264,-0.31089287750510264,0.9998941944487931,0.0009564514572391346
-0.30906241237244103,-0.30906241237244103,1.0006625715266488,0.0009466716396341107
-0.3073939936584793,-0.3073939936584793,1.0002689719293016,0.0009416920333817953
-0.3051993195636896,-0.3051993195636896,1.0002050506770517,0.0009449783647203995
-0.3035316877612786,-0.3035316877612786,1.0000092569454186,0.000944172883949051
-0.3019777405788773,-0.3019777405788773,0.9997711047503992,0.0009422450544355488
-0.30026915270791504,-0.30026915270791504,0.9996023589152783,0.0009644079951447789
-0.2987932164738595,-0.2987932164738595,1.0011301648558018,0.0009430048302168332
-0.297482845394552,-0.297482845394552,0.9998168879932854,0.0009416431971048536
-0.2953776172325888,-0.2953776172325888,0.9995218282846358,0.0009449722012357345
-0.2940456699980132,-0.2940456699980132,1.0005912235459529,0.0009429183065030506
-0.29267118517600466,-0.29267118517600466,1.000311292347368,0.0009416444919749439
-0.2911620914237574,-0.2911620914237574,0.9996633574245095,0.0009716282696009091
-0.289360848335491,-0.289360848335491,1.0012947542960058,0.0009425804165505553
-0.28796506732760463,-0.28796506732760463,1.001046204702574,0.0009424308097239655
-0.285869594932592,-0.285869594932592,0.9998197488263157,0.0009463686280514266
-0.28434579070308247,-0.28434579070308247,1.001014084664069,0.0009429562836363994
-0.28298091559045135,-0.28298091559045135,0.9996326239645388,0.0009419572586620151
-0.2812719387569814,-0.2812719387569814,0.9987301949408938,0.0009813810713867658
-0.27986013266054216,-0.27986013266054216,0.9999215878498683,0.0009422564661822144
-0.27844793030017173,-0.27844793030017173,1.0004099915153575,0.0009420463448755351
-0.2763620367695694,-0.2763620367695694,1.0006546928603828,0.0009467398569945601
-0.2748585798639397,-0.2748585798639397,1.0001914970373424,0.0009426077229530885
-0.2734588841063669,-0.2734588841063669,0.9999293360952365,0.0009421721446765166
-0.27192682219319975,-0.27192682219319975,1.0003043829009612,0.0009890927906572975
-0.2706217867533269,-0.2706217867533269,0.9991047910213858,0.0009690124277063432
-0.26944359812841867,-0.26944359812841867,0.9999291716927633,0.0009434296468294855
-0.2677147029826301,-0.2677147029826301,1.0007777742501502,0.0009475416723768941
-0.2657182538328925,-0.2657182538328925,1.000538876051199,0.0009423494884009322
-0.2645307766186306,-0.2645307766186306,0.9983493404236754,0.0009422861631096004
-0.26290843999158825,-0.26290843999158825,1.0009603357775592,0.0009620162146271467
-0.26140247083167195,-0.26140247083167195,0.9999555686363959,0.0009428818110979222
-0.26014707190770425,-0.26014707190770425,0.9992053185325585,0.0009756841854690947
-0.2586375522048911,-0.2586375522048911,0.9991929161204819,0.0009510047611503254
-0.2565807497943752,-0.2565807497943752,0.9990804816003036,0.0009427492080897801
-0.2552552691675373,-0.2552552691675373,0.9979815742730411,0.0009413427576592775
-0.25318600898390287,-0.25318600898390287,0.9999559393941837,0.0009662567012312736
-0.2516178255355044,-0.2516178255355044,1.0014809388068149,0.0009433781673449986
-0.25018839417098204,-0.25018839417098204,1.0005899606584603,0.0009426333999720618
-0.2485647173692996,-0.2485647173692996,0.9991337769536759,0.0009565535056467172
-0.24674303518841043,-0.24674303518841043,0.999871328101231,0.0009436625051988496
-0.24510934732097667,-0.24510934732097667,1.0003766474294398,0.0009447742207231404
-0.24260234506436973,-0.24260234506436973,0.9999417979531051,0.0009438693208212541
-0.24094385116477496,-0.24094385116477496,0.9987192419820807,0.0009415214526159461
-0.23942197191427111,-0.23942197191427111,1.00138194203446,0.0009616794636547471
-0.23774371180697926,-0.23774371180697926,1.000477145273333,0.0009428636269249388
-0.23634973161533707,-0.23634973161533707,1.0003398015402776,0.0009423952106580454
-0.23464343335508603,-0.23464343335508603,1.000680751607585,0.0009455735111868681
-0.23304187734174775,-0.23304187734174775,1.0001551489511353,0.0009436815029519395
-0.23153554893215186,-0.23153554893215186,1.001634329723806,0.000941901038303965
-0.23026963380907545,-0.23026963380907545,1.000416211890971,0.0009606514683437974
-0.22848089584513218,-0.22848089584513218,1.0012506131841172,0.0009492221581027429
-0.2271546388969,-0.2271546388969,1.0006534536751417,0.0009422349859385584
-0.22557328557231812,-0.22557328557231812,1.0008076252372518,0.0009452805506118871
-0.22374289360741387,-0.22374289360741387,0.9992971959024587,0.000943693278988938
-0.22235822013390133,-0.22235822013390133,1.0000395947952243,0.0009427067122895732
-0.2210622811522626,-0.2210622811522626,0.9998488295094509,0.000944427446741764
-0.21929176275007195,-0.21929176275007195,0.9999897744835519,0.0009751892957476664
-0.21766196163152926,-0.21766196163152926,0.9991741268996348,0.0009418518417729619
-0.21606264288930105,-0.21606264288930105,0.9992154240937872,0.0009459418763168116
-0.21421271073413664,-0.21421271073413664,1.0018267637969112,0.0009429950210264029
-0.21266605515265838,-0.21266605515265838,1.0006613955577912,0.0009419738254838248
-0.2112392404502316,-0.2112392404502316,1.0001965460101152,0.0009731608883945855
-0.2095316593789903,-0.2095316593789903,1.000163050921985,0.0009549785163123746
-0.2083365663434961,-0.2083365663434961,1.000441877953151,0.0009673230532900885
-0.20697503488554503,-0.20697503488554503,0.9991685305447874,0.0009468840680671145
-0.20503903377248206,-0.20503903377248206,1.000661091727276,0.0009437200624256775
-0.20361825899599353,-0.20361825899599353,1.0012159888078875,0.0009424982738765415
-0.20234880703501404,-0.20234880703501404,0.9992330468627155,0.0009415133956387066
-0.20083110952255084,-0.20083110952255084,1.0004090030300115,0.0009949745760718615
-0.199526920493372,-0.199526920493372,0.9999378082495489,0.000971016635640556
-0.19834332097525476,-0.19834332097525476,0.9997235673000077,0.0009429226924003196
-0.19661127580911852,-0.19661127580911852,0.9997909160579491,0.0009489836361407254
-0.19462390403641622,-0.19462390403641622,0.9983629298793657,0.0009422250231325091
-0.19342566090635954,-0.19342566090635954,0.999431357475854,0.0009425708931237517
-0.19180972360554732,-0.19180972360554732,1.00039616313575,0.0009646367231140556
-0.1903035771858413,-0.1903035771858413,0.998556073896139,0.0009426320066952881
-0.18884312425216193,-0.18884312425216193,0.9998866529056978,0.0009429330365851865
-0.1873295710363891,-0.1873295710363891,1.0004816260989517,0.0009539877452340027
-0.18548406791960587,-0.18548406791960587,0.9992122638493441,0.0009442110699385995
-0.18393003824312473,-0.18393003824312473,1.0003242351878332,0.0009425883553444623
-0.18135795141133712,-0.18135795141133712,1.0003905937562279,0.000945822312959671
-0.17969664033153093,-0.17969664033153093,0.9997178425416502,0.0009419112736380065
-0.17819395434344187,-0.17819395434344187,0.999662450633785,0.0009562327141184122
-0.17636158852183142,-0.17636158852183142,1.0000705362103421,0.0009458055041542532
-0.17469430416895193,-0.17469430416895193,0.9993754367252112,0.0009415784262515289
-0.17249998173865605,-0.17249998173865605,1.0000471498884695,0.0009449302150792858
-0.1708307674540265,-0.1708307674540265,0.9977803175961538,0.000943440203334027
-0.16927868786224282,-0.16927868786224282,1.0010578152148955,0.0009423477405064211
-0.16756907809831317,-0.16756907809831317,0.9991382949841736,0.0009634962676999595
-0.1660919687077694,-0.1660919687077694,0.9998589541367231,0.0009419611016731418
-0.16478405392481363,-0.16478405392481363,0.9993315367450186,0.0009413895490176559
-0.16267816764084272,-0.16267816764084272,0.9993819647151134,0.0009450039109367619
-0.1613447254851053,-0.1613447254851053,1.0003210107525704,0.0009430342191808622
-0.159972397259844,-0.159972397259844,0.9997935153591146,0.0009417991849839536
-0.1584621364076156,-0.1584621364076156,0.9994518183427775,0.0009701162395172632
-0.1566600632839254,-0.1566600632839254,0.9994578212343731,0.0009421987085142461
-0.1552662320777017,-0.1552662320777017,0.9998112802266382,0.0009418854613730165
-0.15317011509177975,-0.15317011509177975,1.0001837764553871,0.0009454400640753781
-0.15156217045368975,-0.15156217045368975,0.9992814437811663,0.0009419483699201515
-0.14998700857249786,-0.14998700857249786,1.0009626257081632,0.0009444526721638022
-0.14823991334924358,-0.14823991334924358,0.9990972284882812,0.000979088710435997
-0.14687250090428278,-0.14687250090428278,1.0009287125836932,0.0009427755099855262
-0.1453833986335667,-0.1453833986335667,0.999113003786341,0.0009460052488521498
-0.1433291598499636,-0.1433291598499636,1.000135316513337,0.00094243948045655
-0.14187070129264612,-0.14187070129264612,0.9994875316051781,0.0009424311251270553
-0.14046444602645353,-0.14046444602645353,0.9990070061721937,0.0009441416309152719
-0.1389061869995203,-0.1389061869995203,0.9990342190603341,0.000987138487989488
-0.13771160424366827,-0.13771160424366827,1.0004186183201014,0.0009698203682361779
-0.13650621177221184,-0.13650621177221184,0.998808172546565,0.0009415907562892931
-0.13455278316905606,-0.13455278316905606,0.9990496008037789,0.0009476189224241069
-0.13273765314515912,-0.13273765314515912,0.9995486752425794,0.000941795097258239
-0.13154782783967675,-0.13154782783967675,1.001076430343882,0.0009419033701025427
-0.1298652606907126,-0.1298652606907126,1.0000137856221787,0.0009618358141674646
-0.12843212008519914,-0.12843212008519914,1.00118227610041,0.000976152454417306
-0.12724316128733335,-0.12724316128733335,0.9995970171961309,0.0009434631002273597
-0.12550793050249923,-0.12550793050249923,1.0013609296527766,0.0009504616649536269
-0.12352963326047757,-0.12352963326047757,0.9999592012726399,0.000942765045644179
-0.1223206961156393,-0.1223206961156393,1.0001742060290877,0.0009418541056641775
-0.1204120834612695,-0.1204120834612695,0.9986518525149476,0.0009659641096684575
-0.11891736331162975,-0.11891736331162975,0.9990354957609607,0.000941945180468739
-0.11748893034164212,-0.11748893034164212,0.9995090552641409,0.000942316857206521
-0.11586481182603166,-0.11586481182603166,0.9979286226614938,0.0009558331474802987
-0.11404218606840004,-0.11404218606840004,1.000358368664902,0.0009437935526709339
-0.11241028996664681,-0.11241028996664681,0.9994599654765561,0.0009438627860212624
