time,time,flux,flux_err
-0.4962673886378373,-0.4962673886378373,1.0001520331618357,0.00015220989847444544
-0.4951727056638144,-0.4951727056638144,0.9999593943964405,0.0001511676095157977
-0.4934373377254815,-0.4934373377254815,0.9999954580020517,0.0001501003976199583
-0.4916717075805839,-0.4916717075805839,0.9998901284397769,0.00015002610506472115
-0.49117911998182534,-0.49117911998182534,0.9999067087692504,0.00013684856618999651
-0.49084541690826883,-0.49084541690826883,1.000083510856361,0.00013693803733023493
-0.4900453779322561,-0.4900453779322561,0.999942729804291,0.00013704422107072207
-0.4884345629310701,-0.4884345629310701,1.0000936865709265,0.00013749036607545853
-0.4851702076528454,-0.4851702076528454,1.0001384431204885,0.0001375510083433898
-0.4823260276840301,-0.4823260276840301,1.0001096391388065,0.00013759011185987782
-0.47910060423600953,-0.47910060423600953,0.9999896595746062,0.0001383754187517544
-0.4783841384778498,-0.4783841384778498,0.9998871069423961,0.00013781984322662073
-0.4768687229399802,-0.4768687229399802,1.0000052777950839,0.00013701995194849865
-0.47517828397394624,-0.47517828397394624,0.9998955013292884,0.00013692440826585964
-0.47458221930719446,-0.47458221930719446,1.0002213188672386,0.00013696181205507735
-0.4742637661343906,-0.4742637661343906,0.9999289042562042,0.0001368433365986658
-0.47381360985164067,-0.47381360985164067,0.9999961097555762,0.00013696701410423904
-0.47251811481255573,-0.47251811481255573,1.000085370193961,0.00013764775900902527
-0.4705268265912309,-0.4705268265912309,1.0001089896928623,0.0001375417131692223
-0.467318426084239,-0.467318426084239,0.9998894211687908,0.0001367684152628162
-0.4647976432053838,-0.4647976432053838,1.0001400281297723,0.00013850104674352758
-0.462252937303856,-0.462252937303856,0.9999131114514344,0.00013883720147450955
-0.46136089598585384,-0.46136089598585384,0.99984660342468,0.00013715046815983972
-0.4594787153211655,-0.4594787153211655,1.0000354383363983,0.00013707361057147574
-0.4582914350787178,-0.4582914350787178,0.9999502560811745,0.0001369074736559456
-0.457846160812187,-0.457846160812187,1.0000298322181538,0.0001368748396752572
-0.45752126034058166,-0.45752126034058166,1.0000316835316658,0.00013692891228359846
-0.45672912944864946,-0.45672912944864946,1.0003102754560151,0.0001370576321744798
-0.4551278197031934,-0.4551278197031934,1.0001508867902698,0.00013750418307879354
-0.4518464322318323,-0.4518464322318323,0.99985449205674,0.00013754618874772988
-0.4489946203015279,-0.4489946203015279,0.9999863419810324,0.0001375836088789312
-0.44577413876831995,-0.44577413876831995,1.0000775539914228,0.00013838720070084357
-0.445060946434387,-0.445060946434387,1.0000531992600492,0.00013784279955354596
-0.44355197664990553,-0.44355197664990553,0.9999464762895904,0.00013702126560493697
-0.441854303717264,-0.441854303717264,1.0000408882596616,0.00013692685048872453
-0.44125883280357814,-0.44125883280357814,0.9999823325962186,0.00013697423747070734
-0.44093095864227505,-0.44093095864227505,1.0001828107376478,0.00013684819042744369
-0.44049327250686476,-0.44049327250686476,1.0000795338256894,0.00013697749671523815
-0.43921087894705124,-0.43921087894705124,0.9999273276512612,0.0001376660617311042
-0.437220700448961,-0.437220700448961,0.9999898756594607,0.00013755077811403936
-0.43398278723761907,-0.43398278723761907,1.0001870070728218,0.00013676253046894152
-0.43146828673488924,-0.43146828673488924,1.000142111004914,0.00013853784502420246
-0.42893043881631454,-0.42893043881631454,0.9999334399097126,0.00013887081677340296
-0.4280368275824003,-0.4280368275824003,1.0003233696710576,0.00013718368212413398
-0.4265817925625015,-0.4265817925625015,1.0000629544717898,0.0001370721983690478
-0.4250803999544587,-0.4250803999544587,1.0000198502319084,0.00013691968101575607
-0.4245947038027225,-0.4245947038027225,1.0001057965713793,0.0001369067641928137
-0.4242468732438283,-0.4242468732438283,1.0002049000376054,0.00013692723692991705
-0.4236728642368689,-0.4236728642368689,0.9998629976266982,0.00013698363510907815
-0.4221675622422481,-0.4221675622422481,1.0000172736409134,0.00013748414684980724
-0.4192806751292665,-0.4192806751292665,1.0000485963859052,0.0001376990400203912
-0.4165384428983089,-0.4165384428983089,0.9999146164882289,0.0001368012500284802
-0.4125963283790043,-0.4125963283790043,1.000010877856832,0.00013918141856952138
-0.4119132924883161,-0.4119132924883161,1.0002393737735362,0.00013779584790004476
-0.41057203711243345,-0.41057203711243345,1.0001951262948858,0.00013703901744383122
-0.40882076692359987,-0.40882076692359987,0.9999059167369525,0.00013698089933390255
-0.4080010142934043,-0.4080010142934043,1.0002760699201199,0.00013687696153450699
-0.40765155681583565,-0.40765155681583565,1.0002098531320354,0.00013690794390660064
-0.4071729662508005,-0.4071729662508005,0.9999266173955343,0.00013696889800424392
-0.40590366122487465,-0.40590366122487465,1.0000317415140854,0.00013768033094423677
-0.403914592450019,-0.403914592450019,0.9999023026260337,0.00013757066834143243
-0.40064718467765487,-0.40064718467765487,0.9999250303320473,0.00013677041879640067
-0.3981389497377677,-0.3981389497377677,0.9999513131115425,0.00013849287282253678
-0.39560796369914897,-0.39560796369914897,1.000262377643212,0.00013888949997154182
-0.39471281491278204,-0.39471281491278204,0.999853367311802,0.00013716480581779476
-0.3932674679410411,-0.3932674679410411,0.999969417998601,0.00013704931594289742
-0.39175344186660366,-0.39175344186660366,0.999966116546544,0.0001369222388357918
-0.3912646226614015,-0.3912646226614015,0.9997774500686187,0.00013686665910387293
-0.39092306670499966,-0.39092306670499966,1.0000389475629052,0.0001369497642395468
-0.39050302240648305,-0.39050302240648305,1.0000245121057705,0.00013694101446697928
-0.3892182665789733,-0.3892182665789733,1.0000302911921473,0.00013750155472438028
-0.3867723250237759,-0.3867723250237759,0.9999649499643812,0.0001378084496458097
-0.38389364135800863,-0.38389364135800863,0.999927683731561,0.00013681699133855424
-0.3795839360071113,-0.3795839360071113,1.0000174700818865,0.00013835728841186945
-0.378733233481762,-0.378733233481762,1.000128809534002,0.0001385886411469472
-0.37764121452928523,-0.37764121452928523,0.999990976826832,0.00013698713509082336
-0.37550280457653573,-0.37550280457653573,1.0001268459577717,0.00013699110978744074
-0.3746722373558441,-0.3746722373558441,0.9999510044296441,0.0001368808109951407
-0.3743234656576533,-0.3743234656576533,1.0000509631196208,0.00013689903365918683
-0.37385268333891875,-0.37385268333891875,1.0002266689325026,0.00013697465947715175
-0.37224862751318144,-0.37224862751318144,1.000091392760909,0.00013731366426606112
-0.36980447991518306,-0.36980447991518306,0.99991645862578,0.0001375044379967791
-0.3672506792092463,-0.3672506792092463,0.9998802950523977,0.00013677214678828518
-0.36389488115091806,-0.36389488115091806,1.0001126563028155,0.00013856445902052117
-0.3622267531201942,-0.3622267531201942,0.9998637698799125,0.00013879940333056732
-0.3613888606079854,-0.3613888606079854,1.0001664895290214,0.00013715939521067206
-0.35995318479835986,-0.35995318479835986,0.9997696912690405,0.00013706037341624757
-0.35842652654391716,-0.35842652654391716,0.9999109871787504,0.00013693571557193995
-0.35793457651161587,-0.35793457651161587,1.000161260596532,0.00013690043494550018
-0.3575992860889528,-0.3575992860889528,0.9999433139611245,0.00013691952206158113
-0.3571797888842411,-0.3571797888842411,1.000012635819097,0.0001369422623603732
-0.3559094361233292,-0.3559094361233292,0.9998470985402506,0.00013750093739205418
-0.3534599100210471,-0.3534599100210471,0.9999069022562843,0.0001378464550552136
-0.35055911611707413,-0.35055911611707413,1.000123775785403,0.0001368159049206928
-0.346260615621577,-0.346260615621577,1.0001155325226443,0.00013838171157338832
-0.34540490637300536,-0.34540490637300536,1.0000045779025615,0.00013860683059191843
-0.3443193305603927,-0.3443193305603927,1.000080038145676,0.00013702323335602095
-0.3421848824276822,-0.3421848824276822,0.9998911686455779,0.00013700542911740306
-0.34134349279047455,-0.34134349279047455,1.0001151181674837,0.00013691246571308804
-0.34099540299794173,-0.34099540299794173,0.9999162092632068,0.0001368862317628353
-0.34053242635272907,-0.34053242635272907,1.000085666785227,0.00013698976187370406
-0.33894130996777677,-0.33894130996777677,1.0000986201066844,0.0001373430680759494
-0.3364917822735151,-0.3364917822735151,0.999886323997891,0.00013749440878749633
-0.3339158908056561,-0.3339158908056561,1.0000142681761521,0.00013678351780451652
-0.3305687216517981,-0.3305687216517981,1.0001129662927586,0.00013860662620914565
-0.3288984454586171,-0.3288984454586171,1.0000714610190296,0.00013883538704490445
-0.32806495943514163,-0.32806495943514163,0.9998752358910517,0.00013720502204023907
-0.32663892889686397,-0.32663892889686397,0.9999456877595184,0.00013704382297612493
-0.3250996501185,-0.3250996501185,1.0002146371837821,0.00013697342438074488
-0.3246045666775899,-0.3246045666775899,0.9998870079217401,0.000136892633286492
-0.3242755339946598,-0.3242755339946598,1.0002691300013749,0.00013694202559062416
-0.3238565825682599,-0.3238565825682599,1.0002966338192398,0.0001369619345354043
-0.32260062512068544,-0.32260062512068544,1.0002016490993566,0.00013753454517169414
-0.3208102736272849,-0.3208102736272849,1.0002185576560376,0.00013796271789207287
-0.3172732635488501,-0.3172732635488501,0.999989774252476,0.00013676839825903627
-0.3138902781676734,-0.3138902781676734,1.0002150983614375,0.00013836519266848343
-0.3121891673654318,-0.3121891673654318,1.0000132395764858,0.0001383236680700156
-0.31131211754109245,-0.31131211754109245,1.0000467300142486,0.00013730999593743418
-0.309247351551312,-0.309247351551312,0.9999393440000682,0.00013707589270687786
-0.308118143863976,-0.308118143863976,0.9999080590749253,0.00013690381933020127
-0.3077443726419006,-0.3077443726419006,1.0000885128706387,0.00013684423098483372
-0.30735016406106297,-0.30735016406106297,0.9998875023819339,0.0001369417193371528
-0.3060105502809165,-0.3060105502809165,1.000136548626858,0.00013728987184193
-0.3039963656832697,-0.3039963656832697,1.0001670329084071,0.00013764124964739442
-0.3006405481690308,-0.3006405481690308,1.0000443075258652,0.00013676608267638836
-0.2987260695110308,-0.2987260695110308,0.9999971301536552,0.00014181498821554808
-0.29581577018543614,-0.29581577018543614,1.0000822024107712,0.00013906158088262678
-0.29516934120620136,-0.29516934120620136,1.0001400806522074,0.00013766612666670698
-0.2940038525412092,-0.2940038525412092,1.0000582728544096,0.00013702236438898244
-0.29221470082120504,-0.29221470082120504,1.0001370364527724,0.00013699651790555282
-0.291443858310231,-0.291443858310231,1.0001215986207341,0.00013693753394492214
-0.2910461194376694,-0.2910461194376694,1.0000494872888035,0.0001368850723165947
-0.2907567628863035,-0.2907567628863035,0.9999881836431145,0.00013690977363755408
-0.2899267216445878,-0.2899267216445878,0.9998398810250718,0.00013740596803746787
-0.28816892091126645,-0.28816892091126645,1.0001305847605653,0.00013721482215267431
-0.28522790121496655,-0.28522790121496655,1.0000655376322998,0.00013779691542801644
-0.282337936051772,-0.282337936051772,1.0000417846902503,0.00013768587462786007
-0.27914664183335847,-0.27914664183335847,0.999959933051733,0.0001390043506200183
-0.2785088955279207,-0.2785088955279207,1.0002269685468057,0.00013738376304790357
-0.2775878241896862,-0.2775878241896862,1.0000289903392885,0.0001372283436366695
-0.2755491366406204,-0.2755491366406204,1.0000580470654246,0.00013698540103856523
-0.2746887838875409,-0.2746887838875409,0.9999878287927843,0.00013698165217879192
-0.27433667771983894,-0.27433667771983894,1.0001960423947225,0.00013683857814997683
-0.27389199925819413,-0.27389199925819413,1.0000173826590133,0.00013699456431511515
-0.2723267435852904,-0.2723267435852904,0.9998554499766591,0.00013736032020244507
-0.2698664531315444,-0.2698664531315444,0.9999945894853466,0.00013752092804974623
-0.2672464047354879,-0.2672464047354879,1.0001384935292301,0.00013679998542362305
-0.2639164635242196,-0.2639164635242196,0.9999367360709848,0.0001386048761123994
-0.2622419390361756,-0.2622419390361756,1.0000021723864467,0.00013883479488869692
-0.2614173308102181,-0.2614173308102181,1.000041177262883,0.0001372193002790578
-0.2600105376390275,-0.2600105376390275,0.9999883431609996,0.00013703492449576747
-0.25844602949218826,-0.25844602949218826,0.9999633371176969,0.00013695915603782906
-0.2579446325340541,-0.2579446325340541,0.9999935536482912,0.00013688001316428453
-0.25762810759770216,-0.25762810759770216,0.9999755991438668,0.00013694617160399874
-0.25721024514350577,-0.25721024514350577,0.9999272453555632,0.00013694671283967716
-0.2559830640384462,-0.2559830640384462,0.9999868393116234,0.00013751806099970308
-0.25419605209317525,-0.25419605209317525,0.9999597903900128,0.00013806568974844723
-0.2506029011186911,-0.2506029011186911,1.0002110466690781,0.0001368056850703644
-0.2481150874082232,-0.2481150874082232,1.0000153413104136,0.00013777075671893394
-0.24565887966309674,-0.24565887966309674,1.000113899137053,0.00013894681784123146
-0.24502877269114834,-0.24502877269114834,0.9998191604514451,0.00013745060549203277
-0.2435105736803962,-0.2435105736803962,1.0002394542683948,0.00013703648399718743
-0.24173928690433968,-0.24173928690433968,0.9999844269529014,0.00013702138512324588
-0.24123214838036802,-0.24123214838036802,1.0001734518005292,0.00013686701638895843
-0.24083200474560726,-0.24083200474560726,1.000026645391852,0.0001368928005973265
-0.24012017772474792,-0.24012017772474792,1.0000825159235311,0.00013703665228079355
-0.23823570117529017,-0.23823570117529017,1.0000982506594271,0.00013737580758382402
-0.23509926491824445,-0.23509926491824445,0.99984751704367,0.00013742015361703128
-0.23320377499039752,-0.23320377499039752,0.9998186262447455,0.00013682531482425359
-0.2293260711390758,-0.2293260711390758,1.000294735513737,0.00013938963010578308
-0.22867766059935093,-0.22867766059935093,1.0000605886034168,0.00013841126718967765
-0.22765631651564036,-0.22765631651564036,1.0000770556358565,0.0001370201193628406
-0.22588041076087392,-0.22588041076087392,1.000070827851511,0.00013706845601378924
-0.2248952849273337,-0.2248952849273337,1.0000161280936566,0.00013693414435300038
-0.2244654807844199,-0.2244654807844199,1.0001060859572448,0.0001368911672962957
-0.2241650127019966,-0.2241650127019966,0.9999950647252825,0.000136894685915448
-0.22350597730255686,-0.22350597730255686,1.0000678292836294,0.00013739474899225615
-0.2219766032649204,-0.2219766032649204,0.9999860678157185,0.0001372104853700674
-0.21957322097441648,-0.21957322097441648,0.9998493265579661,0.00013799666517414242
-0.21722132631985006,-0.21722132631985006,0.9998909318714425,0.0001367959215508424
-0.21296757907839492,-0.21296757907839492,0.9999629252629001,0.00013846865395060134
-0.21209197131975088,-0.21209197131975088,1.0002157220567227,0.00013868859275654668
-0.2112932758347597,-0.2112932758347597,1.000180278632251,0.00013713044606443052
-0.20931317119684537,-0.20931317119684537,1.0001787252336478,0.00013705877029418346
-0.20813024174422026,-0.20813024174422026,0.9999842247999908,0.00013687865223407307
-0.20775388419569935,-0.20775388419569935,1.0000315451352992,0.0001368910069711726
-0.2073818908102112,-0.2073818908102112,1.0000521737026493,0.00013694216913537335
-0.2060816838988103,-0.2060816838988103,1.000099615406237,0.00013731532677921002
-0.20407828021270688,-0.20407828021270688,0.9999561274767919,0.00013766189334939993
-0.20063419819052797,-0.20063419819052797,1.0001358732314123,0.00013680317140078724
-0.19791798280493822,-0.19791798280493822,0.9997896000357714,0.00013865109862933622
-0.19558558300486767,-0.19558558300486767,1.0002015655117564,0.00013890914688142385
-0.19489130199654028,-0.19489130199654028,0.9999570922585805,0.00013716729250021198
-0.19368730036658235,-0.19368730036658235,0.9999868706268467,0.00013701181864473724
-0.19203222894866484,-0.19203222894866484,1.0001183986167237,0.00013705406201849896
-0.19137668569164817,-0.19137668569164817,1.0000896155023953,0.00013687951147216704
-0.1910179968137527,-0.1910179968137527,1.000098261133612,0.00013688265122894833
-0.19066838961734903,-0.19066838961734903,1.0000880899134166,0.00013692031079613206
-0.18968439990421757,-0.18968439990421757,0.9998936697749269,0.00013743947857625265
-0.18792321892688052,-0.18792321892688052,1.000067869726517,0.00013824174041268138
-0.18479081932164262,-0.18479081932164262,0.9998576739025042,0.00013697487521542283
-0.18234419876534957,-0.18234419876534957,0.999958499978445,0.00013771216425390715
-0.17918070989253465,-0.17918070989253465,1.0001460130859092,0.00013903638071114958
-0.17852555934805422,-0.17852555934805422,1.000100447884278,0.00013741817539594822
-0.17732126880437135,-0.17732126880437135,1.0000422388112475,0.00013701863552616095
-0.17529263905016707,-0.17529263905016707,0.9999128171972309,0.00013698206789019166
-0.17464399283053353,-0.17464399283053353,1.0001309474903035,0.00013690836323838472
-0.17425581198185683,-0.17425581198185683,1.000009698610701,0.0001368954868574726
-0.17377960232552142,-0.17377960232552142,0.999948900421858,0.00013700076303046737
-0.17197428150393534,-0.17197428150393534,1.0001377643203646,0.0001373728042984238
-0.1691636632924201,-0.1691636632924201,1.000236239374299,0.00013750334051598068
-0.1672078412346309,-0.1672078412346309,1.0001340673091728,0.00013679918681592683
-0.16267706003272905,-0.16267706003272905,1.0001387483068451,0.00013951289537073123
-0.16202550540619995,-0.16202550540619995,0.9999044187731766,0.00013838797726646736
-0.16087982290191577,-0.16087982290191577,1.0001453926459407,0.00013699910147016626
-0.15894796710344963,-0.15894796710344963,1.000173734545078,0.00013700708597319213
-0.15812293609487824,-0.15812293609487824,1.0001289026125806,0.00013696591610014866
-0.15775137701130007,-0.15775137701130007,0.9999382040370328,0.00013692859243367859
-0.15742980048526078,-0.15742980048526078,0.9999892793575604,0.0001368351512112663
-0.1566836421348853,-0.1566836421348853,0.9999482086914531,0.00013742790863719502
-0.15508664527151267,-0.15508664527151267,1.0000513191189304,0.00013731880710042386
-0.15218521362985485,-0.15218521362985485,1.0000819742984903,0.00013704773339292766
-0.14986986001895275,-0.14986986001895275,1.0002039880437414,0.00013683557477782543
-0.14602204483235254,-0.14602204483235254,0.9999718660293307,0.0001393161917677067
-0.14529237985261717,-0.14529237985261717,0.9997923133495841,0.00013787653391091151
-0.14438608284981455,-0.14438608284981455,1.000125465245795,0.00013712318160321614
-0.14234459705185146,-0.14234459705185146,1.0002024749430813,0.0001369917247922716
-0.14147183088352905,-0.14147183088352905,1.000048798980287,0.00013692972443777644
-0.14109372188104316,-0.14109372188104316,1.0001062234600322,0.00013688807257084874
-0.14073649586352985,-0.14073649586352985,1.0000229440115234,0.00013693678287473815
-0.13969162032881285,-0.13969162032881285,0.9997948442885963,0.00013728514985723178
-0.13784186175034846,-0.13784186175034846,0.9999725471693284,0.00013766549463167522
-0.13508570942503867,-0.13508570942503867,1.0003111805205727,0.0001368539801519507
-0.13319499981007538,-0.13319499981007538,1.0002152104693705,0.00013678755470150628
-0.1293552110611927,-0.1293552110611927,1.0001108483959744,0.00013951804427176886
-0.12869686328922397,-0.12869686328922397,1.000061366755455,0.00013843619415410997
-0.1275573905732017,-0.1275573905732017,0.9998972161285444,0.00013697539435812654
-0.12563136988319457,-0.12563136988319457,0.9999928320573834,0.0001369623323238441
-0.12479279918188695,-0.12479279918188695,1.0000261009235607,0.0001369781392680767
-0.12442783364094794,-0.12442783364094794,0.999996854269334,0.0001369439772949533
-0.12409806121431757,-0.12409806121431757,0.9997724219304759,0.0001368293966639278
-0.12337292541051284,-0.12337292541051284,1.0002489154561818,0.00013745603219211962
