time,time,flux,flux_err
-0.4988478571744054,-0.4988478571744054,0.9992189447440996,0.0006951448017075577
-0.4978952957200818,-0.4978952957200818,1.0006189550598918,0.0006863998345618764
-0.49698833018701405,-0.49698833018701405,0.9996266536739388,0.0006860844766930837
-0.4956770392178441,-0.4956770392178441,0.9987904118990352,0.0006947167486906352
-0.4941329528512142,-0.4941329528512142,0.999128654984798,0.000689648618320882
-0.4917551798658678,-0.4917551798658678,0.9991680749746695,0.000683306656279673
-0.48989401380022174,-0.48989401380022174,0.9991873728231646,0.0006883338528564945
-0.488759249492432,-0.488759249492432,0.9987990671661413,0.0006936136236072602
-0.48779565539371106,-0.48779565539371106,0.9994587911138841,0.0006819345975298209
-0.4862881327630021,-0.4862881327630021,0.9993837588797241,0.0006867368772086792
-0.48508001830632563,-0.48508001830632563,0.9993617305994544,0.0006869562866380677
-0.4836890097831201,-0.4836890097831201,1.0003073154686493,0.0006939429834476911
-0.4822296744627238,-0.4822296744627238,0.9988739025722365,0.0006826306825972291
-0.48004082656188984,-0.48004082656188984,0.9996949107146195,0.000690137875350318
-0.4787275957191014,-0.4787275957191014,0.9987739510592528,0.0006877796754629365
-0.47694308875506974,-0.47694308875506974,1.000297947254689,0.0006891326389660907
-0.47487190849205946,-0.47487190849205946,0.9996228637993848,0.0006881514536943148
-0.4736286711842695,-0.4736286711842695,1.0005296937982109,0.0006883293444129619
-0.47107696870953075,-0.47107696870953075,0.9999143209853637,0.0006856812064340267
-0.46931504818203396,-0.46931504818203396,0.999916876976347,0.0006855560371758377
-0.4679172323914827,-0.4679172323914827,0.9980495590799098,0.0006934044673835091
-0.46663329152943334,-0.46663329152943334,0.9990892095958394,0.0006932860666395614
-0.4656858276175626,-0.4656858276175626,0.9985808228330715,0.0006857507162005197
-0.4645748734656081,-0.4645748734656081,0.9993916616522622,0.0006859379463731794
-0.46358199628884905,-0.46358199628884905,0.99973267201381,0.0006880223972836312
-0.4621743281160889,-0.4621743281160889,0.9997251748554546,0.0006879130433106455
-0.46066118187372923,-0.46066118187372923,1.0001477542492025,0.0006932728856256857
-0.4592858449344931,-0.4592858449344931,0.9998687479731722,0.0006905511669785297
-0.4579263604005973,-0.4579263604005973,0.9990598984495842,0.0006953829923101879
-0.45721948990176314,-0.45721948990176314,0.998788280772102,0.0006958224344124021
-0.4565250418447249,-0.4565250418447249,0.9987313082939601,0.0006915353896235234
-0.45566630700268435,-0.45566630700268435,0.9995345094555452,0.0006964315615982261
-0.45489141108919284,-0.45489141108919284,0.9991924348232095,0.0006814809728450771
-0.4540748541003268,-0.4540748541003268,1.0000316235939655,0.0006817096656830889
-0.4527734124654671,-0.4527734124654671,1.0005963391043464,0.0006851627997379882
-0.4513633227645187,-0.4513633227645187,0.9984378230932125,0.0006940618075936086
-0.4503576297145628,-0.4503576297145628,0.9992754576321833,0.0006866160346338463
-0.4485370637194137,-0.4485370637194137,1.0008004579828758,0.0006889470058795501
-0.4473989870974037,-0.4473989870974037,0.9992614748337052,0.0006985324456369043
-0.44627709477135796,-0.44627709477135796,1.0006896889287193,0.0006915120095439596
-0.4454823087340628,-0.4454823087340628,0.9996202190170761,0.0006882795109384504
-0.4442347488278756,-0.4442347488278756,0.9997803111193736,0.0006828814587295448
-0.4422515807193122,-0.4422515807193122,1.0002568438068242,0.0006912761387303757
-0.4407171873222978,-0.4407171873222978,0.9991761553150788,0.0006814918517960955
-0.43940348380347133,-0.43940348380347133,0.9994373643965944,0.0006919058251816841
-0.4384929049687344,-0.4384929049687344,0.9984518987898433,0.0006857224446608376
-0.43709598267887484,-0.43709598267887484,0.9981978372882587,0.000696669889115397
-0.4361921525000071,-0.4361921525000071,0.9985441639290634,0.000692506786777243
-0.435000128315005,-0.435000128315005,0.9997812890141569,0.0006864568499507424
-0.43230051404098047,-0.43230051404098047,0.9990284677458204,0.000687224984149261
-0.43106298604106996,-0.43106298604106996,0.9995508009103805,0.0006878396665816331
-0.42943049901150515,-0.42943049901150515,1.0003427652097479,0.0006811236735741669
-0.42819039310124934,-0.42819039310124934,0.9995428361642711,0.0006920863122576255
-0.42711111520038686,-0.42711111520038686,0.9994035410018107,0.0006972893268902031
-0.4257181048298662,-0.4257181048298662,0.9990175713693196,0.0006883695825855417
-0.42410173939570084,-0.42410173939570084,0.9992987316427604,0.0006870798380636362
-0.4229543258654303,-0.4229543258654303,0.9988110787410266,0.0006907878791927578
-0.421252661060862,-0.421252661060862,0.9998898546309023,0.000680252172618178
-0.4197342180130363,-0.4197342180130363,1.000038165142215,0.0006829824234540971
-0.4180933018142241,-0.4180933018142241,1.0006292368796914,0.0006947714941513119
-0.41704435259307504,-0.41704435259307504,1.0002388936921762,0.0006878576680837177
-0.4155678910043207,-0.4155678910043207,1.0002196085696438,0.00068848369215281
-0.4137113408673031,-0.4137113408673031,0.9995270707576299,0.0006920708793083494
-0.41287923361960566,-0.41287923361960566,0.9991426219024608,0.0006908000486373222
-0.4113767130926135,-0.4113767130926135,0.9984507556875691,0.0006882697914252215
-0.4099254653745447,-0.4099254653745447,0.9988375229594041,0.0006859234565744114
-0.4084844800941937,-0.4084844800941937,0.999620166264728,0.0006947410906580549
-0.40775435876348637,-0.40775435876348637,0.9999192844292228,0.0006877750052316208
-0.4069268325001758,-0.4069268325001758,0.9991938065214342,0.0006862166376887094
-0.40561459876334993,-0.40561459876334993,1.0002374984838738,0.0006947150905632731
-0.40353199816381674,-0.40353199816381674,1.0006804428381826,0.0006873791189682015
-0.40124228779168336,-0.40124228779168336,0.9984787196442007,0.0006821569459789265
-0.3994686668396753,-0.3994686668396753,0.9997170388382806,0.0006928561945799801
-0.39867880665842675,-0.39867880665842675,0.9999184583342391,0.0006917342275733063
-0.3977339628028858,-0.3977339628028858,0.9971587188230242,0.0006814578430842054
-0.39613478146493436,-0.39613478146493436,0.9991695112013849,0.0006874993686057458
-0.39473495393031044,-0.39473495393031044,0.9986514742918177,0.0006877603138740778
-0.3931404908442346,-0.3931404908442346,1.0006415358411451,0.000688709362814239
-0.39153787971808923,-0.39153787971808923,0.9972956704482885,0.0006828572400529099
-0.3896237041153654,-0.3896237041153654,0.999762377636469,0.0006931510911169184
-0.38819775778465554,-0.38819775778465554,0.999400511802121,0.000686075544172926
-0.38597324051224857,-0.38597324051224857,1.0003615962859527,0.0006866963349330373
-0.38448204892047216,-0.38448204892047216,0.9995800366654539,0.0006918922892945156
-0.3832276746921707,-0.3832276746921707,1.0006305576125356,0.0006850009956595729
-0.3804729256335122,-0.3804729256335122,0.9984750393268669,0.0006895518249838606
-0.37920836671910363,-0.37920836671910363,1.0001783378054334,0.0006850282916381842
-0.37785512098344043,-0.37785512098344043,0.9986738434920175,0.0006934826931835575
-0.3765707588012447,-0.3765707588012447,1.0008682048303181,0.0006935030119950708
-0.37562354570254686,-0.37562354570254686,0.9993748633796864,0.0006858642925867931
-0.37435785181078246,-0.37435785181078246,0.9997540019752155,0.0006892829881591218
-0.37290647049376274,-0.37290647049376274,0.999064086914974,0.0006825834174441692
-0.3706569194444455,-0.3706569194444455,0.9994659745592347,0.0006894762099673346
-0.36916090419254033,-0.36916090419254033,1.0009535271543528,0.000692632093693888
-0.36781981760213966,-0.36781981760213966,0.99968815544129,0.0006928702523310519
-0.36680751472667905,-0.36680751472667905,1.0004145209320208,0.0006926149063961472
-0.36607400850771227,-0.36607400850771227,0.9989869705451051,0.0006983755998338516
-0.36501528504886666,-0.36501528504886666,0.9986783952597109,0.0006876151842342764
-0.36411561212007654,-0.36411561212007654,0.9988761096781482,0.0006846077038281014
-0.3629056288111315,-0.3629056288111315,0.9996787307182405,0.0006868979190479901
-0.3616973233278259,-0.3616973233278259,1.000799441001655,0.0006926388205579564
-0.3604662813326286,-0.3604662813326286,0.9998630380277713,0.0006853458785444675
-0.3587329163012328,-0.3587329163012328,0.9988108068006746,0.0006887885284000723
-0.35749288429651643,-0.35749288429651643,0.9999185077906165,0.0006969454267132708
-0.35644816560597975,-0.35644816560597975,0.9999217551362577,0.0006993208693404717
-0.35571638985275056,-0.35571638985275056,1.0004231365567653,0.0006866865294596295
-0.3545480627370125,-0.3545480627370125,1.0000235683706291,0.0006891226716675105
-0.3531322736380389,-0.3531322736380389,0.9996086955674162,0.0006841844871366251
-0.35135461429599674,-0.35135461429599674,0.9997280006603206,0.0006856528450957966
-0.34995609820834944,-0.34995609820834944,0.9990818915534458,0.000687380686080394
-0.34919505794241557,-0.34919505794241557,0.9997052525653614,0.0006885927689810948
-0.3481353283423232,-0.3481353283423232,0.9997308420108386,0.0006862053445964214
-0.34716497548288316,-0.34716497548288316,0.9985343863478964,0.0006968923717683871
-0.3462511064426508,-0.3462511064426508,0.999836838020704,0.0006923243331283097
-0.3444896093540592,-0.3444896093540592,0.9997024733417476,0.0006829966711797731
-0.342025783558347,-0.342025783558347,0.9991366251796521,0.0006879383148039067
-0.34084265017081633,-0.34084265017081633,0.9992798575121776,0.0006874139531476029
-0.33955043383612066,-0.33955043383612066,0.9994927439227193,0.0006823287715942822
-0.3386403998658352,-0.3386403998658352,0.9994282913689331,0.0006882855806730155
-0.33740229577888387,-0.33740229577888387,0.9998469244462498,0.0006974249129250964
-0.33618922518726324,-0.33618922518726324,0.9983543420499144,0.0006811588103731442
-0.33478579082438953,-0.33478579082438953,0.9986898346536295,0.000688418999974257
-0.3331401143295807,-0.3331401143295807,0.9991481247112212,0.0006889781265555304
-0.3317528405910707,-0.3317528405910707,1.0001822899500223,0.00068801075092441
-0.3299227493087528,-0.3299227493087528,0.9998048138446489,0.0006784882825148841
-0.32874933339699053,-0.32874933339699053,1.0006697415936725,0.0006884656378231525
-0.327544763032347,-0.327544763032347,1.0004435432952774,0.0006947254757371422
-0.3262928460564581,-0.3262928460564581,1.0001720684690558,0.0006891973373955679
-0.3248630316469644,-0.3248630316469644,0.9992177304259029,0.0006895552532307496
-0.3235170332081907,-0.3235170332081907,1.0005890958577561,0.0006949928147318809
-0.3221317928742792,-0.3221317928742792,1.0003660449651632,0.0006862916277640276
-0.3199388576351339,-0.3199388576351339,0.9998327531873781,0.0006830161650658531
-0.318577846729022,-0.318577846729022,0.9993417239797848,0.0006929723949977362
-0.31779587594573966,-0.31779587594573966,0.9991506603220961,0.0006868278569228635
-0.31671644347370603,-0.31671644347370603,0.9994822130485851,0.0006869743017280099
-0.3154124955704901,-0.3154124955704901,0.9996056860254882,0.0006955545928191054
-0.3141716468715458,-0.3141716468715458,0.9999237614090497,0.0006881589474709762
-0.312024019403907,-0.312024019403907,0.9980352768824015,0.0006837833380114795
-0.30977022972292617,-0.30977022972292617,1.0004109787727211,0.0006885739360180984
-0.3085962674311304,-0.3085962674311304,0.9995069121994185,0.000692774053960892
-0.30767227045071194,-0.30767227045071194,1.0023697275638326,0.0006822837062093722
-0.3060728547701729,-0.3060728547701729,1.0000503997436099,0.0006874560769538902
-0.3048738534729637,-0.3048738534729637,0.9999125422986594,0.0006886004329540117
-0.3037570028071059,-0.3037570028071059,0.9993529319370928,0.000693211882441019
-0.30223686551762513,-0.30223686551762513,1.000226584118319,0.0006853219420752393
-0.3008102655883704,-0.3008102655883704,0.999541112982369,0.0006888506042912596
-0.29904703317952225,-0.29904703317952225,0.9992452651667435,0.0006875652340303781
-0.29725815755518853,-0.29725815755518853,0.9995237722072542,0.0006886653243649537
-0.2952207786074723,-0.2952207786074723,1.000527274044078,0.0006886566789868716
-0.2939770656172186,-0.2939770656172186,0.9994023221448167,0.0006886932128201946
-0.2923593068655464,-0.2923593068655464,1.0003569414255504,0.000685223735750841
-0.28967770028248196,-0.28967770028248196,1.0004860283570698,0.0006888310548182309
-0.2880725282338972,-0.2880725282338972,1.0008882383907727,0.0006932943224979231
-0.286857139669155,-0.286857139669155,0.9989977146907221,0.0006896781655993237
-0.2858582869499514,-0.2858582869499514,0.9999471321939064,0.0006888228555577062
-0.2845755890775763,-0.2845755890775763,0.9992287706433236,0.0006913880213063085
-0.28318772212296606,-0.28318772212296606,1.0005961264620944,0.0006849233816207106
-0.28096214089528077,-0.28096214089528077,1.0003800812520542,0.0006907389907321517
-0.27958691469830227,-0.27958691469830227,1.0001632325255676,0.0006862602334938978
-0.278077768215735,-0.278077768215735,0.9999210699324379,0.0006921036380736357
-0.27714357145669055,-0.27714357145669055,0.9992816939308444,0.0006972615287818358
-0.2760415706943604,-0.2760415706943604,0.9992470575146045,0.0006945550512387458
-0.27504772584870807,-0.27504772584870807,1.0003192406356853,0.0006823792731247841
-0.27405398334085473,-0.27405398334085473,1.001384592264595,0.0006848853560180533
-0.2730990245319845,-0.2730990245319845,0.9990308327825165,0.0006867171955040666
-0.27190907769909245,-0.27190907769909245,1.0005921920100156,0.0006926670298547225
-0.27082882188769875,-0.27082882188769875,1.0003198131573912,0.0006904185810953518
-0.2690271367740934,-0.2690271367740934,0.9992004994101649,0.0006887412024592319
-0.26791680432870635,-0.26791680432870635,0.9998648172526815,0.0006974881476118736
-0.2666742552515643,-0.2666742552515643,0.9997365825071569,0.0006897217246549414
-0.2660079955392575,-0.2660079955392575,0.9992291046751042,0.0006910267310876898
-0.26522660300324785,-0.26522660300324785,0.999993840737828,0.000686182803496451
-0.2639770501438761,-0.2639770501438761,0.9998497520514139,0.0006926445439177008
-0.2625129505759105,-0.2625129505759105,0.9998419905412413,0.0006908357949350714
-0.2604839482009993,-0.2604839482009993,1.0000679555701861,0.000686005591454416
-0.2592619862007268,-0.2592619862007268,0.9994626317731619,0.0006886413227604016
-0.25827760928441423,-0.25827760928441423,0.9996929888848524,0.0006899877213930997
-0.25697061082100847,-0.25697061082100847,1.0006473120501602,0.0006970432211023736
-0.25591797512897757,-0.25591797512897757,0.9992626246195219,0.0006883693798994845
-0.25349904376998894,-0.25349904376998894,0.9994987551347758,0.0006883134815355183
-0.2518651339385542,-0.2518651339385542,1.0005118183362085,0.0006865448541554999
-0.25075923961849184,-0.25075923961849184,0.999960281621394,0.0006857485314894628
-0.2494249812581984,-0.2494249812581984,0.9988183102161663,0.0006835952639105312
-0.247900810023566,-0.247900810023566,0.9993789096239076,0.00068987321309265
-0.2467221430699283,-0.2467221430699283,1.000512511605049,0.0006896994592353412
-0.2455384377775772,-0.2455384377775772,1.0001048482669659,0.0006873758593198143
-0.24397856131399748,-0.24397856131399748,1.0017619170636034,0.0006873859114201509
-0.24267229327451786,-0.24267229327451786,1.0000690171318602,0.0006885796374376263
-0.24093277366482652,-0.24093277366482652,0.9998989078814681,0.0006836545339955209
-0.23934814690001077,-0.23934814690001077,0.9991765290290289,0.0006831010854742118
-0.2383820745788398,-0.2383820745788398,0.9993170495410494,0.0006929968689925065
-0.23730592626743602,-0.23730592626743602,1.0006726191234123,0.0006914220715369178
-0.2359817883829237,-0.2359817883829237,0.9993654464154608,0.0006922253530447088
-0.2350753371050814,-0.2350753371050814,1.0003011409750582,0.0006915512566517536
-0.23348697065011947,-0.23348697065011947,1.0001488124251956,0.0006924338888967225
-0.23221104494368774,-0.23221104494368774,0.9999135989198121,0.0006817489338383183
-0.2306113061356882,-0.2306113061356882,1.0005941691108249,0.0006839207172352012
-0.22915667247070814,-0.22915667247070814,1.0001403882178133,0.0006908005800490038
-0.22800082908506739,-0.22800082908506739,1.000026159620362,0.0006928307392674142
-0.2271561508117884,-0.2271561508117884,1.0003284011753917,0.0006849349372362688
-0.22567750597809208,-0.22567750597809208,1.0003437344146202,0.0006938836556045416
-0.2242225421483454,-0.2242225421483454,0.9991283147054906,0.0006847569226550879
-0.2225917179515818,-0.2225917179515818,0.9999357529517235,0.0006933057734643563
-0.22106687669365782,-0.22106687669365782,0.9996438990000789,0.0006805380494181505
-0.2190978037258901,-0.2190978037258901,0.9999860815088386,0.0006945341599430405
-0.21818071508823778,-0.21818071508823778,1.0011973507363907,0.0006874555398902829
-0.21683172004850348,-0.21683172004850348,0.9998893122059052,0.0006834434425118604
-0.21484827993772343,-0.21484827993772343,0.9995403242297218,0.0006890968515419386
-0.21332868718382086,-0.21332868718382086,0.9986421090850464,0.0006895485169762727
-0.2119774464830698,-0.2119774464830698,0.999661494383834,0.0006869684790856248
-0.21037534580245848,-0.21037534580245848,0.9999909610841492,0.0006868236324000757
-0.2087381984325475,-0.2087381984325475,0.9999376584777611,0.0006876656909455242
-0.20721686725737526,-0.20721686725737526,0.9999446281415876,0.0006870903587692358
-0.2054559517528105,-0.2054559517528105,0.9994527895928952,0.0006858998489643005
-0.2043577071475738,-0.2043577071475738,0.9995149721875645,0.0006921193692901848
-0.20316160782749648,-0.20316160782749648,1.0002108173461626,0.0006842137128639044
-0.2011826579546323,-0.2011826579546323,1.0000687428024384,0.0006867727855928269
-0.19884402203315404,-0.19884402203315404,0.9996349295629742,0.0006872340821927289
-0.19716291733420804,-0.19716291733420804,0.9992905143272057,0.0006915041944022753
-0.196145082473231,-0.196145082473231,1.0000512667559767,0.000696808778634275
-0.19535816395218716,-0.19535816395218716,1.0007599899243336,0.0006889301788517179
-0.1942330986901652,-0.1942330986901652,1.0004063456058425,0.0006894242209487868
-0.19278387651356751,-0.19278387651356751,1.0011775761894146,0.0006828215864535834
-0.19065077842387837,-0.19065077842387837,1.0007907199608845,0.0006943627595930927
-0.18948933054052758,-0.18948933054052758,0.9989336823028108,0.0006862789116131959
-0.18769521074937073,-0.18769521074937073,1.0014391846173871,0.0006928592211738768
-0.18665616556390888,-0.18665616556390888,1.0003314546925979,0.0006944096932584969
-0.1854968969411857,-0.1854968969411857,0.9996528026448781,0.0006932853920556888
-0.18438932756471332,-0.18438932756471332,1.0000250694934087,0.0006848896108115599
-0.18337220910616453,-0.18337220910616453,1.0005940787743068,0.0006867180346847373
-0.18247664252921822,-0.18247664252921822,1.0002777964249543,0.0006895014668136725
-0.1813889920929796,-0.1813889920929796,1.0011724306414407,0.0006942565330191619
-0.18021553625148953,-0.18021553625148953,1.0000566457221098,0.0006861357686719406
-0.17826059274666478,-0.17826059274666478,1.0015798723665859,0.0006933948548027804
-0.1769661823702336,-0.1769661823702336,0.9999869311968613,0.0006939464202469352
-0.17608947315311524,-0.17608947315311524,0.9996336190636373,0.0006913951318109672
-0.1751907453224703,-0.1751907453224703,0.9992163151725817,0.0006909298348477764
-0.1741436819167575,-0.1741436819167575,0.9990140269494727,0.0006855583127261475
-0.17246139769122237,-0.17246139769122237,1.000056580112395,0.0006884098684710176
-0.1706146391145012,-0.1706146391145012,0.9993400335706581,0.0006859764575005542
-0.16932737449533306,-0.16932737449533306,1.0005906056855034,0.0006888458916634757
-0.16861270618173876,-0.16861270618173876,1.0000004912183678,0.000692588389093757
-0.16728353333164706,-0.16728353333164706,0.9994343970418413,0.0006942046079731091
-0.16631555720887264,-0.16631555720887264,0.9997207325291775,0.0006932756338085593
-0.16524301992612891,-0.16524301992612891,0.9997708330191099,0.0006882703777356372
