time,time,flux,flux_err
-0.4990895113842271,-0.4990895113842271,0.9998257556863793,0.00021542561967439252
-0.4970343153151286,-0.4970343153151286,0.9996940125159414,0.00021842407037947617
-0.49564267384751776,-0.49564267384751776,1.0002121416667134,0.0002161866545359768
-0.49345874131116335,-0.49345874131116335,0.9998220360804146,0.0002224778401778673
-0.49104381723882395,-0.49104381723882395,0.999773578288984,0.00019662331121687876
-0.48931905547797216,-0.48931905547797216,1.0001945593299226,0.00019908651071649138
-0.48805256112173084,-0.48805256112173084,1.0002431067624902,0.0001966567139813873
-0.486201119456382,-0.486201119456382,0.999543619896199,0.00019660899251799403
-0.4848496208251163,-0.4848496208251163,1.0002950154314387,0.00019666311040232075
-0.48224331830206213,-0.48224331830206213,1.0000377701972838,0.00019691994616249621
-0.4802805180341238,-0.4802805180341238,0.9998906616618919,0.0002012280014869403
-0.4781396423240949,-0.4781396423240949,0.999819826523822,0.00020150450915410603
-0.4765238517269609,-0.4765238517269609,1.0000805805600954,0.000205211101727273
-0.4737796982677537,-0.4737796982677537,1.000359025759796,0.00019664565789595488
-0.47177737305901246,-0.47177737305901246,0.9996757255642447,0.00019959189923497928
-0.4704863708473567,-0.4704863708473567,0.9997990745729902,0.00020482815706688041
-0.4688582421389583,-0.4688582421389583,0.9998340384621504,0.00020286426603890445
-0.4675218031006807,-0.4675218031006807,1.0002256642119889,0.00020341940033883656
-0.46614113465911944,-0.46614113465911944,0.9998796643474929,0.0001966077935070924
-0.46313540096743966,-0.46313540096743966,1.0002495329276093,0.00019698620566283
-0.4609459900530055,-0.4609459900530055,0.9999141670284051,0.00019662756181318717
-0.45952304381644354,-0.45952304381644354,0.9997591529786929,0.00019773289388640754
-0.45714117986353814,-0.45714117986353814,1.0001264413023319,0.00019666587191362545
-0.45522137825246317,-0.45522137825246317,0.9999816705916963,0.0001966599215812126
-0.4535124120586261,-0.4535124120586261,1.000153247335792,0.0001966700586183956
-0.45122741919622056,-0.45122741919622056,0.9999344642960211,0.0001966553391588354
-0.449347468335327,-0.449347468335327,0.9999163581067453,0.0002038817118767249
-0.44839027620328126,-0.44839027620328126,1.0004530446356648,0.00019664346133761035
-0.44705041669949425,-0.44705041669949425,0.999844701901939,0.00019704073465639233
-0.44417503637596384,-0.44417503637596384,0.9997908888134923,0.00019664359323557086
-0.44230156910343793,-0.44230156910343793,0.9997720592737733,0.0001978084725742151
-0.4396979146040394,-0.4396979146040394,1.0001547000525342,0.00019677988623076174
-0.438285544282553,-0.438285544282553,1.0000434717175672,0.00020499377901652218
-0.4364968200716248,-0.4364968200716248,0.9999855707406976,0.00019666991314752088
-0.43436744183272824,-0.43436744183272824,0.9998048951460362,0.00019952656987745274
-0.4324989142223785,-0.4324989142223785,0.9999883220280001,0.00019740198075522108
-0.4306658256369701,-0.4306658256369701,1.0000871053971891,0.0001966612186867357
-0.42899594602859,-0.42899594602859,0.9997922850339117,0.00019660819138458607
-0.4256746109182131,-0.4256746109182131,0.9997462966200196,0.00019665501110210267
-0.42388038476419754,-0.42388038476419754,1.000006441034923,0.000197979737514121
-0.42211563803211904,-0.42211563803211904,0.9997086991331872,0.00019660563993248
-0.4209431172697805,-0.4209431172697805,0.9999863819696143,0.00019660184593226905
-0.4195742786541814,-0.4195742786541814,0.9998674689450044,0.00020426285817999834
-0.4173096940161486,-0.4173096940161486,0.9999756421161399,0.00019663899036982362
-0.4148961768434674,-0.4148961768434674,0.9996097345291162,0.00019665318461226425
-0.41340608466853157,-0.41340608466853157,0.9999647975072408,0.0001965928450567827
-0.41214605184213726,-0.41214605184213726,1.0001690869233157,0.00019664463625611558
-0.4104829594900366,-0.4104829594900366,0.9999775938718592,0.00019659839360890407
-0.4072906429239083,-0.4072906429239083,0.9996764561641251,0.00019817762585490703
-0.404971742714406,-0.404971742714406,1.0000675150005793,0.00019663070991913766
-0.4035959519293101,-0.4035959519293101,1.0000609264623148,0.00019665891574228625
-0.40277848073164935,-0.40277848073164935,0.9999519163041869,0.00019660997523252515
-0.40190882128299565,-0.40190882128299565,1.0000659713241444,0.00020218691196098254
-0.4000791475722508,-0.4000791475722508,1.000196967800402,0.00019665512949362075
-0.39806928412945125,-0.39806928412945125,0.9998155283116784,0.00019667538513558672
-0.3964750816710875,-0.3964750816710875,1.0000691973503648,0.00019665019529748192
-0.3946771819602873,-0.3946771819602873,0.9995648774586284,0.00019742268499522688
-0.3934038928899099,-0.3934038928899099,0.9999717589412664,0.00019662332525641007
-0.3910506884829374,-0.3910506884829374,0.9998634730736754,0.00020440603379582892
-0.38916539649580956,-0.38916539649580956,0.9999450328969441,0.00019665053406735293
-0.38751569817541165,-0.38751569817541165,0.9998810597054693,0.00019909723521278232
-0.3864305282550049,-0.3864305282550049,0.9998843969673306,0.00019664043667281
-0.3847527095087571,-0.3847527095087571,0.9998649601165062,0.0001966277788273319
-0.38367792213030044,-0.38367792213030044,1.0000744479082546,0.0001966381726410487
-0.38090134266894893,-0.38090134266894893,0.9996547874894335,0.00019689708519595575
-0.3790243954892503,-0.3790243954892503,0.9998337388331606,0.00020133317307053467
-0.37636990746905213,-0.37636990746905213,1.0001162603790865,0.00019761326802785338
-0.374682635624049,-0.374682635624049,0.9997575493620088,0.0002084948518867611
-0.3719769242197799,-0.3719769242197799,0.9999209156585076,0.00019660579354562865
-0.36997420280167714,-0.36997420280167714,0.9999312785386992,0.00019967273627865862
-0.3684921368345385,-0.3684921368345385,0.999921583513123,0.0001966440620974425
-0.36634432699065655,-0.36634432699065655,1.0000055153111085,0.00020341292357141432
-0.36533282470481937,-0.36533282470481937,0.999894301633496,0.00019665078848007546
-0.3631119805657363,-0.3631119805657363,1.000198362745304,0.00019698934246432427
-0.3600419709335256,-0.3600419709335256,0.9999803377832471,0.00020064545020448093
-0.3583870567315898,-0.3583870567315898,0.9999517530579171,0.00019663571279682912
-0.35770584788551785,-0.35770584788551785,1.0000266514289544,0.00019778792038042551
-0.35511606680302066,-0.35511606680302066,0.9997802847397963,0.0001966761391580251
-0.35341870851043494,-0.35341870851043494,1.000033262122645,0.00019666085177654473
-0.351995910993719,-0.351995910993719,1.0002699870406004,0.00020495666514679594
-0.34897518965372,-0.34897518965372,1.0000217484012068,0.00020396629261597662
-0.34684848330216483,-0.34684848330216483,0.9999498384234101,0.00019660515587540056
-0.34484416303093895,-0.34484416303093895,1.0001137585083784,0.00019704862658788055
-0.34192744377214696,-0.34192744377214696,0.9997728027169893,0.00019665039648447845
-0.3403212585770234,-0.3403212585770234,0.9999655343451253,0.00019783382742245064
-0.33877629453418195,-0.33877629453418195,0.9997964470668907,0.0001966208271096042
-0.337307362005231,-0.337307362005231,0.9998828412517498,0.00019675573775658194
-0.3361598894443887,-0.3361598894443887,1.0001479852521267,0.00020489057379611668
-0.334245523919526,-0.334245523919526,1.000006930513622,0.00019667557334655198
-0.33211386449474956,-0.33211386449474956,0.9999642345677657,0.0001995793937330537
-0.3303199665642751,-0.3303199665642751,0.9997364757500303,0.00019739825587570175
-0.32883285650532346,-0.32883285650532346,0.9999853238342057,0.00019664199174357003
-0.32719350593033597,-0.32719350593033597,1.0000191129249103,0.00019663296144239675
-0.3238718202112068,-0.3238718202112068,0.9999315511336742,0.00019665707259232547
-0.32232080402827706,-0.32232080402827706,0.9996859783167056,0.00020428020859976064
-0.3204598448901379,-0.3204598448901379,1.0004065682389445,0.00019667094522269192
-0.31914049913320924,-0.31914049913320924,1.0000512201289764,0.00019659928913000617
-0.3177011918181961,-0.3177011918181961,0.9998026267273333,0.00020422177830826168
-0.3153998120185861,-0.3153998120185861,1.0000028220274297,0.00019664463050064092
-0.31357187446337775,-0.31357187446337775,1.0000350611120261,0.00019667495383403458
-0.3120914579485543,-0.3120914579485543,0.9999555593356826,0.0001965840865089449
-0.31091503961142736,-0.31091503961142736,0.9996947939096765,0.0001966229984194003
-0.3094342336822592,-0.3094342336822592,0.9996768902224193,0.00019660103151675763
-0.3075977374937793,-0.3075977374937793,0.9999291494403266,0.00019657897754619247
-0.3042242845382134,-0.3042242845382134,1.000163617683573,0.000198257949690143
-0.3024757515391684,-0.3024757515391684,1.0001388922729804,0.00019664440019384835
-0.30150596425010007,-0.30150596425010007,0.9997551859792555,0.0001966022465042194
-0.30055407937106793,-0.30055407937106793,0.999937952842048,0.00019665582372105687
-0.29950078880356157,-0.29950078880356157,1.0000235068008583,0.00020225769724884968
-0.2968631104464293,-0.2968631104464293,0.9998661283244246,0.00019664973805069933
-0.2950074940381455,-0.2950074940381455,1.000134821106166,0.0001966572081397866
-0.29317437182107825,-0.29317437182107825,0.9997565451773905,0.00019657401888207893
-0.2914213303833094,-0.2914213303833094,1.0001177441036997,0.00019750961318240465
-0.28868727282388135,-0.28868727282388135,0.9998988858405239,0.00020446120667927744
-0.2863788811504492,-0.2863788811504492,1.0001118675621081,0.00019863218033113343
-0.28543895854236323,-0.28543895854236323,1.0004566180229806,0.0001972557527597291
-0.28458932686262417,-0.28458932686262417,0.9999142010836625,0.00019660862360716477
-0.2832981601655774,-0.2832981601655774,0.9998555503284988,0.0001966632914570398
-0.2814789261487022,-0.2814789261487022,0.9999096033362992,0.0001966520989480444
-0.278864030035038,-0.278864030035038,0.999906283994292,0.00019690753892803942
-0.2775544320677,-0.2775544320677,1.0001615003946118,0.00020145479199987296
-0.2750753026273742,-0.2750753026273742,0.9998439732567682,0.00019757489693144947
-0.27336681653250705,-0.27336681653250705,0.9997272637415303,0.0002085364413925639
-0.27051937178039226,-0.27051937178039226,0.9997655230361164,0.00019665151510240615
-0.26840050013852307,-0.26840050013852307,1.0000880250029938,0.0001991052035773982
-0.26669156235220726,-0.26669156235220726,1.0000632613474167,0.00019728951797475785
-0.26489423381499366,-0.26489423381499366,1.00004542327376,0.00019664428683956436
-0.2636513875106175,-0.2636513875106175,0.9996995949685296,0.0002034794422326638
-0.26244565736851655,-0.26244565736851655,1.00020493215616,0.00019659872285046224
-0.2590652875158412,-0.2590652875158412,1.0000948276492654,0.00019700653697807407
-0.2569941086359904,-0.2569941086359904,0.9994141035281772,0.00019657561491407105
-0.2555740654031979,-0.2555740654031979,1.0001230266617236,0.00019775052301863506
-0.2527618941654509,-0.2527618941654509,1.0000024919111348,0.00019671989936286327
-0.25126005297934173,-0.25126005297934173,0.9999258038040619,0.0002049467749170419
-0.24990536160185,-0.24990536160185,0.9998893055007974,0.00019666812309433122
-0.2460930555484083,-0.2460930555484083,1.0000157972219945,0.00019666401633920103
-0.24364553635095945,-0.24364553635095945,1.0000762870469733,0.00020071744591510806
-0.24035600671559224,-0.24035600671559224,0.9997454990256655,0.000196645055033079
-0.2384197185609082,-0.2384197185609082,1.0001679104361263,0.00019787057771266536
-0.23609212102455784,-0.23609212102455784,1.0000462157265364,0.00019677393905473737
-0.23474631248900552,-0.23474631248900552,1.0001269517767404,0.00020482513392392068
-0.23265605141859852,-0.23265605141859852,0.9998976923780111,0.00019666434382960518
-0.2308735477607115,-0.2308735477607115,0.9999749135621883,0.00019709840539871323
-0.22952042590331984,-0.22952042590331984,1.0000890713374921,0.00020763803185909415
-0.228233496833127,-0.228233496833127,0.9999749391229583,0.00019664131220142373
-0.22690299957394017,-0.22690299957394017,0.9999759816816969,0.0001966460489009324
-0.2257574249364552,-0.2257574249364552,1.000182747864761,0.0001966422549278932
-0.22419634268808294,-0.22419634268808294,0.9997871523907254,0.00019659345006936747
-0.22227379697942523,-0.22227379697942523,1.0000605673419087,0.000196660910718255
-0.22060078538561356,-0.22060078538561356,0.9999996246014078,0.00020436004828347135
-0.2189542858475761,-0.2189542858475761,1.0001253521942235,0.00019664449270712686
-0.21755931526931818,-0.21755931526931818,1.0000242362454275,0.000196607855445894
-0.21627070066315354,-0.21627070066315354,0.9998346305374384,0.000196619450166081
-0.2137032109676511,-0.2137032109676511,1.0000828690453007,0.00019663529154593842
-0.21173245563040838,-0.21173245563040838,0.9998388897381579,0.00019668974626700785
-0.21004326481197494,-0.21004326481197494,1.0001011094941246,0.0001966007931874769
-0.2088702589753666,-0.2088702589753666,1.0000801136115995,0.00019663589678005664
-0.2072601215033501,-0.2072601215033501,1.000229037448816,0.00019663480452029343
-0.20437818171922117,-0.20437818171922117,0.9997800420305607,0.000196620114865521
-0.20177464481894275,-0.20177464481894275,0.9999977353032179,0.00019826192767435062
-0.2002716136033996,-0.2002716136033996,0.999948257151822,0.00019663234961853006
-0.19953259546964547,-0.19953259546964547,1.0002156248283753,0.0001966256936021062
-0.19860600095416886,-0.19860600095416886,0.9998862266061597,0.0001966316892342545
-0.19793971598992358,-0.19793971598992358,0.9998776800036666,0.00020234489515304563
-0.19516248324216576,-0.19516248324216576,0.999854337134656,0.00019662507820049374
-0.19335849231720204,-0.19335849231720204,0.99990074373931,0.00019668204589672896
-0.19079260368307588,-0.19079260368307588,1.0000058400693863,0.0001974708725568658
-0.18882828367641197,-0.18882828367641197,0.9998494380126932,0.00019663230636023308
-0.1861768228642177,-0.1861768228642177,1.0002194207178348,0.00020454620839198564
-0.1841639424128516,-0.1841639424128516,1.0000805276727682,0.00019863265218488408
-0.18359597061862587,-0.18359597061862587,0.9996689941287485,0.0001972091430888088
-0.1821858735056594,-0.1821858735056594,0.9998744647685521,0.00019664232554471292
-0.1804977875406621,-0.1804977875406621,0.9998809825084614,0.0001966339436254375
-0.17790038900857325,-0.17790038900857325,0.9997270226041227,0.00019692138280536596
-0.17507997154898475,-0.17507997154898475,1.000068008061111,0.0001966393499298101
-0.1727648820007744,-0.1727648820007744,0.999953174496239,0.00019763839063929926
-0.17138186231823055,-0.17138186231823055,0.9999620198431586,0.00020860591612766383
-0.169743832131644,-0.169743832131644,1.0001976619422537,0.00019667015083048842
-0.16775671399518616,-0.16775671399518616,1.0000562418057093,0.0001966347338512589
-0.1662049972823297,-0.1662049972823297,0.9999928329165346,0.00019984242281759646
-0.16392902639636303,-0.16392902639636303,0.9997652992123415,0.000196630349141482
-0.16223978258130956,-0.16223978258130956,0.9999551170363453,0.0002035059460389369
-0.16100890158268158,-0.16100890158268158,0.9998715589631736,0.00019657884136900484
-0.15890437787675182,-0.15890437787675182,0.9998244650659173,0.00019699814736817448
-0.1562088531718473,-0.1562088531718473,0.9996500081579585,0.00019662216425096458
-0.15489001731621102,-0.15489001731621102,1.000358817087161,0.00020157093823583173
-0.15317548287130195,-0.15317548287130195,1.000193136459577,0.0001978870742791467
-0.1505229059846897,-0.1505229059846897,0.9998781084186478,0.00019660701652603427
-0.14912671761558158,-0.14912671761558158,1.0001508854166463,0.00020501181501721174
-0.14756626642047194,-0.14756626642047194,0.9996200942143159,0.00019662725596828417
-0.14434533357198234,-0.14434533357198234,0.9996640473325584,0.00019663715427567415
-0.14270851529654466,-0.14270851529654466,1.000049171102246,0.00019663397333276322
-0.13939953648732625,-0.13939953648732625,1.0000643135376812,0.0001966671114996656
-0.1366761913173832,-0.1366761913173832,1.0001360809815913,0.0001978693327161219
-0.13443321037848363,-0.13443321037848363,0.9998879090359468,0.0001967853572039074
-0.13324499880036456,-0.13324499880036456,0.9998790532504614,0.00020472908936032723
-0.13172559312515658,-0.13172559312515658,0.9998836426668053,0.00019663461580085107
-0.12960256223959732,-0.12960256223959732,0.9997986039412872,0.00020081264709666374
-0.12751622746363864,-0.12751622746363864,0.9998919784551168,0.00019969400635741377
-0.12583799500425813,-0.12583799500425813,1.0000108142203032,0.00019663035876528885
-0.12447415196584188,-0.12447415196584188,0.99989783477373,0.00019661078179466544
-0.12310253620889852,-0.12310253620889852,1.0003141031007565,0.00019665489803799384
-0.12085016100245412,-0.12085016100245412,1.0000571396663256,0.0001966546916344283
-0.11949136357288807,-0.11949136357288807,1.000170340416158,0.00019788528415748435
-0.11800885973207187,-0.11800885973207187,1.000226921163709,0.0001980723845381146
-0.1162585219637549,-0.1162585219637549,0.9998599625805685,0.00019660648160201122
-0.11539220663908054,-0.11539220663908054,1.0001348813026003,0.00020307393239452158
-0.11421036860338063,-0.11421036860338063,1.0000268692300514,0.00019665083987544028
-0.11183831684029429,-0.11183831684029429,0.9999925651245836,0.00019663791008955265
-0.10971017998599564,-0.10971017998599564,1.0002761883045228,0.00019669688967835687
-0.10799941233199206,-0.10799941233199206,1.000076912819792,0.0001966120175733182
-0.10673771522197058,-0.10673771522197058,0.9999969249797077,0.00019662316282783855
-0.10490466943228967,-0.10490466943228967,0.9998005290962333,0.00019662405399465348
-0.10206210962714976,-0.10206210962714976,0.9999540571224621,0.00020410926586084246
-0.09997084625574644,-0.09997084625574644,0.9997862686911911,0.00019828288057025732
-0.09846879777032883,-0.09846879777032883,1.0000258465251588,0.00019664799054051153
-0.09772993064616457,-0.09772993064616457,1.0001915670817643,0.00019662122162022503
-0.0968032544849848,-0.0968032544849848,0.9999584369119747,0.00019662376428136513
-0.09589427216706099,-0.09589427216706099,1.00017925140333,0.00020246110117189253
-0.09289934548578457,-0.09289934548578457,1.0001840469179284,0.0001966624240267824
-0.09155661330951262,-0.09155661330951262,1.000060058718978,0.00019665336093425766
-0.0893830116096069,-0.0893830116096069,1.0002288360042582,0.00019752723662573614
-0.08769789258876699,-0.08769789258876699,1.000019133440865,0.00019659665440970863
-0.08494937709037913,-0.08494937709037913,1.0005145293411042,0.00020462537932144941
-0.0824223183633876,-0.0824223183633876,0.9998813956277136,0.00019928531809619777
-0.08132249697009683,-0.08132249697009683,1.0001198723520008,0.00019663749468532923
-0.07969289031461813,-0.07969289031461813,0.9999582601621715,0.0001966635064149592
-0.07830873517523287,-0.07830873517523287,0.999857129359748,0.00019663771847644026
-0.07549245687478105,-0.07549245687478105,1.000109410283381,0.00019846247893496785
-0.07314254587327014,-0.07314254587327014,0.9999973576122866,0.00019659936065911265
-0.07085873532050754,-0.07085873532050754,0.9999859519805809,0.00019764274984624555
-0.06957185762585141,-0.06957185762585141,1.0001053371927227,0.000205208463910904
-0.06774790222771117,-0.06774790222771117,1.0000055615256125,0.00019667736507031106
-0.06604753431674908,-0.06604753431674908,1.00005937106887,0.00019664933590351404
-0.0647542462553247,-0.0647542462553247,1.0001059062069928,0.00019923456469281704
-0.06278016044379911,-0.06278016044379911,1.0001704078779812,0.00019733778122573938
-0.060436616416700416,-0.060436616416700416,0.9999492796413337,0.00020355727574479445
-0.059206238943443165,-0.059206238943443165,1.0000683570696256,0.00019659645104678185
-0.05683687985510914,-0.05683687985510914,0.9999308489174024,0.0001969751401010791
-0.053870599765650694,-0.053870599765650694,1.0002006647330735,0.00020164179083038123
-0.0528180043795146,-0.0528180043795146,1.0000067387884295,0.0001977911630815911
-0.05021092093447806,-0.05021092093447806,1.0000572181004526,0.00019673883107166639
