time,time,flux,flux_err
-0.4991315860461327,-0.4991315860461327,0.9999601442978353,0.00010596650227521185
-0.49824970215559006,-0.49824970215559006,0.9999708413826444,0.00010937885374382928
-0.49724426677130396,-0.49724426677130396,0.999887845591022,9.654044714197067e-05
-0.4965515662392136,-0.4965515662392136,0.9998615998223104,9.608279566203313e-05
-0.49571657975611744,-0.49571657975611744,0.9998882446426348,9.629942394532125e-05
-0.4953672146890312,-0.4953672146890312,0.9999945598220797,9.60793787603675e-05
-0.4950355045410106,-0.4950355045410106,1.0001131235507377,9.675122078131263e-05
-0.49453387519170067,-0.49453387519170067,1.0001806238394417,9.600055954256982e-05
-0.4939672012813389,-0.4939672012813389,1.000035704684505,0.00010120560519624917
-0.4933289664782933,-0.4933289664782933,1.000118067009438,9.624362763511359e-05
-0.49247268391627586,-0.49247268391627586,1.000113355647063,9.645356288979313e-05
-0.4913163971737958,-0.4913163971737958,0.9999892002847577,9.705913336902834e-05
-0.49050631391437494,-0.49050631391437494,1.000079142385237,9.64235955247003e-05
-0.48942925828450823,-0.48942925828450823,1.0000116658903113,9.691638686524155e-05
-0.48897189715644346,-0.48897189715644346,0.9999629789517945,9.680127468977702e-05
-0.48812305200990525,-0.48812305200990525,0.9999674089335722,9.612176561656975e-05
-0.4872051803031354,-0.4872051803031354,1.000170560170988,9.636643572100723e-05
-0.48625899731559913,-0.48625899731559913,0.9999565655950408,9.888057199310403e-05
-0.48524322757293703,-0.48524322757293703,1.0000247905659176,9.695084300669501e-05
-0.484115319979901,-0.484115319979901,1.000077770869207,9.639814593277163e-05
-0.4830273598810891,-0.4830273598810891,1.0000114596852039,9.66679761223943e-05
-0.4826247627759585,-0.4826247627759585,1.0000289166229939,9.749486267449447e-05
-0.4813781052565901,-0.4813781052565901,0.9998751033215638,9.65894904292573e-05
-0.4806598586641485,-0.4806598586641485,0.9999307432863673,9.635824446656346e-05
-0.47988090383732923,-0.47988090383732923,1.0000581473381989,9.639507045853732e-05
-0.47939923469093626,-0.47939923469093626,0.9999755650240623,9.630161011582391e-05
-0.4790408065338852,-0.4790408065338852,1.0000443448608962,9.631548448025344e-05
-0.478341105360596,-0.478341105360596,0.9999416691863384,9.65008442836406e-05
-0.47738296440948036,-0.47738296440948036,0.9999559551839263,9.635478677511711e-05
-0.47706185326824196,-0.47706185326824196,0.9999595159549285,9.687035246514996e-05
-0.47664118579705245,-0.47664118579705245,1.0000393864214667,9.641088745505072e-05
-0.47568827241630063,-0.47568827241630063,0.9999393116830009,9.699137041617646e-05
-0.4750737607901101,-0.4750737607901101,0.9999581870492495,9.710304888495375e-05
-0.4747252524655778,-0.4747252524655778,0.9998614886448054,9.606011940318226e-05
-0.47350911034300225,-0.47350911034300225,0.9999200978902024,9.742978741183077e-05
-0.47306729960109806,-0.47306729960109806,1.0000794470734466,9.669041089343223e-05
-0.4724971843534149,-0.4724971843534149,1.0001028819502604,9.657689061200236e-05
-0.4714969654509332,-0.4714969654509332,1.0000306397212586,9.607832739205887e-05
-0.47104842317203294,-0.47104842317203294,1.000100004263921,9.665256621476465e-05
-0.469753180508269,-0.469753180508269,0.9999403678864439,9.667293293250627e-05
-0.46908638040040385,-0.46908638040040385,1.0000370310620945,9.637177527777461e-05
-0.46816162796167193,-0.46816162796167193,0.999908902517696,9.694824176194012e-05
-0.4672654111054726,-0.4672654111054726,1.0000572686498996,9.66379599212179e-05
-0.46697455191315385,-0.46697455191315385,1.000289739937263,9.641524051597841e-05
-0.4664436462597223,-0.4664436462597223,1.000046627491109,9.60788754731439e-05
-0.4656536758920993,-0.4656536758920993,1.0000952163776047,9.61357468864431e-05
-0.46512571760249555,-0.46512571760249555,0.999962338099715,9.652559620219943e-05
-0.4642716508707963,-0.4642716508707963,0.9999069984427477,9.619873416934088e-05
-0.46341038227692477,-0.46341038227692477,1.0000297964605651,9.637828414007068e-05
-0.46282925316190815,-0.46282925316190815,1.0000250248191096,9.669492594232297e-05
-0.46192288135789566,-0.46192288135789566,0.9999267327852192,0.00010017534766248975
-0.4614930149866268,-0.4614930149866268,1.000057838573572,9.746197610700936e-05
-0.4610565014925669,-0.4610565014925669,1.000046662003676,9.651022520293305e-05
-0.4602641982681234,-0.4602641982681234,1.0000228257735972,9.637917463174482e-05
-0.4592878613693756,-0.4592878613693756,0.9999561758099558,9.679573469599473e-05
-0.45848770619486456,-0.45848770619486456,1.0000737214232065,9.608481849136862e-05
-0.45731792120204773,-0.45731792120204773,1.0001959492470227,9.69361441097413e-05
-0.45634334214410044,-0.45634334214410044,0.9999412892342606,9.9026624127177e-05
-0.4554278525916743,-0.4554278525916743,1.0001269033881233,9.702001192330703e-05
-0.4549116906026029,-0.4549116906026029,0.9999558626309785,9.635319904467436e-05
-0.45398175448644906,-0.45398175448644906,1.0000409732380817,9.613221950414137e-05
-0.4529349131451454,-0.4529349131451454,1.000011473498984,9.666539544231375e-05
-0.4520982112371712,-0.4520982112371712,1.0000205971176672,9.547184431034829e-05
-0.45123649468005167,-0.45123649468005167,0.9998541424644231,0.00010096222406062623
-0.4507434247221681,-0.4507434247221681,1.0001081483691328,9.69688134864151e-05
-0.45011499655083753,-0.45011499655083753,1.0000544504306814,9.804141771425432e-05
-0.4493203086851281,-0.4493203086851281,1.0000628539014482,9.671858594075344e-05
-0.4481564671281376,-0.4481564671281376,1.0000925017498576,9.60694027797248e-05
-0.4473613876645686,-0.4473613876645686,0.999885905333277,9.590365206788364e-05
-0.446531975682592,-0.446531975682592,0.9999066946919013,9.999160485652761e-05
-0.4457675037760055,-0.4457675037760055,1.0000317053919126,9.673737093239648e-05
-0.44517865054804134,-0.44517865054804134,1.0001046650294618,9.713221346162537e-05
-0.4444767183391377,-0.4444767183391377,1.0001000263779942,9.651645784767868e-05
-0.443514019549184,-0.443514019549184,0.9999888058753228,9.671568755066274e-05
-0.4426826084250933,-0.4426826084250933,1.0000324782654453,9.608767728448143e-05
-0.44158457255107353,-0.44158457255107353,1.0001083158999555,9.705919468612481e-05
-0.44019415334623774,-0.44019415334623774,0.9999207363889075,9.604877067013391e-05
-0.43913596281054196,-0.43913596281054196,1.0000412917396275,9.636881473604928e-05
-0.43854994317953244,-0.43854994317953244,0.9998891477628671,9.636267968433851e-05
-0.43747210573637857,-0.43747210573637857,1.0000428704492388,9.643449161004077e-05
-0.43643683620757656,-0.43643683620757656,1.0000172027769938,9.638729851159707e-05
-0.4355551518732682,-0.4355551518732682,0.9999219822930551,9.61477660625568e-05
-0.43504072519863257,-0.43504072519863257,1.0001370963927054,9.678201154134864e-05
-0.43461256561568007,-0.43461256561568007,0.9999773655897688,9.648149312698998e-05
-0.4335917369637173,-0.4335917369637173,1.0000359841987696,9.687156972387764e-05
-0.4329553974530427,-0.4329553974530427,0.9999156331024764,9.665998161380962e-05
-0.43193145207042105,-0.43193145207042105,0.9999986264037762,9.610935227018368e-05
-0.43132292613736356,-0.43132292613736356,1.0000254327963283,9.698040356910604e-05
-0.43033720601524694,-0.43033720601524694,1.00004899879817,9.660994605245516e-05
-0.4297624548242311,-0.4297624548242311,0.9999861923807682,9.576717761900531e-05
-0.42929474327975187,-0.42929474327975187,0.9999338933408726,9.653417685236223e-05
-0.4286336595163448,-0.4286336595163448,0.9999944254449709,9.695917680979477e-05
-0.42776376007241196,-0.42776376007241196,1.000007107558599,9.632539755282257e-05
-0.4271195787587203,-0.4271195787587203,1.0000808353324926,9.645393134511806e-05
-0.42592247045831755,-0.42592247045831755,1.000092375438274,9.693322379239228e-05
-0.42498280536965466,-0.42498280536965466,0.9999486815772828,9.645772381594201e-05
-0.4237956251046853,-0.4237956251046853,1.000011840075198,9.796500353883287e-05
-0.42293559427926086,-0.42293559427926086,0.9999322746999747,9.694973130711583e-05
-0.4219652116895304,-0.4219652116895304,1.0000226168776503,9.581890607888528e-05
-0.4210357408999698,-0.4210357408999698,1.0000938158956152,9.859700302104846e-05
-0.42011680557479847,-0.42011680557479847,1.0000540255222765,9.615069334730377e-05
-0.41921169512934287,-0.41921169512934287,0.9999117395704678,9.670312267814383e-05
-0.41885958607599605,-0.41885958607599605,1.0001282452869558,9.643549194810112e-05
-0.4176348641543882,-0.4176348641543882,1.000121927956069,9.609980443415406e-05
-0.41693881540268196,-0.41693881540268196,1.0000773940876475,9.63791742382832e-05
-0.41536241511785194,-0.41536241511785194,0.999839013467553,9.625827349117971e-05
-0.4146139468430192,-0.4146139468430192,1.000113953136191,9.60734795375647e-05
-0.41383925127156546,-0.41383925127156546,0.9999357938163195,9.598973470111785e-05
-0.41338823296391636,-0.41338823296391636,0.9999810257183903,9.68814322616844e-05
-0.41288230959762584,-0.41288230959762584,0.9998862291614422,9.64002832442026e-05
-0.4123142744298093,-0.4123142744298093,1.0000922608457745,0.0001007919930467708
-0.41152574987063417,-0.41152574987063417,1.0000275716784501,9.634138610836425e-05
-0.41121037458215143,-0.41121037458215143,0.9999523135857243,9.659248030302743e-05
-0.4102985130652087,-0.4102985130652087,0.9999685633490959,9.638707526206725e-05
-0.40949352963798447,-0.40949352963798447,0.9999071311578882,9.738268546068543e-05
-0.40887925796268976,-0.40887925796268976,1.0000336303048913,9.607565360205517e-05
-0.4078122113045538,-0.4078122113045538,0.9999300617285003,9.664408774621475e-05
-0.40727215518272714,-0.40727215518272714,1.0000353632717651,9.688163480707367e-05
-0.4069797120580915,-0.4069797120580915,1.0001137671355391,9.681729622988984e-05
-0.4059627066148096,-0.4059627066148096,0.9999888639242893,9.583011457267318e-05
-0.4053848302355618,-0.4053848302355618,0.9999145558404925,9.63688422333791e-05
-0.40459866963064994,-0.40459866963064994,1.0001697200226516,9.649327195840592e-05
-0.4034105664512026,-0.4034105664512026,0.9998019397540517,9.693428874628973e-05
-0.4025596447827411,-0.4025596447827411,0.9999394637265366,9.641021487916604e-05
-0.4013229887510533,-0.4013229887510533,0.99979667027016,9.654166332667161e-05
-0.4010226985803456,-0.4010226985803456,0.9999799985504991,9.683183790096111e-05
-0.40023384996311506,-0.40023384996311506,0.9998543516008924,9.6075289385373e-05
-0.3996128571030567,-0.3996128571030567,1.0000163033711842,9.659550919724027e-05
-0.3990958535840036,-0.3990958535840036,1.0000846554385914,9.607236538089532e-05
-0.3982728016766487,-0.3982728016766487,1.0000331159973959,9.63746607835551e-05
-0.3975355218484765,-0.3975355218484765,1.0001100169380164,9.635292904835818e-05
-0.3971592780770152,-0.3971592780770152,0.9998589918278181,9.677261096254289e-05
-0.39600397577305557,-0.39600397577305557,0.9999246181741739,9.703852790528503e-05
-0.3953939647166408,-0.3953939647166408,1.000081523956299,9.635118875089118e-05
-0.3951897060629562,-0.3951897060629562,0.9998936769389853,9.657108704830154e-05
-0.39462300688319374,-0.39462300688319374,1.0000586602221393,9.640460954303734e-05
-0.3935414236882934,-0.3935414236882934,0.9999786390535013,9.74021579300071e-05
-0.3928879114886513,-0.3928879114886513,0.9999561248411378,9.608365677719516e-05
-0.39167799892165933,-0.39167799892165933,1.0001353738227503,9.723690130446099e-05
-0.3912185528912232,-0.3912185528912232,0.9999778690222672,9.688380283453231e-05
-0.39057673257775605,-0.39057673257775605,0.9999319457042795,9.60585989285569e-05
-0.3895319913935964,-0.3895319913935964,0.9999929699766273,9.611318960134562e-05
-0.3888511068566004,-0.3888511068566004,0.9999425666300047,9.634467058675e-05
-0.3877373363065999,-0.3877373363065999,0.9997028259765705,9.642471626398372e-05
-0.38674700639530785,-0.38674700639530785,1.000043266715545,9.636149229915478e-05
-0.38545987035613505,-0.38545987035613505,1.0000161632325948,9.718817834269278e-05
-0.38515595516510076,-0.38515595516510076,0.9998766113183706,9.667556194340951e-05
-0.3845372053561732,-0.3845372053561732,1.0000556103443459,9.63688550232381e-05
-0.3837743242183933,-0.3837743242183933,1.0000746774495157,9.656357484316827e-05
-0.3830606392628397,-0.3830606392628397,1.000059838871459,9.637742141050811e-05
-0.38198537053685866,-0.38198537053685866,0.9998267232650566,9.579075217477436e-05
-0.3814547948597465,-0.3814547948597465,1.000133979861372,9.649802801426494e-05
-0.38108914756739976,-0.38108914756739976,0.999989462947793,9.670393651668453e-05
-0.3802120289692539,-0.3802120289692539,1.0001811502899416,0.00010055837148972991
-0.3798660506072338,-0.3798660506072338,1.0000114830056421,9.657192148355975e-05
-0.3793507414826308,-0.3793507414826308,1.0000420107927805,9.701362522677133e-05
-0.37882600237062436,-0.37882600237062436,0.9999912187824611,9.580113319394909e-05
-0.3779918408152298,-0.3779918408152298,1.0000541335663096,9.713908162720744e-05
-0.3771922758955043,-0.3771922758955043,1.0000527891587137,9.693578839327318e-05
-0.37664513517811427,-0.37664513517811427,0.9998744602432191,0.00010057097409943948
-0.3756850458754343,-0.3756850458754343,1.0001274999487473,9.680425210201482e-05
-0.3748012697818922,-0.3748012697818922,1.0000429927029948,9.604973216723407e-05
-0.373619266145397,-0.373619266145397,1.000024101028998,9.933305229120727e-05
-0.37287823319784363,-0.37287823319784363,1.0000393108109327,9.664685155692687e-05
-0.3719510561102652,-0.3719510561102652,1.0000221097171782,9.612590924620466e-05
-0.37069985689013263,-0.37069985689013263,0.999980854608647,9.636696451204046e-05
-0.3696044593816623,-0.3696044593816623,0.9999928047819486,9.644622792411665e-05
-0.36907938490912784,-0.36907938490912784,1.000003736751676,9.66834662689066e-05
-0.36826874700636836,-0.36826874700636836,0.9999081267768677,9.613222750047523e-05
-0.36748450079612666,-0.36748450079612666,0.9998611342583477,9.684695996882091e-05
-0.3666894689158653,-0.3666894689158653,0.9999626422725709,9.57316830384202e-05
-0.3656308352467022,-0.3656308352467022,0.9998516990744916,9.620025237115028e-05
-0.3649047063110629,-0.3649047063110629,0.999941627977283,9.697262082594647e-05
-0.3639325480588013,-0.3639325480588013,0.9999222453977433,9.670613127578818e-05
-0.3632682498195209,-0.3632682498195209,1.0000641733989037,9.726391922026094e-05
-0.3622514465387212,-0.3622514465387212,0.9999001735142123,9.605094212984615e-05
-0.3614862700778758,-0.3614862700778758,0.9998286417947957,9.672249516937827e-05
-0.3606200906287995,-0.3606200906287995,0.9999499158769876,9.636083460332175e-05
-0.35947739149414704,-0.35947739149414704,1.0000883732318244,9.686930768441643e-05
-0.35856393251160623,-0.35856393251160623,0.9998226024552291,9.575912239225902e-05
-0.35749907710705886,-0.35749907710705886,0.9999626800005647,9.633123332929971e-05
-0.35703726166684646,-0.35703726166684646,0.9998839395725426,9.69479717264735e-05
-0.35605619442794706,-0.35605619442794706,1.000006635837487,9.691303912654247e-05
-0.3553180198592599,-0.3553180198592599,1.0000174276834808,9.666803431337253e-05
-0.3539553685375722,-0.3539553685375722,0.9997599974592871,9.61704956894135e-05
-0.3532041324055172,-0.3532041324055172,1.0000540755147327,9.676842943353676e-05
-0.3526994316620403,-0.3526994316620403,0.999991898971383,9.647455128654067e-05
-0.3513231652439572,-0.3513231652439572,0.9999778264502168,9.666120256499297e-05
-0.3509120827700826,-0.3509120827700826,0.9999905962826426,9.60789953939037e-05
-0.35005803354579257,-0.35005803354579257,0.9998060633741657,9.63902248043768e-05
-0.3494165108902962,-0.3494165108902962,1.000035655983768,9.665864956218888e-05
-0.3485101450307411,-0.3485101450307411,0.9998820023068891,9.659743851987769e-05
-0.34791062328149563,-0.34791062328149563,1.0000680448537813,9.577653486588121e-05
-0.3474572462248034,-0.3474572462248034,1.0001424369533887,9.680975068526071e-05
-0.346988245229295,-0.346988245229295,0.999875092051521,9.641561309835894e-05
-0.3462747302139178,-0.3462747302139178,0.9998669398560477,0.00010044220791893645
-0.3456151872262126,-0.3456151872262126,0.999950223200651,9.642457951517753e-05
-0.34488933897082463,-0.34488933897082463,0.9998365002516308,9.607786542270628e-05
-0.3438175851377309,-0.3438175851377309,1.0000080035596357,9.735734621958173e-05
-0.34249464109598193,-0.34249464109598193,0.9999353825150404,9.837770809811227e-05
-0.34145006386970633,-0.34145006386970633,0.9999797130746991,9.637667831017618e-05
-0.34092137434054165,-0.34092137434054165,0.9999484332624654,9.652080551723574e-05
-0.3397711932761013,-0.3397711932761013,1.000084025232138,9.612502728403506e-05
-0.3388698400100111,-0.3388698400100111,0.9999975792596076,9.65018292667707e-05
-0.3376010294028674,-0.3376010294028674,1.0000253713658673,9.64572617332989e-05
-0.337070394094917,-0.337070394094917,0.9999002470008087,9.681262407564796e-05
-0.33593740149372026,-0.33593740149372026,0.9998418305965104,9.637508632960235e-05
-0.3351777404168388,-0.3351777404168388,0.9999808092657142,9.637150564690848e-05
-0.3341896487327176,-0.3341896487327176,1.0001290569134025,9.581929351440634e-05
-0.33335419758659557,-0.33335419758659557,0.9999065701562586,9.624577256772171e-05
-0.332172324610292,-0.332172324610292,1.0000570122650747,9.606462910197201e-05
-0.3316021153848851,-0.3316021153848851,1.000081660862005,9.684367210338326e-05
-0.3310573850452784,-0.3310573850452784,0.999958128823262,9.599452232135402e-05
-0.3302380235661985,-0.3302380235661985,1.0001614632222413,9.635073689282898e-05
-0.3295903265010566,-0.3295903265010566,0.9998475403392074,9.603562884077935e-05
-0.32926448241487377,-0.32926448241487377,1.0000923978225118,9.688394775329574e-05
-0.3283818768744823,-0.3283818768744823,0.9999970201547654,9.638620642931708e-05
-0.32765421386429805,-0.32765421386429805,0.9999980856520873,9.710404102292929e-05
-0.3271891329641221,-0.3271891329641221,0.9999526848609162,9.606978882041058e-05
-0.32600398249633145,-0.32600398249633145,0.9999032014863101,9.665439938253484e-05
-0.3254562369256746,-0.3254562369256746,0.9999272614424383,9.70001444981348e-05
-0.32514417913771465,-0.32514417913771465,0.9998908093904312,9.680987086013306e-05
-0.3242962316493504,-0.3242962316493504,0.9998627828779725,9.612753667829936e-05
-0.32362209256534696,-0.32362209256534696,0.99992782307722,9.636079132469058e-05
-0.3230199305791757,-0.3230199305791757,0.9999736355431132,9.678800926198177e-05
-0.32162946946627924,-0.32162946946627924,0.9999707941973887,9.644990258720915e-05
-0.3210014300755574,-0.3210014300755574,1.0000783367990027,9.636881067311908e-05
-0.31978914018691285,-0.31978914018691285,0.9999796428927483,9.765854770714429e-05
-0.31934062084765175,-0.31934062084765175,0.9999718958984438,9.66607279043364e-05
-0.318768159240426,-0.318768159240426,0.9999842858268814,9.579179441726417e-05
-0.31786779314279556,-0.31786779314279556,0.9999705446328948,9.613002436606685e-05
-0.3173561443996732,-0.3173561443996732,0.9999596934588567,9.65250942558926e-05
-0.31660837267991154,-0.31660837267991154,0.9999805680968947,9.606464315998613e-05
-0.31592308569670424,-0.31592308569670424,0.9999345693499506,9.800334637439717e-05
-0.31557400814490394,-0.31557400814490394,1.0001327458553775,9.681149493503906e-05
-0.3150074594275793,-0.3150074594275793,0.9999444081749468,9.62614482043357e-05
-0.31408663510665064,-0.31408663510665064,0.9998884468139195,9.66646314512098e-05
-0.3135578730973066,-0.3135578730973066,1.0000972768552034,9.671182151847707e-05
-0.3132732659112662,-0.3132732659112662,0.9998042277673733,9.621494801901565e-05
-0.3123054161085747,-0.3123054161085747,0.9999687047867116,9.701189649304194e-05
-0.31138669227511856,-0.31138669227511856,1.0001059921673825,9.710354056478661e-05
-0.31097854237159483,-0.31097854237159483,1.000072217430909,9.60788913558889e-05
-0.31003367146913663,-0.31003367146913663,0.9999278295702487,9.693071288639801e-05
-0.30938232524786147,-0.30938232524786147,0.9998995891827944,9.6687343387001e-05
-0.30886255262739726,-0.30886255262739726,1.0001115455891212,9.613398184745029e-05
