time,time,flux,flux_err
-0.49887328258720726,-0.49887328258720726,1.0000452782529414,0.00012367198022208777
-0.4966035921498057,-0.4966035921498057,1.0000482483094746,0.0001244677940899667
-0.49438710654006474,-0.49438710654006474,0.9999784759826221,0.00012515901128351802
-0.49235721910641433,-0.49235721910641433,0.999891352435217,0.00012373249289099333
-0.4904415069393053,-0.4904415069393053,1.0003143714232778,0.00011359195378374911
-0.48846571108188075,-0.48846571108188075,0.9999824206013892,0.0001136209053439296
-0.4865122451251409,-0.4865122451251409,1.0003300364932002,0.00011437904833028537
-0.4849258517586804,-0.4849258517586804,1.0001917682067227,0.0001127959161137917
-0.4831600026768683,-0.4831600026768683,1.0001404825051046,0.00011363503704091278
-0.4811978255308986,-0.4811978255308986,1.0000203301223483,0.00011365100065033784
-0.4793986161399516,-0.4793986161399516,1.0000186859565623,0.00011430360268884822
-0.47760259322262755,-0.47760259322262755,0.9999475325737773,0.00011364472222573207
-0.4759229093273916,-0.4759229093273916,1.000281239885263,0.00011288197663723452
-0.4739010410715309,-0.4739010410715309,1.000066866087168,0.00011359183723777218
-0.4722601070080145,-0.4722601070080145,0.9999844246192054,0.00011359759731915497
-0.4703393448436145,-0.4703393448436145,0.9999265435366047,0.00011437414543673126
-0.4686376429793199,-0.4686376429793199,1.0000969829313884,0.00011288584363870586
-0.4666359855720657,-0.4666359855720657,0.9999593970762369,0.00011357406850635846
-0.4650869951108689,-0.4650869951108689,0.999891124743702,0.00011359705894839138
-0.46295905186943853,-0.46295905186943853,1.0001871124367256,0.00011435735710195652
-0.46138717021494813,-0.46138717021494813,1.0001094556078804,0.00011292503762780741
-0.45951743042473936,-0.45951743042473936,1.0000243133525808,0.00011349695814313551
-0.4578394493729775,-0.4578394493729775,0.9999380268874901,0.00011362656663382574
-0.45557753471830437,-0.45557753471830437,0.9999935846179367,0.00011429671067406118
-0.45414155383668914,-0.45414155383668914,1.0002046157371807,0.00011296760338513799
-0.4523862101416398,-0.4523862101416398,0.9999113117115355,0.00011356236314184736
-0.4504104739753075,-0.4504104739753075,1.0000218397858458,0.00011362989854046555
-0.448457166533899,-0.448457166533899,1.0001760622132854,0.00011426865957564311
-0.4468705064164169,-0.4468705064164169,1.0002920212929662,0.00011292399248533924
-0.4451048763780818,-0.4451048763780818,0.9997234407582732,0.00011361663581927394
-0.4431425587217291,-0.4431425587217291,1.000151755174988,0.0001136414825059431
-0.44134344309240986,-0.44134344309240986,0.9998088566991395,0.00011415807083813667
-0.43954726190477234,-0.43954726190477234,1.000124436972959,0.00011366332833035581
-0.43786790937192566,-0.43786790937192566,0.9998741292977933,0.00011298553021542718
-0.4358455734279687,-0.4358455734279687,1.0001456496065506,0.00011357274009575371
-0.43420520024274084,-0.43420520024274084,0.999967361895345,0.0001135884763355469
-0.43228400056259486,-0.43228400056259486,0.9999122155590079,0.00011427506564469503
-0.43058263173461453,-0.43058263173461453,0.9996696931265079,0.00011300993886315398
-0.42858049285982813,-0.42858049285982813,1.0000847657044236,0.00011358322256257239
-0.4270319639012996,-0.4270319639012996,1.000132862382887,0.00011359578857600891
-0.42490379149066937,-0.42490379149066937,0.9998625530682244,0.00011426585382050104
-0.42333210509764285,-0.42333210509764285,0.9999239993355593,0.00011304491822737271
-0.4214618530347252,-0.4214618530347252,0.9998389481782055,0.00011348842785010056
-0.41978433762960776,-0.41978433762960776,0.9998465436147029,0.00011361898771036298
-0.4175223708573867,-0.4175223708573867,0.9999637240948207,0.00011421965997312838
-0.4160864208626208,-0.4160864208626208,0.9998546310912152,0.0001130724618356337
-0.41433091663056987,-0.41433091663056987,0.9996457155035359,0.00011356871472390955
-0.41235523954283054,-0.41235523954283054,0.9997691894144047,0.00011362644839557456
-0.4104020915971887,-0.4104020915971887,1.0000743903756142,0.0001141834313530855
-0.4088151635643499,-0.4088151635643499,0.9999005774232742,0.00011302704552580197
-0.40704975346802713,-0.40704975346802713,0.9999972881774545,0.00011363747524623696
-0.4050872944641924,-0.4050872944641924,1.0001922869610513,0.00011363324966992405
-0.40328827378075405,-0.40328827378075405,0.9999506101389205,0.00011409033285315876
-0.4014919331796136,-0.4014919331796136,1.000165460422007,0.00011365957334288873
-0.39981291282547315,-0.39981291282547315,0.9998310657788616,0.00011310547682351997
-0.39779010829533945,-0.39779010829533945,1.0000520869929013,0.00011357686009718524
-0.3961502981727335,-0.3961502981727335,1.0001195624759085,0.0001136084253614374
-0.39422865820065456,-0.39422865820065456,1.0000212021797892,0.00011422144930210468
-0.39252762389928647,-0.39252762389928647,0.9996435502081074,0.00011311310410331581
-0.3905250026383328,-0.3905250026383328,1.000127837551965,0.00011358006915326514
-0.38897693646813425,-0.38897693646813425,0.9999283059354763,0.00011357516829421455
-0.3868485337452057,-0.3868485337452057,1.0000852519630115,0.00011419318109086825
-0.38527704306256966,-0.38527704306256966,0.9997861358422971,0.00011313918436509646
-0.38340627848197073,-0.38340627848197073,0.9999958964327597,0.00011350382692743783
-0.38172922902990647,-0.38172922902990647,0.9998753157504187,0.00011362485477715934
-0.37946721034441,-0.37946721034441,1.0000066604119777,0.00011414745304122395
-0.37803129048129447,-0.37803129048129447,1.0000659801328713,0.00011319290044152088
-0.3762756263655319,-0.3762756263655319,0.9998743811340528,0.00011356990126214713
-0.37430000800918606,-0.37430000800918606,0.9999226611832702,0.00011364028649614754
-0.372261495531211,-0.372261495531211,1.0001161058156307,0.00011361742187565524
-0.37060179031227564,-0.37060179031227564,1.0000527084618014,0.00011366121742015657
-0.36899463398763144,-0.36899463398763144,1.0000988266898716,0.00011364124417164295
-0.36703203290153397,-0.36703203290153397,1.000128023301863,0.0001136584821885745
-0.3651600229338783,-0.3651600229338783,0.999841605644226,0.00011359207862583617
-0.36320524526649933,-0.36320524526649933,1.0000048393879353,0.00011410075107326258
-0.3617579197289615,-0.3617579197289615,1.0000142608328033,0.0001132199421180439
-0.35973464561247964,-0.35973464561247964,0.9998666605666247,0.00011358627151078703
-0.3580954008386925,-0.3580954008386925,0.9998725021643942,0.00011359005336756811
-0.35586887058375394,-0.35586887058375394,0.9999677645655417,0.00011412864515150964
-0.3544726193912993,-0.3544726193912993,0.9998651201128135,0.00011322562604874651
-0.3524695148460978,-0.3524695148460978,0.9998747423169961,0.00011360073045327444
-0.3509219129544817,-0.3509219129544817,0.9998686263869854,0.00011359367259208902
-0.34862755993112843,-0.34862755993112843,1.0000093264218466,0.00011364884021466208
-0.3470832558628899,-0.3470832558628899,0.999573359604088,0.00011370746385968229
-0.34535070670590357,-0.34535070670590357,0.9997964901578072,0.00011352846395512927
-0.34367412361489186,-0.34367412361489186,1.000151247936434,0.00011363852777889127
-0.3413228760835409,-0.3413228760835409,0.9999694375990795,0.00011370548275678019
-0.33976089296143075,-0.33976089296143075,0.9999550376161173,0.00011364820415527138
-0.33822033955016195,-0.33822033955016195,0.9995960942951184,0.00011357065021487314
-0.3362447792315379,-0.3362447792315379,1.000260427162568,0.0001136543925144494
-0.334206467873264,-0.334206467873264,1.0001046420277124,0.00011360399408115679
-0.33248552327677316,-0.33248552327677316,0.9999543236822998,0.00011366355490219468
-0.3309395179574949,-0.3309395179574949,0.9997490371107812,0.00011362379592101087
-0.32897677409478093,-0.32897677409478093,0.9995985558797142,0.00011365274464565963
-0.3271050669909073,-0.3271050669909073,0.9999960122061688,0.00011360540319264687
-0.3251497159518749,-0.3251497159518749,1.000190534645676,0.0001140414911310953
-0.3237029300209997,-0.3237029300209997,0.9996707927085493,0.00011325818865625339
-0.32167918544055285,-0.32167918544055285,0.9994009122591849,0.0001135852433525566
-0.32004050832279063,-0.32004050832279063,0.9999310449349282,0.00011360157545136666
-0.3178135320797992,-0.3178135320797992,1.0000705790227626,0.00011406965653307493
-0.3164176183743166,-0.3164176183743166,0.9996445512069586,0.00011328239210066699
-0.3144140295647503,-0.3144140295647503,0.999500639733182,0.00011358769689025199
-0.3128668933194604,-0.3128668933194604,1.0000672797465315,0.00011359091392135215
-0.3105724030928741,-0.3105724030928741,1.000047171706904,0.00011364556650241666
-0.3090281045570464,-0.3090281045570464,1.0000141912804286,0.00011371839579597325
-0.30729513768565087,-0.30729513768565087,0.9997501928141357,0.00011354039521392447
-0.30561902138424557,-0.30561902138424557,0.9998983897337272,0.0001136277521567875
-0.30326794296361187,-0.30326794296361187,1.0000060454767628,0.00011370025062287387
-0.30170554772112157,-0.30170554772112157,1.000080897923921,0.00011363844132036187
-0.3001650560215694,-0.3001650560215694,0.9998867986750847,0.00011358039252232518
-0.29818955308719525,-0.29818955308719525,0.9999051987021794,0.00011364249453949022
-0.2961514446658839,-0.2961514446658839,0.9999449482854941,0.00011360421216853568
-0.2944301477621593,-0.2944301477621593,0.9997933997167558,0.00011364509815363934
-0.2928844053563807,-0.2928844053563807,0.9999356196462443,0.00011361636098871072
-0.29092151785994247,-0.29092151785994247,0.9994537698466337,0.00011365847435507966
-0.2890501157227391,-0.2890501157227391,0.9998860812565521,0.00011357414207545362
-0.28709418855610236,-0.28709418855610236,0.9998304048165478,0.00011396251333580352
-0.2856479438451515,-0.2856479438451515,0.9999877852428464,0.00011331665215968151
-0.28362372784085893,-0.28362372784085893,0.9994352604203085,0.00011360163147378533
-0.28198562064449106,-0.28198562064449106,0.9998908932164057,0.0001136077056938515
-0.27975819563830556,-0.27975819563830556,1.0001339817468549,0.00011402504082990237
-0.2783626207459292,-0.2783626207459292,0.999884481646119,0.00011331056289036795
-0.2763585466309905,-0.2763585466309905,0.9993959215140966,0.00011360229990838239
-0.2748118776040883,-0.2748118776040883,1.0000948357853865,0.00011361222354509782
-0.27251724994930554,-0.27251724994930554,0.99986334191324,0.00011364562528959881
-0.2709729555782815,-0.2709729555782815,0.9999995273814329,0.00011368076262359594
-0.2692395716663668,-0.2692395716663668,0.9995097083888022,0.00011352997984243186
-0.267563922297586,-0.267563922297586,0.9999909576461464,0.00011365906189852704
-0.265213014273786,-0.265213014273786,1.0001971998622348,0.00011370681098535141
-0.26365020460384586,-0.26365020460384586,1.000113909270865,0.00011363633819611916
-0.26210977588179957,-0.26210977588179957,0.9998046260062324,0.00011356338319595328
-0.26013432992367597,-0.26013432992367597,0.9998447605039533,0.00011365458832340548
-0.2580964259906068,-0.2580964259906068,0.9999544009386504,0.00011360222022591438
-0.2563747741259249,-0.2563747741259249,1.0000260164810801,0.0001136505142926414
-0.2548292963688709,-0.2548292963688709,0.9999879467200585,0.00011360129168216442
-0.2528662644832821,-0.2528662644832821,0.9996734052987968,0.00011369174451589103
-0.2509951692316008,-0.2509951692316008,1.000070446737904,0.00011361240337737489
-0.24903866320164525,-0.24903866320164525,0.9999742908316003,0.0001139207092077277
-0.24759296115994403,-0.24759296115994403,0.9999250174756835,0.00011333086656291007
-0.24556827262936168,-0.24556827262936168,0.9996885489691504,0.00011361839107970758
-0.24393073792689393,-0.24393073792689393,0.999858648187041,0.00011358735710388442
-0.24170286119701814,-0.24170286119701814,1.0000540499832709,0.00011395991219952461
-0.24030762668985517,-0.24030762668985517,1.0000420094368043,0.00011335577970087175
-0.2383030663102545,-0.2383030663102545,0.9995863502771357,0.00011361449937065202
-0.23675686599190157,-0.23675686599190157,1.000076349119636,0.00011359471896509592
-0.2344621003172051,-0.2344621003172051,1.0000001264801672,0.00011364971295502498
-0.23291780913086768,-0.23291780913086768,0.9999040493946992,0.00011365054715238981
-0.23118400840280628,-0.23118400840280628,0.9994431434594248,0.00011351914742002548
-0.2295088264160313,-0.2295088264160313,0.9999944483188941,0.00011361833114099926
-0.22715808997299974,-0.22715808997299974,0.9999970879351366,0.00011369324097797713
-0.22559486358936737,-0.22559486358936737,1.0001470437712547,0.00011362640231660684
-0.22405449927377957,-0.22405449927377957,0.9997346063048861,0.00011355438588065636
-0.22207910945439835,-0.22207910945439835,0.9996721873634413,0.00011365401817541994
-0.2200414119692141,-0.2200414119692141,0.999914708289882,0.0001136023047667911
-0.21831940255128757,-0.21831940255128757,1.0000096938279905,0.00011362186264101471
-0.2167741908516291,-0.2167741908516291,1.0001517326614882,0.00011361858726195786
-0.21481101378080894,-0.21481101378080894,0.9995994828524811,0.00011364985974626726
-0.2129402275173561,-0.2129402275173561,1.0000199301312935,0.00011359154972617288
-0.210983139848031,-0.210983139848031,0.9998715588578435,0.00011385577088585079
-0.20953798200653181,-0.20953798200653181,0.9998741354263456,0.00011337866192316312
-0.20751281999027923,-0.20751281999027923,0.9996790355454263,0.00011360137333128797
-0.20587586023148105,-0.20587586023148105,1.0000241156039027,0.00011359908195150326
-0.20364752894006416,-0.20364752894006416,1.0000451008050015,0.00011392479501438984
-0.2022526359616677,-0.2022526359616677,0.9998378779491907,0.00011337350703905732
-0.20024758845975157,-0.20024758845975157,0.9998881924312941,0.0001135824609662307
-0.19870185825843692,-0.19870185825843692,1.0001397681963586,0.00011360764302782971
-0.19640695429848165,-0.19640695429848165,1.0001830519469554,0.00011364668766028438
-0.19468489815089923,-0.19468489815089923,0.9999846885719268,0.00011364848175938013
-0.19300176854017081,-0.19300176854017081,0.9998581888160075,0.00011350629477790801
-0.19145373373921756,-0.19145373373921756,0.9999660111944279,0.00011363158898431954
-0.1891031700815347,-0.1891031700815347,0.9999588448024921,0.00011367740742819318
-0.18743402637237522,-0.18743402637237522,0.9998996587274513,0.0001136600324479722
-0.18580027794082526,-0.18580027794082526,1.000065002115867,0.00011350584433344742
-0.1840238919249714,-0.1840238919249714,0.9996079559763759,0.00011361772903586939
-0.18183203554171995,-0.18183203554171995,0.9999922553908993,0.0001136996444732028
-0.17982301392839872,-0.17982301392839872,1.0000511804223589,0.00011365310597218901
-0.1781891685503524,-0.1781891685503524,0.9999566626375869,0.0001135033041856975
-0.17641284873739096,-0.17641284873739096,0.9998807383032355,0.00011363460172806126
-0.17422104120532822,-0.17422104120532822,1.0001014740769993,0.00011369859391225113
-0.17221200177059473,-0.17221200177059473,1.0000411365456767,0.00011366403444064939
-0.17057805926183392,-0.17057805926183392,1.0000233449139477,0.00011349637339650776
-0.16880180563189243,-0.16880180563189243,1.0003319854492347,0.00011366364555325061
-0.16661004713428157,-0.16661004713428157,1.0000096188436487,0.00011371303170724952
-0.16460098965335418,-0.16460098965335418,1.0000606547840647,0.00011364973628284656
-0.16296695009586984,-0.16296695009586984,0.9999349072575807,0.00011349161503061726
-0.16119076270970253,-0.16119076270970253,1.0001504531964138,0.00011364748040057486
-0.15899905314477109,-0.15899905314477109,0.9999240277977322,0.00011369559126140499
-0.15698997761792272,-0.15698997761792272,1.0001343418459663,0.00011365930664844695
-0.15535584103195105,-0.15535584103195105,0.9998381794951834,0.00011350081987836088
-0.15357971997127606,-0.15357971997127606,0.9998889393877928,0.00011364000653282925
-0.15138805929850604,-0.15138805929850604,1.000029507960471,0.00011370852402358015
-0.14937896576625462,-0.14937896576625462,0.999996095721807,0.00011363490149125517
-0.14774473213155942,-0.14774473213155942,1.0000231240730417,0.00011350687435257734
-0.14596867719224066,-0.14596867719224066,1.0001563210486233,0.00011365473147301609
-0.1437770656356406,-0.1437770656356406,0.9999742984232605,0.00011369812303683163
-0.14176795403705,-0.14176795403705,0.9998839798379764,0.00011364774784122644
-0.13993339175431174,-0.13993339175431174,1.000070193215801,0.00011350935089442802
-0.13817660951995095,-0.13817660951995095,1.0000156512980223,0.00011363596484403101
-0.13559476833206646,-0.13559476833206646,0.9998580178560333,0.00011368979372711594
-0.13383083614603491,-0.13383083614603491,1.0000112825714313,0.00011364572918943027
-0.13232227062562743,-0.13232227062562743,1.0000262918731184,0.00011350536848583133
-0.13056559223819023,-0.13056559223819023,1.0000987346794823,0.00011364622892907051
-0.12798376807550085,-0.12798376807550085,1.000132539845858,0.00011372082723176543
-0.1261858933111853,-0.1261858933111853,0.999958249519816,0.00011364650577703142
-0.1242193430045063,-0.1242193430045063,0.9999887399285298,0.00011360253737573304
-0.12262786279861757,-0.12262786279861757,0.9999347864541587,0.00011358061698030404
-0.12037276790047144,-0.12037276790047144,1.0000009272743737,0.00011370316663389926
-0.11857489336089203,-0.11857489336089203,1.0001355966706025,0.00011365063053830043
-0.11660823845227242,-0.11660823845227242,0.9998662539594383,0.00011358172153500877
-0.11501681205782006,-0.11501681205782006,1.000024733873597,0.00011357186970879354
-0.1127617679503146,-0.1127617679503146,0.9999342846595305,0.00011370629918325674
-0.11096389365543473,-0.11096389365543473,0.9999774798021465,0.00011363476476474275
-0.10899713392032026,-0.10899713392032026,1.0000773353122878,0.00011358970134443426
-0.10740576154184964,-0.10740576154184964,0.9999618872433345,0.00011355232619138307
-0.10515076806109391,-0.10515076806109391,0.9999370429727481,0.00011370891350250688
-0.10335289392969571,-0.10335289392969571,0.9999484530492344,0.00011363114685582126
-0.10138602957208605,-0.10138602957208605,1.0000316537501992,0.00011357987130443006
-0.09979471110714258,-0.09979471110714258,0.9999325703257254,0.00011355158917873863
-0.09753976841702752,-0.09753976841702752,1.00021939677021,0.00011372870626600378
-0.09574189446930177,-0.09574189446930177,1.000100979810161,0.0001136457293202407
-0.09377492518306099,-0.09377492518306099,0.9999743043557988,0.00011358850643165869
-0.09218366073405378,-0.09218366073405378,1.0000446358190143,0.00011357115067964088
-0.0899287688138429,-0.0899287688138429,0.9999131691646784,0.00011371444132740674
-0.08813089504978962,-0.08813089504978962,0.9999411544404605,0.00011363373467567902
-0.08616382112054452,-0.08616382112054452,0.9999390861110541,0.0001135844125952774
-0.08438994363641542,-0.08438994363641542,0.9999782602771816,0.00011356760110676773
-0.08231776941474891,-0.08231776941474891,0.999866313983944,0.00011369570604566532
-0.08051989575287735,-0.08051989575287735,1.0000937978058828,0.0001136483858866167
-0.07855271695621013,-0.07855271695621013,0.9999415460205187,0.00011357594815369023
-0.07665711554914197,-0.07665711554914197,0.9998948744465403,0.00011357132687196884
-0.07470677011783664,-0.07470677011783664,1.0000785100023337,0.0001137028423790791
-0.07290889670075558,-0.07290889670075558,0.9997856129294318,0.00011363183791219468
-0.0709416129344845,-0.0709416129344845,1.0000153936324394,0.00011359942337181438
-0.06904606568605232,-0.06904606568605232,0.999984749873283,0.00011355402929590787
-0.06709577096380599,-0.06709577096380599,0.9998980834861244,0.00011371142661264233
-0.06529789770988828,-0.06529789770988828,1.0000414128717092,0.00011364674004154751
-0.06333050913781335,-0.06333050913781335,1.0001358897686379,0.00011359465784083948
-0.06143501586416278,-0.06143501586416278,1.0001524513474336,0.00011357467927068227
-0.059484772054565836,-0.059484772054565836,1.0001249006178135,0.00011371706632057954
-0.057686898800648125,-0.057686898800648125,1.000014553925309,0.0001136280263620139
-0.05571940534055102,-0.05571940534055102,0.99989859831062,0.0001135783852784501
