time,time,flux,flux_err
-0.4999274637928465,-0.4999274637928465,0.9996311891509052,0.0002108728474120808
-0.4997899706220778,-0.4997899706220778,0.9998609649312314,0.00020091587564920166
-0.4996244823247252,-0.4996244823247252,1.0002045277691032,0.00021040072649126186
-0.49952186116279335,-0.49952186116279335,1.0000716800031229,0.0002097550513205005
-0.4993642255292798,-0.4993642255292798,1.0002889403325994,0.0002008604425855005
-0.4992423673807934,-0.4992423673807934,1.0000888500574818,0.00020339712394748058
-0.4991314307459106,-0.4991314307459106,0.99981546803864,0.00021110553666523483
-0.4990621685719816,-0.4990621685719816,1.0004454528587918,0.00020742743149805592
-0.49884809890209,-0.49884809890209,0.9999661918679074,0.00020113285361434292
-0.49873093860296647,-0.49873093860296647,0.999872926419898,0.0002014338548032462
-0.4985928251495352,-0.4985928251495352,1.0002720221904213,0.00021046368256941715
-0.498458425145509,-0.498458425145509,0.9999887056815876,0.00020841262182467709
-0.49833382746728605,-0.49833382746728605,1.0000888608567942,0.0002022743768182635
-0.4982557184390316,-0.4982557184390316,1.0000060360763048,0.000216590126789297
-0.49817531432272516,-0.49817531432272516,0.9999242351326091,0.00020282141055681413
-0.49806217025834487,-0.49806217025834487,0.9999849824579256,0.00021787957210868115
-0.4979444369280827,-0.4979444369280827,0.9999561825152291,0.00020748453622674475
-0.49783797448617406,-0.49783797448617406,1.0000465665386438,0.00026467224896804223
-0.49769515423686245,-0.49769515423686245,1.0002498195076055,0.00019852217484252042
-0.4975745438554441,-0.4975745438554441,0.9997964450277967,0.0002092677531620977
-0.49750408788531786,-0.49750408788531786,1.000048438642165,0.00020565023483595812
-0.4973840760590974,-0.4973840760590974,1.0000341814896179,0.0002084197818966493
-0.4972527581594477,-0.4972527581594477,0.9997751686203882,0.00021201066705684953
-0.4971627780003473,-0.4971627780003473,0.9999096917400591,0.00020237424856703345
-0.49707668765768176,-0.49707668765768176,0.9998762581658307,0.00020010322634226628
-0.49700949589532684,-0.49700949589532684,0.9997766547071244,0.000200724695262843
-0.4969210191811726,-0.4969210191811726,0.9998609491046178,0.0002088312471665151
-0.4967890764251933,-0.4967890764251933,0.9999556884538011,0.00020672666247839897
-0.4966307283648348,-0.4966307283648348,0.9995011202659411,0.00020184839206259818
-0.4965643480361905,-0.4965643480361905,0.9999425675933644,0.0002040692788520387
-0.4964209471094364,-0.4964209471094364,1.000211356646415,0.00020171716712716353
-0.4963110910954128,-0.4963110910954128,0.9997778452125152,0.00019909752518510772
-0.4961991848969774,-0.4961991848969774,1.0003003684400138,0.0002063757743850431
-0.49609084347976024,-0.49609084347976024,1.000024755281801,0.00020916659278402954
-0.49591900684463325,-0.49591900684463325,1.0000933980996574,0.00020351071253843603
-0.49576396832853786,-0.49576396832853786,0.9993664370071664,0.00022845265579038643
-0.4956179822955164,-0.4956179822955164,0.9999235869954906,0.00021301105826753965
-0.49545161135101806,-0.49545161135101806,0.9998861976073903,0.00020485258025129308
-0.49523798925001755,-0.49523798925001755,0.9996756365973699,0.00020828971218046308
-0.4951398607590818,-0.4951398607590818,1.0000686752667483,0.00020475747030442043
-0.49503667597309686,-0.49503667597309686,1.0000849805785252,0.00021048429995118855
-0.49487656389319457,-0.49487656389319457,0.9996634613227112,0.00020181038599907238
-0.49477595505231875,-0.49477595505231875,1.0002525720426696,0.00020324959929825804
-0.49463798397846404,-0.49463798397846404,0.9996591178441916,0.00020886713910335408
-0.49456595326118985,-0.49456595326118985,0.9999569134469827,0.00021626490939079084
-0.4944915631895128,-0.4944915631895128,0.9997414940635029,0.00021038785533451708
-0.4944067150427145,-0.4944067150427145,0.9998713262123987,0.00020540283959933335
-0.494237087804504,-0.494237087804504,1.0004368081791122,0.00020115234467869736
-0.4941234760291991,-0.4941234760291991,1.0001781279874298,0.00021819736233824865
-0.49405150428356137,-0.49405150428356137,0.9998162411087584,0.00020835082918840898
-0.49391614562409814,-0.49391614562409814,1.0001608081042839,0.00022196723499663573
-0.4937570435824455,-0.4937570435824455,0.999929417817858,0.0002113921186064107
-0.493618369595788,-0.493618369595788,0.9998166616278465,0.00020950675715673885
-0.4934767066632048,-0.4934767066632048,1.0002065277668044,0.00021603534917118456
-0.49334101571366773,-0.49334101571366773,0.9999781775875263,0.00021053920760474498
-0.49319710314521215,-0.49319710314521215,0.9997171664394056,0.00020580070234499527
-0.49307206324883734,-0.49307206324883734,0.9996782484077917,0.0002058072561280599
-0.4929340975279047,-0.4929340975279047,0.999863393502687,0.00022082709404228472
-0.49278134380947447,-0.49278134380947447,0.9997575450024063,0.0002081334551430605
-0.49268376201871433,-0.49268376201871433,1.0003696896455612,0.0002122426770027976
-0.4925018082096358,-0.4925018082096358,1.0000541269743004,0.00020844040565369892
-0.49230236802104627,-0.49230236802104627,0.9999114050810565,0.0002083103555343354
-0.49218792284518714,-0.49218792284518714,0.9999317948120471,0.00020142408742424844
-0.4920735040519503,-0.4920735040519503,0.9997583777337471,0.00020386161479552978
-0.491948817208322,-0.491948817208322,0.9999713849215002,0.00020519910790613502
-0.4917588143864123,-0.4917588143864123,0.9998775813205356,0.00021009608102244543
-0.49164647144425544,-0.49164647144425544,1.0001388892632836,0.00021082740375421752
-0.49154508798601454,-0.49154508798601454,1.000080922663933,0.00021122897797912956
-0.4913916469864489,-0.4913916469864489,0.9999223335976619,0.00020247080167707315
-0.49125385139195715,-0.49125385139195715,0.9999993714749726,0.0002100382569744993
-0.49118097755053897,-0.49118097755053897,1.0000072909131328,0.00020176440844123976
-0.491075175908918,-0.491075175908918,1.0000501992371027,0.00021468274014060747
-0.49091274341990354,-0.49091274341990354,0.9999110206674746,0.00020782916653326296
-0.49082682703010505,-0.49082682703010505,1.0001894597354402,0.00022729848959720622
-0.49079659356430055,-0.49079659356430055,1.0002185488704014,0.0002076653813681946
-0.4906861489842413,-0.4906861489842413,1.0001039688290239,0.00021437794025502602
-0.4906134612312599,-0.4906134612312599,0.9999419940938614,0.0002231065458950708
-0.49051203383642134,-0.49051203383642134,0.9998321195146399,0.00020664988692858788
-0.4903288049710682,-0.4903288049710682,1.0000963472527853,0.0001997094359175408
-0.49022536378979564,-0.49022536378979564,1.0001379999373299,0.0002078697855667467
-0.4900531441991916,-0.4900531441991916,1.000272524720796,0.00020952235690704983
-0.48991233691049274,-0.48991233691049274,0.9997067661387404,0.00021173844655878528
-0.48974142113947894,-0.48974142113947894,0.9999764841025138,0.00020705821434464756
-0.48965380602749065,-0.48965380602749065,1.0002461544636656,0.000198347669821933
-0.4894912119649234,-0.4894912119649234,0.9999265293069503,0.0002068694051366227
-0.48936875248982686,-0.48936875248982686,1.0002260106219105,0.00021734511021250725
-0.4892952051217435,-0.4892952051217435,0.9998685992329575,0.00021736405094482844
-0.48920874254763475,-0.48920874254763475,1.0001147769993755,0.00019900969801559177
-0.4890450885548489,-0.4890450885548489,0.9999783636272982,0.000208407579197456
-0.488961374637438,-0.488961374637438,0.9999769875234528,0.0002027868004816689
-0.48886380559852116,-0.48886380559852116,1.0003566226930933,0.0002096198154729249
-0.4887574849788507,-0.4887574849788507,0.9997693673720608,0.00020760014599722465
-0.48859707048832207,-0.48859707048832207,1.0000481367825238,0.00019780992201505707
-0.4884539932179905,-0.4884539932179905,1.0000360432602515,0.00020803535796130125
-0.48831981902039845,-0.48831981902039845,0.9998375073350625,0.00021485427822747933
-0.48821197780198416,-0.48821197780198416,0.9997796735413693,0.00020559318905926253
-0.488120817613526,-0.488120817613526,0.9999232668601644,0.0001990117270246203
-0.48795167399439376,-0.48795167399439376,1.0002890947217973,0.00020977115341733508
-0.48784134164015996,-0.48784134164015996,0.9999913277036494,0.00021138854842588035
-0.4877510442856874,-0.4877510442856874,1.0002602985209614,0.00021868738433317825
-0.48766473761425005,-0.48766473761425005,0.9998866445175996,0.00020541574509696476
-0.487524104736076,-0.487524104736076,1.0000117958572752,0.0002021769011002544
-0.4873574580029526,-0.4873574580029526,0.9999793503463141,0.0002114125350116855
-0.48729385440819895,-0.48729385440819895,0.9997516304273978,0.00020678412757492128
-0.48719551574904474,-0.48719551574904474,1.0002408364877458,0.00020071604996846722
-0.4870224475067516,-0.4870224475067516,0.9999421782757899,0.00021442303037861842
-0.48695408800340373,-0.48695408800340373,0.9997403987570068,0.00019765717896165909
-0.4868690587041783,-0.4868690587041783,1.0001714016312564,0.00020650062108846628
-0.48679381330875915,-0.48679381330875915,0.9999227192932517,0.00019366612862038046
-0.486699011449673,-0.486699011449673,1.0000396979378923,0.00021010764692178937
-0.486619857410551,-0.486619857410551,1.0000447714391905,0.00020730843712808141
-0.4864663957356242,-0.4864663957356242,0.9999197213007248,0.00021092456486144682
-0.4863508458765864,-0.4863508458765864,0.9997384705620712,0.00020554362252653437
-0.4862270604928199,-0.4862270604928199,1.0002652424984997,0.00021101373711491147
-0.48609091828766393,-0.48609091828766393,1.0000766669749965,0.00020704597911114448
-0.485978682932182,-0.485978682932182,0.9998644900170307,0.00019950063670423753
-0.48582672466145593,-0.48582672466145593,1.0003152885866318,0.00021592499655044396
-0.4855706397276663,-0.4855706397276663,0.9999079256600588,0.00020678344794125068
-0.48541869964683426,-0.48541869964683426,1.000103068382621,0.00020525119274367645
-0.48528069250896805,-0.48528069250896805,1.0001025334652207,0.00021195148516065125
-0.48511925898492336,-0.48511925898492336,1.0002242174425262,0.00019786134541116023
-0.4850014031282626,-0.4850014031282626,1.0001357827424355,0.0002083397224489852
-0.4849016263113299,-0.4849016263113299,0.9996567121165283,0.0002090266296632665
-0.4847810664141434,-0.4847810664141434,1.0000548059914904,0.00021123404684058114
-0.48465547831801814,-0.48465547831801814,1.0000710598589255,0.00021831685190871323
-0.4845760924195929,-0.4845760924195929,0.9997546090268615,0.00020362121767238898
-0.4844603116718645,-0.4844603116718645,0.9999990251529349,0.00021097639017941868
-0.48434609126925354,-0.48434609126925354,0.9999647643743594,0.0002041378814157218
-0.48428537486543066,-0.48428537486543066,1.0000159991056585,0.0002106535777409454
-0.48419862341688713,-0.48419862341688713,0.9999519751838118,0.00020757405826887887
-0.4840176290315867,-0.4840176290315867,0.9998564818651856,0.0002169313758081214
-0.4838669655575359,-0.4838669655575359,0.9995543065315864,0.00020594003963457925
-0.4837419436451455,-0.4837419436451455,0.9999384664536098,0.00021270398603749873
-0.4836527687271882,-0.4836527687271882,0.9997591819358517,0.00021800978374716544
-0.48351113423268544,-0.48351113423268544,1.0000413825418324,0.0002056552144212408
-0.4834025545118493,-0.4834025545118493,0.999886561842857,0.00021016129560877828
-0.48332723184939824,-0.48332723184939824,0.9999400786167673,0.00020523088167399007
-0.4831557531360886,-0.4831557531360886,0.9998920501988525,0.00021394731043780464
-0.4829671837753267,-0.4829671837753267,1.000152654214991,0.00020580909018632067
-0.48284671397923373,-0.48284671397923373,1.0001127781051555,0.0002010574872512908
-0.4827376994777296,-0.4827376994777296,1.0000408628021171,0.00020782653070136573
-0.48260704535787224,-0.48260704535787224,1.000328942112224,0.00020952405964431146
-0.4824889246643579,-0.4824889246643579,1.0000253024373382,0.00021148323143936436
-0.48227254575758705,-0.48227254575758705,1.000115278448247,0.00020281202954238782
-0.48206041276862377,-0.48206041276862377,0.9999612813286884,0.00020780036249065187
-0.48193723990116266,-0.48193723990116266,1.0000432815588514,0.00020142571448634937
-0.4818375787464902,-0.4818375787464902,0.999835634215007,0.00020304515909593226
-0.4817436876030115,-0.4817436876030115,1.00008945268986,0.0001997685305015359
-0.4815586245742452,-0.4815586245742452,0.9999333344423986,0.0002210695925188483
-0.48143898003982033,-0.48143898003982033,0.9998200372981962,0.00020642894922036394
-0.4813618978114391,-0.4813618978114391,1.0003144068690095,0.00020573453743475862
-0.4812311961519299,-0.4812311961519299,1.000083217262481,0.00020719561002939267
-0.4810394856875064,-0.4810394856875064,0.999901920678365,0.00021699858304016951
-0.480965437071427,-0.480965437071427,1.000012216951196,0.0002035397261636195
-0.4808530064823572,-0.4808530064823572,1.0000495788976396,0.0002115649306316802
-0.48068413424553,-0.48068413424553,1.000223866344732,0.00020830685929309323
-0.4805867089846288,-0.4805867089846288,0.9998605530302884,0.00021994991728313396
-0.480553053967742,-0.480553053967742,1.000450354262772,0.00021896243305672525
-0.48042732382527903,-0.48042732382527903,0.9999376949261215,0.00020320160674147393
-0.4803591128591506,-0.4803591128591506,1.000295522213994,0.0002195070503030752
-0.4801955454684503,-0.4801955454684503,1.0001156371076854,0.00020665026175806494
-0.48001735629004544,-0.48001735629004544,1.0000061415019759,0.00020212076803235315
-0.47990384758159055,-0.47990384758159055,1.0000717492883073,0.00021774819550176273
-0.4797266127236071,-0.4797266127236071,0.9998975145969841,0.00020804328983751248
-0.47960926557934724,-0.47960926557934724,1.0000267764904835,0.00020734162061796744
-0.47952361974894303,-0.47952361974894303,1.0001266034629013,0.0002068852849880434
-0.4793796262565593,-0.4793796262565593,0.9997726770896328,0.0002055257227340803
-0.47924942630925216,-0.47924942630925216,0.9999302814225137,0.00020703092745456503
-0.4790974838506372,-0.4790974838506372,0.9997642264813186,0.0002145509189476222
-0.47901926127888145,-0.47901926127888145,0.9996691889207554,0.00021166949522216164
-0.4788340762490407,-0.4788340762490407,0.9998938411763862,0.0002098601398160462
-0.4787193811243924,-0.4787193811243924,1.0000474698958755,0.00020116444675006697
-0.47862659460588475,-0.47862659460588475,0.9998852755827345,0.0002077688484705365
-0.4784396571201796,-0.4784396571201796,1.0001812034744912,0.00019535832966554329
-0.4782605238731776,-0.4782605238731776,1.0000163497425834,0.0002046745849462235
-0.47813422583858484,-0.47813422583858484,0.9999675102575367,0.0002031917694058886
-0.4780134692424326,-0.4780134692424326,0.9999872339371978,0.00021927800214112365
-0.4779255655113957,-0.4779255655113957,1.0000036657530766,0.00019923046769197635
-0.4777978195095784,-0.4777978195095784,1.0001842328697432,0.00020034831862534582
-0.47762728023226375,-0.47762728023226375,0.9998891277594038,0.00019734191220388656
-0.477574221084069,-0.477574221084069,1.000162497367586,0.00022406982200985073
-0.4775131721129583,-0.4775131721129583,1.0000847493030656,0.00020113828180028646
-0.4774378381516726,-0.4774378381516726,1.0000228157407003,0.00023199220042955087
-0.47736706335053897,-0.47736706335053897,1.0000673691132191,0.00020452540375525538
-0.47718645020286204,-0.47718645020286204,1.0002398825699892,0.0002025014656668214
-0.47710010658411195,-0.47710010658411195,0.9999969082357314,0.00021062992741074238
-0.4770507424400421,-0.4770507424400421,0.9999776913432301,0.00020259600671689105
-0.4769186732570233,-0.4769186732570233,0.9999469516279429,0.00020712047155951128
-0.47677716391917785,-0.47677716391917785,0.9997406748853569,0.0002089295727544912
-0.47668298109419993,-0.47668298109419993,0.9997415774094212,0.0002019972820157359
-0.47658139893392215,-0.47658139893392215,0.9999752915766816,0.0001994117039198885
-0.47644692550311446,-0.47644692550311446,1.0002426113529326,0.00021402450901319227
-0.4762695989375061,-0.4762695989375061,0.9999174683935254,0.00020711356497346862
-0.4761360278112988,-0.4761360278112988,0.9998857650841838,0.0002093894781905498
-0.47597325044407623,-0.47597325044407623,0.9998795923213416,0.0002050582641661877
-0.4757566382890218,-0.4757566382890218,0.9998874037958331,0.00020782791290293668
-0.4755985548137687,-0.4755985548137687,0.9997508592746461,0.0002113747755175074
-0.47529347311719905,-0.47529347311719905,0.999784065585801,0.00020213223835347893
-0.47514822860830463,-0.47514822860830463,0.9995678799890688,0.00021163613006565358
-0.4750304247289023,-0.4750304247289023,1.0002818445015291,0.00021675246404505581
-0.474900278190762,-0.474900278190762,0.9996137574421537,0.00020303908972857162
-0.4747639523986436,-0.4747639523986436,1.0002306771428746,0.00020452579161901624
-0.47466155682559474,-0.47466155682559474,0.999818039476375,0.00020336335967034128
-0.4745997557634837,-0.4745997557634837,1.0001104368809712,0.00022287609031823005
-0.4744494141370524,-0.4744494141370524,1.0000942393062435,0.00020022239456049168
-0.4743408665774041,-0.4743408665774041,1.0000732689163896,0.0001982389374436613
-0.47428438718343385,-0.47428438718343385,1.0001277909934678,0.0002119161853177115
-0.47418228396345513,-0.47418228396345513,1.0000018382846214,0.00020793265035375696
-0.4740804586064769,-0.4740804586064769,1.0003428310785192,0.0002072478550668806
-0.47399101626579065,-0.47399101626579065,0.9998480710820958,0.00020775858769363532
-0.4738011346598796,-0.4738011346598796,0.9998368182916918,0.00022102645005723536
-0.4736422890498943,-0.4736422890498943,0.99998897619936,0.00020037078891426796
-0.47353425938199506,-0.47353425938199506,0.9999039172617415,0.00021433671259433627
-0.47341219615918817,-0.47341219615918817,1.0001204732962443,0.00022368222024373553
-0.4732058071400388,-0.4732058071400388,1.000163375768597,0.000206583085032095
-0.4730910938393208,-0.4730910938393208,0.9998752692340691,0.0002066308401289586
-0.47293571543341384,-0.47293571543341384,0.9998034896940613,0.00020625427185894275
-0.47276982276307533,-0.47276982276307533,1.0000521758242402,0.00020965533785927753
-0.47269858418003424,-0.47269858418003424,1.0000885511291133,0.00019879971674570613
-0.47257982908631674,-0.47257982908631674,1.0000430382981118,0.00020514456686698395
-0.4724843351308664,-0.4724843351308664,0.9999411193614589,0.00021332611529057237
-0.4723202437198779,-0.4723202437198779,1.0000589159292972,0.00020720722672920548
-0.4722205783225945,-0.4722205783225945,0.9999141919357104,0.00020359823528908388
-0.4720091263843642,-0.4720091263843642,0.9998555073708669,0.00020340488211147064
-0.4717788342597487,-0.4717788342597487,1.0000701410045572,0.0002101879223773663
-0.4716941323633364,-0.4716941323633364,1.00033120514762,0.00019957322559382957
-0.4716242066373525,-0.4716242066373525,0.9999657426075632,0.00020177943429964735
-0.4715230662171962,-0.4715230662171962,0.9998517936101454,0.00020037428032765233
-0.47137188448541567,-0.47137188448541567,0.9999229875555355,0.0002114980330697635
-0.47124894146763835,-0.47124894146763835,1.0000230861782486,0.00021802692141177773
-0.4711793173162732,-0.4711793173162732,1.0001027900427966,0.00019834772214569681
-0.4711154405973502,-0.4711154405973502,1.0001664677778068,0.00020552133338522103
-0.47093743573641406,-0.47093743573641406,0.999987338587022,0.00020349834663307116
-0.4707904419992701,-0.4707904419992701,0.9998570364690194,0.00022112185032385152
-0.47071782023995185,-0.47071782023995185,0.999962515518874,0.00020535651632567123
-0.470526994598913,-0.470526994598913,0.9997676961539934,0.00020850105195647316
-0.47038402938196666,-0.47038402938196666,0.999882308884849,0.00021048345589955853
-0.4703192762011895,-0.4703192762011895,0.9996281571184371,0.00020570965766041941
-0.47022587148530876,-0.47022587148530876,0.9999347822748913,0.00021012535922090722
-0.4701192897729925,-0.4701192897729925,0.9999596648632642,0.00021793260877418308
-0.46990628740604734,-0.46990628740604734,0.9999896685707782,0.00020646583255447748
-0.4697523096758232,-0.4697523096758232,0.999982683641727,0.0002053360198080344
