time,time,flux,flux_err
-0.49911543650887324,-0.49911543650887324,0.9998278104062585,0.0014668966900227007
-0.4971603981533311,-0.4971603981533311,0.9981992279983111,0.0014956837091318178
-0.4950332859628664,-0.4950332859628664,0.9974938562892349,0.001472486095543276
-0.49291770936979445,-0.49291770936979445,0.9993428950452946,0.0013395970459515187
-0.49082062269444576,-0.49082062269444576,0.9992603282208987,0.0013726812480552453
-0.489665700616024,-0.489665700616024,0.9988288411116152,0.001468831276249837
-0.4874033284893812,-0.4874033284893812,1.0003257590300314,0.0013453468909163863
-0.4860463032233383,-0.4860463032233383,1.0012507838148887,0.001415348070440625
-0.48411830491495494,-0.48411830491495494,1.0012649512958132,0.0013435709070272063
-0.48239037127095796,-0.48239037127095796,0.9979089652967188,0.0013469052099607927
-0.48131805987686677,-0.48131805987686677,0.9978635114136312,0.001358413794511484
-0.4795089949064277,-0.4795089949064277,0.9995855683348696,0.001354071393738885
-0.478326391848168,-0.478326391848168,0.9995106196956638,0.0014739266131120995
-0.47629819013091035,-0.47629819013091035,1.0003771062048123,0.0013639701958954552
-0.47525243621275876,-0.47525243621275876,1.001248224521449,0.0013905348948275351
-0.4734271932262345,-0.4734271932262345,0.9985037619954555,0.0013935819757817417
-0.471454565654858,-0.471454565654858,0.9988488917318877,0.0013795089898416693
-0.46945518798711416,-0.46945518798711416,0.9999631954229333,0.0013422417501888786
-0.4677975847000198,-0.4677975847000198,0.9988827159072612,0.0013446584875113272
-0.46694520770543024,-0.46694520770543024,0.99961061310945,0.0013514538756183244
-0.46551892775714804,-0.46551892775714804,0.9994605569632438,0.0013540795661958632
-0.4638099370713462,-0.4638099370713462,1.0012119388466374,0.001447723213254774
-0.46245367975679985,-0.46245367975679985,1.0009309210978823,0.001459638222523855
-0.4606121062726743,-0.4606121062726743,1.0001053745842383,0.0013481789655168993
-0.45889084174159506,-0.45889084174159506,0.9997820481343709,0.001430379086547935
-0.45697740906252876,-0.45697740906252876,1.0019617015653242,0.0013492219674980286
-0.455223668918552,-0.455223668918552,0.9981947038753229,0.001368541328360103
-0.45359025667166863,-0.45359025667166863,0.9996024483384678,0.0013443165022871163
-0.45218722534518746,-0.45218722534518746,0.9981832062109625,0.0013405647738617286
-0.4509409943697392,-0.4509409943697392,1.0010988899969118,0.0013438149735903687
-0.4493047046202264,-0.4493047046202264,0.997670117690791,0.001395213972738476
-0.44843576560524523,-0.44843576560524523,0.9992353950106014,0.001422294846852195
-0.44700213877404166,-0.44700213877404166,0.9996241495258339,0.0014352983456547594
-0.44545326979932726,-0.44545326979932726,1.0007028846243444,0.0013792924416136663
-0.44346679683039836,-0.44346679683039836,1.001298307174339,0.0013801994661137471
-0.4419653915607341,-0.4419653915607341,0.9996037512991217,0.0013480148809924615
-0.4402696150162228,-0.4402696150162228,1.0006418603026386,0.0013603180049109082
-0.4384583547907823,-0.4384583547907823,0.9992965113675121,0.001343366517770515
-0.43653167412521726,-0.43653167412521726,1.0011317315435373,0.001340257431709655
-0.43421844748518196,-0.43421844748518196,1.00002153157215,0.0013704867563972005
-0.4328897456336563,-0.4328897456336563,1.0004419204701458,0.0014683398381030775
-0.4307174727673555,-0.4307174727673555,1.0014186996369052,0.0013458041598549862
-0.4292672477567976,-0.4292672477567976,1.0014381714095606,0.0014165993670054694
-0.42742867417327945,-0.42742867417327945,1.0003228956468546,0.0013395927573058135
-0.42580161795194726,-0.42580161795194726,1.001582530246996,0.0013479810049827922
-0.4249315594370273,-0.4249315594370273,0.9993603145982719,0.0013586669293966353
-0.42312257825251437,-0.42312257825251437,0.9991962722484857,0.0013541042552907398
-0.42194052627091877,-0.42194052627091877,1.0004214003197227,0.0014720198126437674
-0.41991206731618147,-0.41991206731618147,0.9995075888158608,0.0013635140969334154
-0.41886638947216853,-0.41886638947216853,0.9998094591914576,0.001389899030725897
-0.41704103637712253,-0.41704103637712253,0.9993820737554809,0.0013931191064336598
-0.41506788738006434,-0.41506788738006434,0.999718499950238,0.0013783472304263761
-0.4130689965317288,-0.4130689965317288,0.9998722729090017,0.0013414623544639576
-0.4114111926977785,-0.4114111926977785,1.0031654121655786,0.0013449896502852803
-0.4105591083305626,-0.4105591083305626,0.9991630321470776,0.0013507541534822582
-0.4091324433444242,-0.4091324433444242,1.0008810473609675,0.0013540840780056963
-0.40742386355523197,-0.40742386355523197,0.999116568450688,0.0014468415148224908
-0.4060672854848235,-0.4060672854848235,0.9991383272014549,0.0014574613815253284
-0.40422612365910027,-0.40422612365910027,1.001592873949103,0.0013484674239797477
-0.40250456586727523,-0.40250456586727523,0.9997245735834717,0.0014297046576227349
-0.40059110689871885,-0.40059110689871885,1.0026210343486657,0.0013484378876660883
-0.3988373259177024,-0.3988373259177024,0.9987981066703187,0.0013681338155290758
-0.3970293937833048,-0.3970293937833048,1.0019429855464559,0.001345422266344143
-0.39565736742115404,-0.39565736742115404,1.0005984442059792,0.0013392402272960203
-0.3940887605342141,-0.3940887605342141,0.9975061927167281,0.0013647049489891045
-0.3925793523849279,-0.3925793523849279,1.0020551218189868,0.0013720807491584073
-0.39178231039186356,-0.39178231039186356,1.0014833424155984,0.0015091771949638012
-0.39022722704212354,-0.39022722704212354,1.0000402353830864,0.0013422528064057108
-0.38875646786327706,-0.38875646786327706,1.001369392598112,0.0014162000207042376
-0.3868125415065151,-0.3868125415065151,1.001050074157122,0.0013385878318113113
-0.38518175981153036,-0.38518175981153036,1.0011527178620026,0.00134971688154015
-0.38352433160252986,-0.38352433160252986,0.9985124384106696,0.0013608174454074237
-0.38175164503772974,-0.38175164503772974,0.9993886525991609,0.0013420984666087216
-0.3796545592671464,-0.3796545592671464,1.0013786231874178,0.0013466156509862868
-0.3776305359991966,-0.3776305359991966,1.000876550129546,0.0013642187512300284
-0.37602457267348655,-0.37602457267348655,0.9999567227631123,0.0014658042744199195
-0.3739075983743533,-0.3739075983743533,0.9994227917100694,0.0013820094581060986
-0.3720713649305253,-0.3720713649305253,1.001294344587071,0.0013760187777547622
-0.37027182229212485,-0.37027182229212485,1.0011801277161567,0.0013464291822828502
-0.36923374734724346,-0.36923374734724346,1.0010963544921017,0.0013546988281888054
-0.36780022455459405,-0.36780022455459405,1.000614153454299,0.00134537945950916
-0.3661992708337493,-0.3661992708337493,1.0007010112698276,0.001482579110126684
-0.3648692655380728,-0.3648692655380728,1.0007133576598473,0.0013406366929578496
-0.36288011074866516,-0.36288011074866516,0.9994344353716297,0.0013651926599736407
-0.36208198066378827,-0.36208198066378827,1.00129828360827,0.0014422877565245088
-0.36027347974486473,-0.36027347974486473,0.9999488647459638,0.001339798001616308
-0.3583475268489565,-0.3583475268489565,0.9998327142097707,0.0013773271372882895
-0.35632669860351596,-0.35632669860351596,1.0008297002094033,0.0013412931082864763
-0.35473622464051,-0.35473622464051,0.9980736208802137,0.0013461497148031121
-0.35403405801225746,-0.35403405801225746,1.0002344628848547,0.0013521983053990372
-0.3522445233760664,-0.3522445233760664,1.0012746423677836,0.0013534912329008948
-0.3508486102749885,-0.3508486102749885,1.000006810847728,0.0014462097068568957
-0.34934449733300427,-0.34934449733300427,1.0021361971319274,0.0014612556301284306
-0.3476291304839833,-0.3476291304839833,0.9992735366579091,0.0013807027532985463
-0.3456451378922793,-0.3456451378922793,1.0006828569495227,0.0013910079655591852
-0.3437526499808882,-0.3437526499808882,1.001336847763389,0.0013490591971280653
-0.34209315898151543,-0.34209315898151543,1.0027203590988685,0.0013667906478404535
-0.34031851351974185,-0.34031851351974185,1.0002252522508306,0.0013444809594090328
-0.33912501550803426,-0.33912501550803426,1.0021422674122356,0.0013405308531932493
-0.3372534566777176,-0.3372534566777176,1.0028935241524188,0.001394267048936131
-0.33609340614239047,-0.33609340614239047,1.0000436167177424,0.0013433800946994821
-0.33508886744421035,-0.33508886744421035,1.0011975061732037,0.001506220655776303
-0.33349092647185896,-0.33349092647185896,1.000001460757295,0.0013418370743478823
-0.3320490787475137,-0.3320490787475137,1.0020125745411672,0.0014157838543339192
-0.33008282742739536,-0.33008282742739536,0.9992839345427921,0.0013400713040879774
-0.32846973881059965,-0.32846973881059965,0.9999043798112573,0.00136814867107502
-0.32678069632274853,-0.32678069632274853,1.0010008445642962,0.0013404856404150174
-0.3250524424136529,-0.3250524424136529,1.0009883952691037,0.0013415027323964033
-0.32269675867173647,-0.32269675867173647,0.9998402235655105,0.001371172540682994
-0.3211398078728962,-0.3211398078728962,1.0010723021982575,0.0014053911260816503
-0.3190044219631091,-0.3190044219631091,1.001298896199381,0.0014030925627487273
-0.31720658192825796,-0.31720658192825796,1.0001215080642534,0.0014139203527300556
-0.3153155327974673,-0.3153155327974673,1.002077333677166,0.0013420264090419566
-0.3135935480662738,-0.3135935480662738,0.9995796195429619,0.0013466502647697233
-0.3127078675464873,-0.3127078675464873,1.0008491402548247,0.0013538277490983608
-0.3110654783693462,-0.3110654783693462,1.0015881109864007,0.001355225086926338
-0.3096011428944621,-0.3096011428944621,1.0002206604926251,0.0014704772115013095
-0.30801403134682914,-0.30801403134682914,0.9989514195279906,0.001346582365391168
-0.30629614019671864,-0.30629614019671864,0.9993407607537442,0.001357815263359733
-0.305108933820884,-0.305108933820884,1.0005011862873066,0.0014402650024952124
-0.3032343225015211,-0.3032343225015211,1.0018645399859112,0.001340153950219951
-0.3010690827861254,-0.3010690827861254,0.9985469055221247,0.001378269151156654
-0.299220099626109,-0.299220099626109,0.999994333212266,0.001341482288611512
-0.29799088920481154,-0.29799088920481154,0.997504591864784,0.0013539528344519549
-0.2971336469785456,-0.2971336469785456,1.0011425967843868,0.0013429190943475557
-0.2951071850598964,-0.2951071850598964,1.0005318924157458,0.0013518020396023147
-0.2939610044566507,-0.2939610044566507,0.999538124810283,0.0015501336162913567
-0.29211282172873326,-0.29211282172873326,1.0025473584908096,0.0013448035727991262
-0.2906130827006564,-0.2906130827006564,0.9998099926946162,0.001428644930419014
-0.28852841652624195,-0.28852841652624195,1.0006903641208407,0.0013417630289735334
-0.2867266612058302,-0.2867266612058302,1.0022468431892237,0.0013722874561835493
-0.28498817060972215,-0.28498817060972215,1.0009157337133692,0.0013437398274271193
-0.2833236824531923,-0.2833236824531923,1.0009796208260409,0.0013423349302496745
-0.2821821920017101,-0.2821821920017101,1.0018806701933012,0.001342403090510391
-0.2801457505542203,-0.2801457505542203,1.0006405150626256,0.0013941975407902618
-0.27948267189021864,-0.27948267189021864,1.0004959828926576,0.0014195540803609355
-0.2778436283017072,-0.2778436283017072,0.9992875529230286,0.0014294870698864522
-0.2762953289158759,-0.2762953289158759,1.0012371465446297,0.0013770637075412066
-0.2742496282528009,-0.2742496282528009,1.0007386107297551,0.0013787949870617728
-0.2724087323585991,-0.2724087323585991,0.9992637064447425,0.0013488631788564746
-0.27075154260710405,-0.27075154260710405,0.9995827801253135,0.0013598618826670174
-0.2692122431213647,-0.2692122431213647,1.0014340961437038,0.0013410274888083881
-0.26737357367564984,-0.26737357367564984,0.9985787073988744,0.0013401903298713644
-0.26505974553838313,-0.26505974553838313,1.0006089952889177,0.0013694719127439897
-0.26373144705576124,-0.26373144705576124,1.0003689966106117,0.0014607014576324428
-0.26153373437809935,-0.26153373437809935,1.0007960127278792,0.0013715107328337486
-0.2596392628769536,-0.2596392628769536,1.000606175371384,0.0013850414014782342
-0.2581439647332445,-0.2581439647332445,0.9997844519592638,0.0013413361219053717
-0.25664290505337706,-0.25664290505337706,1.0006085839313446,0.001345975506787019
-0.25577206279522213,-0.25577206279522213,1.0001605058517762,0.0013575671175935812
-0.25396333176577174,-0.25396333176577174,0.9991272682326015,0.0013529662099693745
-0.25278293512383243,-0.25278293512383243,0.9992390893674056,0.0014684209533825069
-0.2507537038563896,-0.2507537038563896,1.0009928159955424,0.0013637419767126742
-0.24970825559576043,-0.24970825559576043,1.0010237586113973,0.0013880010184410257
-0.2478825705278723,-0.2478825705278723,1.001285661834951,0.001393299336002336
-0.24590785662840062,-0.24590785662840062,1.0004088701997649,0.0013773106875684036
-0.24391042806928454,-0.24391042806928454,0.9989548204187277,0.001342954534426429
-0.24220463894562272,-0.24220463894562272,1.0001540696425837,0.0013438160240318606
-0.24126180648054288,-0.24126180648054288,1.0003182683835672,0.001350987357039614
-0.23947166632351582,-0.23947166632351582,1.000981336991575,0.0013526040885119427
-0.2380763836961705,-0.2380763836961705,1.0028602131136735,0.001442482166996818
-0.23657197749926126,-0.23657197749926126,0.9999211942115384,0.001456199326784965
-0.23485713213158305,-0.23485713213158305,1.0016183253633741,0.001380601754365388
-0.23296553655309254,-0.23296553655309254,1.001208206048619,0.0013904856481109587
-0.23143220661186206,-0.23143220661186206,1.0002330239014512,0.0013480303798014091
-0.2296783011559455,-0.2296783011559455,1.0004593896178529,0.0013654531487064354
-0.2278697766847472,-0.2278697766847472,0.9999925573835101,0.0013456542486496056
-0.22640893625793979,-0.22640893625793979,1.0000717742660168,0.0013395164615997881
-0.22456991528997605,-0.22456991528997605,0.9999659506521864,0.0013653787347835177
-0.22342111235120682,-0.22342111235120682,1.0010434342081822,0.001369257914915002
-0.2225206823233748,-0.2225206823233748,1.0018405441502645,0.0015008148492646814
-0.22071888426071382,-0.22071888426071382,0.9997544073201075,0.001341155201275371
-0.21927686260642076,-0.21927686260642076,1.000868054100638,0.001414682114930182
-0.21713599088143382,-0.21713599088143382,0.9992515577303218,0.0013408600033500036
-0.21547113990636718,-0.21547113990636718,0.9993407959355233,0.001367224687421582
-0.2140065857089212,-0.2140065857089212,0.9994953994912643,0.0013410961472825702
-0.21184393804905993,-0.21184393804905993,1.0002460731521032,0.0013415665905586263
-0.20942488619584765,-0.20942488619584765,1.0002661348166602,0.0013701960349541665
-0.20806640401024196,-0.20806640401024196,1.0005559990494415,0.0014591704333814762
-0.20606278943596407,-0.20606278943596407,1.00002920326594,0.001339918974540379
-0.20443329231966345,-0.20443329231966345,1.0003625022808644,0.0014113279920248607
-0.20258449917455437,-0.20258449917455437,1.0001186918766867,0.0013425595337398211
-0.2011123656629934,-0.2011123656629934,1.0001427908931222,0.0013452135580706635
-0.20007545345652034,-0.20007545345652034,1.001611343799975,0.0013543050092892272
-0.19864105278429633,-0.19864105278429633,1.0021631111611609,0.0013450544806139126
-0.19704044517347938,-0.19704044517347938,1.0017743998047162,0.0014784261464957384
-0.19571139603649498,-0.19571139603649498,0.9979683371889182,0.001339613223878867
-0.19372145024608473,-0.19372145024608473,0.9992581047150779,0.0013648426606963295
-0.19271812558508827,-0.19271812558508827,0.9997349543427159,0.0014376401006717808
-0.1907633206821629,-0.1907633206821629,0.9990436394479486,0.0013398142808196006
-0.1887763523573085,-0.1887763523573085,1.0016111329808444,0.0013782754936768307
-0.18686312778518185,-0.18686312778518185,1.0024889111635693,0.0013426575418852985
-0.1852181543552433,-0.1852181543552433,0.998363502649735,0.0013544072062272024
-0.18436125191619795,-0.18436125191619795,0.999800210113513,0.0013426746842207353
-0.18233430456457428,-0.18233430456457428,1.000502746028153,0.0013522076055030848
-0.18118865733777056,-0.18118865733777056,0.9984825777529138,0.0015449454850022552
-0.17934076922938402,-0.17934076922938402,1.000999432430454,0.001343308382016959
-0.1778408326790668,-0.1778408326790668,0.9974400258611944,0.0014283156010327512
-0.17575643556920112,-0.17575643556920112,0.9980552956950799,0.0013401126117828807
-0.17408661876761472,-0.17408661876761472,1.0002877130348036,0.0013722933727856978
-0.1725730617723457,-0.1725730617723457,1.0010321358794287,0.0013437929078088625
-0.1708631742712896,-0.1708631742712896,1.001957761975907,0.001343604097392153
-0.1694388262108987,-0.1694388262108987,0.9983333469567128,0.0013413668582478592
-0.16737311773904368,-0.16737311773904368,1.0006134979975176,0.001392198781118583
-0.16629618195438525,-0.16629618195438525,1.000569677113369,0.0014976946656894295
-0.16433286489154852,-0.16433286489154852,1.001059284732573,0.0013427880824490234
-0.16289075627537386,-0.16289075627537386,1.0004615018968208,0.0014127531643097382
-0.16103835970134242,-0.16103835970134242,1.000209305280222,0.001342584434086514
-0.15934264442948914,-0.15934264442948914,1.002837359155937,0.0013485281619683577
-0.1579787570928602,-0.1579787570928602,1.0020805982128844,0.0013611514269526886
-0.15595613241384854,-0.15595613241384854,1.0005530890479553,0.0013416455269510573
-0.15411020033679962,-0.15411020033679962,0.9997014310598317,0.0013460866057626955
-0.15208642102406883,-0.15208642102406883,1.000978800488094,0.0013608660739613222
-0.15053143117293075,-0.15053143117293075,0.9996106942698496,0.0014565938258748622
-0.14876135701597376,-0.14876135701597376,0.9980208409142041,0.00137044524937084
-0.14686628997042134,-0.14686628997042134,1.0018724334436553,0.0013830895105145446
-0.14537151089170947,-0.14537151089170947,1.0007742585147916,0.0013423047688901973
-0.1438704345753649,-0.1438704345753649,0.9991369055744361,0.0013451442833113812
-0.14325041568772576,-0.14325041568772576,1.0022588790347888,0.001356897714496415
-0.1414845323724876,-0.1414845323724876,0.9987723054491859,0.0013531503273732494
-0.14025429129796976,-0.14025429129796976,1.0001215257105858,0.0014658900877790155
-0.13841148042811255,-0.13841148042811255,1.0026872205991677,0.0013653371585837194
-0.13703324448033527,-0.13703324448033527,0.9991279667940958,0.0013858282721606776
-0.13553382172867715,-0.13553382172867715,0.9996360794300644,0.0013927668367677338
-0.13361812781477056,-0.13361812781477056,1.0015489333858238,0.0013504699947742417
-0.13150294405058957,-0.13150294405058957,0.9997004538795112,0.001371898004397591
-0.12972674577576981,-0.12972674577576981,0.9997588295573726,0.0013444007924787989
-0.12862862340734865,-0.12862862340734865,0.999510275299286,0.0013517414401198393
-0.12720003021167942,-0.12720003021167942,0.9986615393250806,0.0013517892759782892
-0.12549351097040926,-0.12549351097040926,1.0016779867457175,0.0014410180399639044
-0.12413532320570084,-0.12413532320570084,0.9996669083759511,0.001449949131471295
-0.12229622706654482,-0.12229622706654482,0.9983455803330887,0.0013430338763089362
-0.12057319571867993,-0.12057319571867993,0.9988933719425154,0.0014278407330895065
-0.11870624593211687,-0.11870624593211687,1.0016155918677523,0.0013417211360315438
-0.11717675152613083,-0.11717675152613083,1.001394830490571,0.0013702029871264173
-0.11552363970185979,-0.11552363970185979,0.9994596357158336,0.0013419565959464721
-0.11381537455781654,-0.11381537455781654,0.999717379643798,0.001342383115585508
-0.11215734274410352,-0.11215734274410352,1.0004450821364654,0.0013649199259666716
-0.11064902189173154,-0.11064902189173154,1.0009459151668665,0.001369321889127738
-0.10915585641851067,-0.10915585641851067,0.9978435264232575,0.0014941294520722293
-0.107348842787178,-0.107348842787178,1.0026925018467925,0.0013445912181517237
-0.1056203901374829,-0.1056203901374829,1.0010009919214709,0.0014141513702471886
-0.10364764179757913,-0.10364764179757913,0.9993595836357437,0.0013457546485437315
-0.10217156200524187,-0.10217156200524187,1.0004238179692995,0.0013605537018275993
