time,time,flux,flux_err
-0.4989070621935146,-0.4989070621935146,1.0002973850505592,0.00022790553029594716
-0.49556690723936,-0.49556690723936,1.0000319152145076,0.00022468548418071968
-0.49320232354997035,-0.49320232354997035,0.9999211281706635,0.00022629898955113512
-0.48841567778921063,-0.48841567778921063,0.9998616422003542,0.00022633504343344112
-0.4859840623830678,-0.4859840623830678,1.000019375181446,0.0002065334059078915
-0.48350602107529994,-0.48350602107529994,0.9997480614792389,0.00020622113217722685
-0.4822102991602151,-0.4822102991602151,1.0000010377745643,0.00020592357820288336
-0.4814729952340713,-0.4814729952340713,0.9999180177901223,0.00020603634255223386
-0.4801589548762422,-0.4801589548762422,1.0001683451964696,0.0002062371325531778
-0.47870885221345816,-0.47870885221345816,0.9996898532465046,0.00020634237391356402
-0.47655465148272924,-0.47655465148272924,0.9997941789229075,0.000206568902226438
-0.4747364700131584,-0.4747364700131584,0.9998218286965409,0.00020661148079049717
-0.4735701139521552,-0.4735701139521552,1.0000713902076008,0.00019783898132436946
-0.4728093790647108,-0.4728093790647108,1.0001670316536206,0.00021460975154975214
-0.4711679248895962,-0.4711679248895962,1.0000295772697927,0.00020932670951305082
-0.4681782679952448,-0.4681782679952448,1.000072230795072,0.00020651047629245486
-0.4661946685198927,-0.4661946685198927,0.9998728726799253,0.00020635713038003357
-0.46300850343250205,-0.46300850343250205,1.000294072609045,0.00020673040865734496
-0.4600868168461602,-0.4600868168461602,0.9998961643977008,0.0002066198233737506
-0.45837450847320726,-0.45837450847320726,0.9998784882895144,0.00020657912548104914
-0.4556112485559424,-0.4556112485559424,0.999680189533948,0.00020624130671890377
-0.4542783470911672,-0.4542783470911672,0.9999543944945322,0.0002062200329001989
-0.4536280663276557,-0.4536280663276557,1.000375507663636,0.00020605585917724974
-0.45216145157755816,-0.45216145157755816,1.0001108284193054,0.0002062225823791902
-0.45089441928139423,-0.45089441928139423,0.9998860129295739,0.00020630176631619997
-0.4489897323685,-0.4489897323685,1.000253067928098,0.00020669958025438802
-0.44717211396200585,-0.44717211396200585,1.000044644845023,0.00020665810042585237
-0.44583209156407977,-0.44583209156407977,1.0000126877489717,0.00022031173001729596
-0.44514106810092924,-0.44514106810092924,0.9998786274633009,0.00020751338932379162
-0.4439937674207613,-0.4439937674207613,1.000006037348275,0.00020670809939381474
-0.4406476970412768,-0.4406476970412768,0.999788405047789,0.00020649368208785105
-0.43811254235042724,-0.43811254235042724,1.0001177158136092,0.00020516672989558953
-0.4338587781559909,-0.4338587781559909,0.9997904311522611,0.0002066700732713497
-0.4318107319268165,-0.4318107319268165,1.0001850175174862,0.0002068537416541428
-0.4296587026823545,-0.4296587026823545,0.9997636246903756,0.0002064198217644447
-0.42717690877325365,-0.42717690877325365,1.0002167462141753,0.00020601488990041288
-0.4262682773609413,-0.4262682773609413,1.0000611267663446,0.00020593622714823933
-0.4252024275978329,-0.4252024275978329,0.999675092952811,0.00020606242677233976
-0.42355438267695716,-0.42355438267695716,0.9997842963412124,0.00020627805852687595
-0.42190088592178654,-0.42190088592178654,0.9998902068312837,0.00020652099323885143
-0.41989426312502476,-0.41989426312502476,0.9998871096449656,0.00020667221360706569
-0.41849043178081047,-0.41849043178081047,0.9997191510036749,0.00020143457570024728
-0.4175563780212542,-0.4175563780212542,0.9995983959657282,0.00020899450142036535
-0.41690089903422634,-0.41690089903422634,1.000032769721856,0.00020843325738438144
-0.41487485835677945,-0.41487485835677945,1.0000017174638176,0.00020656175200845943
-0.4119786708644824,-0.4119786708644824,0.9999363998849826,0.00020473730909139677
-0.41027281198475973,-0.41027281198475973,1.000169089811751,0.00020664995248353266
-0.4060861230915179,-0.4060861230915179,1.000100178948763,0.0002066851307110711
-0.4035878239956219,-0.4035878239956219,0.9997059267815503,0.0002065211383297281
-0.40114800196897704,-0.40114800196897704,0.9999211581619019,0.00020636288966235233
-0.39928425815596713,-0.39928425815596713,1.0000186230338526,0.00020596030585275587
-0.3984902323136339,-0.3984902323136339,0.9999669309783806,0.00020614244659505904
-0.39776998065062796,-0.39776998065062796,1.0001256411926709,0.00020619456429398002
-0.3961814226495335,-0.3961814226495335,0.999742335277995,0.00020628443307450008
-0.39515521941066256,-0.39515521941066256,0.9996236782633069,0.000207519155820658
-0.39327037166513035,-0.39327037166513035,1.0002423822693465,0.0002066327411741317
-0.39145232214650605,-0.39145232214650605,1.0003017391311495,0.0002066648680818167
-0.39012036206549966,-0.39012036206549966,1.0000318637909515,0.000214301704815298
-0.38938593690400014,-0.38938593690400014,0.9997161551065457,0.00020784789199351154
-0.38733177637623156,-0.38733177637623156,0.9998475657942947,0.000206530704357384
-0.38434055651596283,-0.38434055651596283,0.9999010632971157,0.00020574312160375475
-0.38196157273487186,-0.38196157273487186,0.9999529690943751,0.0002059950343807971
-0.37827666277007665,-0.37827666277007665,1.0000087034723357,0.0002066357346161358
-0.37621508082665966,-0.37621508082665966,1.0000168763508561,0.00020665313253208766
-0.3739856536645675,-0.3739856536645675,0.999980385461963,0.00020650165846485157
-0.37153801947424653,-0.37153801947424653,0.9998238740787487,0.0002060404850044657
-0.3706330326182069,-0.3706330326182069,1.0000337575019753,0.00020599166360883524
-0.36955394269316455,-0.36955394269316455,1.0000505868239533,0.0002061308723522651
-0.3680115862895036,-0.3680115862895036,1.0003531200444464,0.000206281120759665
-0.3666617266018875,-0.3666617266018875,0.9997781484136471,0.0002064855852799519
-0.36448354533931704,-0.36448354533931704,0.9999363166828313,0.00020662758694377296
-0.3630046487029176,-0.3630046487029176,0.999799723596128,0.00020211366165240173
-0.36212146232137454,-0.36212146232137454,0.9996933068277721,0.00022571743861199612
-0.36137789628410244,-0.36137789628410244,1.0000596227716536,0.00021016135149434478
-0.3595039682899369,-0.3595039682899369,1.00000539471814,0.00020788593454902746
-0.35626519975776316,-0.35626519975776316,1.0004042838148284,0.00020500706075897223
-0.3541136588959489,-0.3541136588959489,1.000165526114038,0.00020683847617287317
-0.3498773039085791,-0.3498773039085791,0.9998874100078883,0.00020662444947144154
-0.34823216569493526,-0.34823216569493526,0.9995963212413802,0.0002068167797141843
-0.34600077457143924,-0.34600077457143924,0.9999862949804437,0.00020648660592464762
-0.3438687010493595,-0.3438687010493595,0.9999851527868909,0.00020601087191529614
-0.3429597016394837,-0.3429597016394837,0.9998381067715638,0.00020597114058070812
-0.3418963778472971,-0.3418963778472971,1.0000947154329107,0.0002061292676461303
-0.3402527734520845,-0.3402527734520845,0.9998594688328571,0.00020629631043720987
-0.3386111132160295,-0.3386111132160295,0.9998104429015701,0.0002064854606879484
-0.3363247123925248,-0.3363247123925248,0.9998719577412662,0.00020663510110129516
-0.33495362634712367,-0.33495362634712367,1.0001245720180658,0.00020137090095864084
-0.334139876140398,-0.334139876140398,0.9999228850509063,0.00020955743829170637
-0.33302208272507416,-0.33302208272507416,1.0001032633417062,0.00020871843151779843
-0.3304388402350014,-0.3304388402350014,0.9996200029146737,0.0002064574738279916
-0.3279354486759985,-0.3279354486759985,1.0001838343828797,0.00020426268930468072
-0.3257631111686351,-0.3257631111686351,0.9999240414509447,0.00020716501175923135
-0.32136476250598206,-0.32136476250598206,0.999804338041891,0.0002066315986636909
-0.3193948573200032,-0.3193948573200032,0.9999642255901449,0.00020655827325187092
-0.31666115673433526,-0.31666115673433526,0.9998712281067392,0.0002061723290749935
-0.3154407761438051,-0.3154407761438051,0.9998056209409268,0.00020598965774395827
-0.31485344566463025,-0.31485344566463025,1.0000136377993556,0.00020599132173637987
-0.3138430488412268,-0.3138430488412268,0.9997823562443354,0.0002065318536402608
-0.31235078773170244,-0.31235078773170244,1.0000447930609635,0.00020627170641439262
-0.31096045341400896,-0.31096045341400896,1.0001454067434674,0.00020650988656869537
-0.3087620274774963,-0.3087620274774963,1.0000826743323992,0.0002066524849575097
-0.3072939912235597,-0.3072939912235597,1.0001556582742503,0.00020283077867610686
-0.30641104334208646,-0.30641104334208646,1.0001539995435338,0.00021743523665525055
-0.30502659026533363,-0.30502659026533363,1.00007490223016,0.00021012599755331347
-0.30231216857791876,-0.30231216857791876,1.000098410489535,0.00020650348120270005
-0.2997213885857491,-0.2997213885857491,1.0000550780711877,0.00020522008987597075
-0.296439551221556,-0.296439551221556,0.9998362328761932,0.0002066044517732694
-0.2932246768265031,-0.2932246768265031,0.9997904451418755,0.00020657129503791447
-0.29132185415946876,-0.29132185415946876,0.9999683167403226,0.00020654209224788673
-0.28850282193743626,-0.28850282193743626,0.9999981129438925,0.0002061688093269907
-0.2874711343436502,-0.2874711343436502,1.000367090191655,0.00020592558532191185
-0.2865343587531243,-0.2865343587531243,0.9997942284816999,0.0002060375388983295
-0.2849740346544422,-0.2849740346544422,0.999802806340357,0.00020627574311707163
-0.28374316565168556,-0.28374316565168556,1.0004069228592976,0.00020648782967324877
-0.28153748928161804,-0.28153748928161804,0.9997853175086966,0.0002066358560692037
-0.280014081846457,-0.280014081846457,1.00000379755518,0.00020663062792181355
-0.27897072384366767,-0.27897072384366767,1.0002600790498188,0.00022629288212612676
-0.2782776955224108,-0.2782776955224108,1.0000144301393794,0.00021054827994733687
-0.27678936647134833,-0.27678936647134833,0.9999303804607989,0.00020804277410547668
-0.273507807549322,-0.273507807549322,0.9996952410715944,0.00020554394159759634
-0.27143246759078465,-0.27143246759078465,0.9999020576106881,0.0002060975905647328
-0.2677190400485415,-0.2677190400485415,0.9999394278523669,0.00020653530656604332
-0.2653531930409372,-0.2653531930409372,1.0000209350428784,0.00020666410687598483
-0.2632536734483438,-0.2632536734483438,1.0000865740815712,0.00020653522039884177
-0.2608280901244143,-0.2608280901244143,1.0003470887060888,0.00020622991576262962
-0.25980129138333724,-0.25980129138333724,0.9997945993085153,0.00020584074174433806
-0.2590387057251064,-0.2590387057251064,0.999818882750206,0.00020603279707888337
-0.25755626063037196,-0.25755626063037196,1.0001953597421163,0.0002062445298523387
-0.25641849554667717,-0.25641849554667717,1.0000611087110685,0.0002396029552161522
-0.25426708439481444,-0.25426708439481444,0.9998976022565802,0.00020666132722297129
-0.2524487332761055,-0.2524487332761055,1.0001775852222532,0.00020666710721271714
-0.25129148448468186,-0.25129148448468186,0.9997000983359353,0.00019808752742855995
-0.25052302005933597,-0.25052302005933597,1.0001750467632913,0.00021330980859730412
-0.24887338474509307,-0.24887338474509307,1.0001668755708288,0.00020891266908974727
-0.24595685340173076,-0.24595685340173076,0.9995802580932244,0.00020532489431568363
-0.24416380107577423,-0.24416380107577423,1.0000410257839463,0.00020601876732787212
-0.24130368612241,-0.24130368612241,1.0002252252736907,0.00020694902859696505
-0.23779792284185533,-0.23779792284185533,1.0000973924233876,0.00020666368948925074
-0.23610037117032334,-0.23610037117032334,1.0001092340452977,0.00020657310958351583
-0.2333540087332949,-0.2333540087332949,1.0001163285401509,0.00020628763085049485
-0.23214032665418927,-0.23214032665418927,1.0002213273961686,0.00020602402577071834
-0.2315437823504908,-0.2315437823504908,1.0000115770353477,0.00020603042421435497
-0.2302456280682236,-0.2302456280682236,0.999821676451558,0.00020620948082025465
-0.22881588648597245,-0.22881588648597245,0.9999486878280743,0.0002063712082752931
-0.22721040108881424,-0.22721040108881424,1.0000430635614066,0.00020651430390301238
-0.22514572902582586,-0.22514572902582586,1.000136494754682,0.0002066322097454798
-0.22379170191998127,-0.22379170191998127,1.0001187629088952,0.00020264699363181055
-0.2229562613501912,-0.2229562613501912,0.9999916150982513,0.00022277259896497044
-0.22170440297632013,-0.22170440297632013,1.000140352664737,0.00020671258504567945
-0.219036222336581,-0.219036222336581,0.9998677946577545,0.00020649959259973848
-0.2164306061458774,-0.2164306061458774,0.9999922061488536,0.00020516032829371493
-0.21315513371955602,-0.21315513371955602,1.0000753750520543,0.00020668351534018674
-0.20993843983742408,-0.20993843983742408,0.9998559011457522,0.00020664381993879306
-0.20802676069142761,-0.20802676069142761,0.9995550218279288,0.0002065222649160267
-0.20519317173457238,-0.20519317173457238,0.9998789451713976,0.00020617270588867525
-0.20416260451311247,-0.20416260451311247,0.9995232074862754,0.00020585047137935343
-0.2032285860128468,-0.2032285860128468,1.0000900408246538,0.00020607309798820035
-0.20167285818024538,-0.20167285818024538,1.0001499557172755,0.00020630396680118205
-0.2004494376014918,-0.2004494376014918,0.9997806202206354,0.00020640427169639798
-0.1983998245181283,-0.1983998245181283,0.9995398994619086,0.00020659757611990833
-0.19698999001993797,-0.19698999001993797,1.0002036394626577,0.00020666675218551588
-0.19579451894096564,-0.19579451894096564,1.000128939146488,0.00019901554881704146
-0.19499068074510434,-0.19499068074510434,1.000003563511445,0.00021103740150774648
-0.193510441845865,-0.193510441845865,1.000214937007535,0.0002082346346153949
-0.19022676347522066,-0.19022676347522066,1.0001371249473645,0.00020550335044776982
-0.1884669528750237,-0.1884669528750237,0.999910446496744,0.0002058707434461213
-0.18474710198061076,-0.18474710198061076,0.9997255462538315,0.00020666291352253096
-0.182066745418706,-0.182066745418706,0.9998044359281943,0.0002066581568740485
-0.17995793414884248,-0.17995793414884248,1.0001895826457705,0.0002065405379342386
-0.17751869235071355,-0.17751869235071355,0.9999528042677044,0.00020619589169927982
-0.17649303612997755,-0.17649303612997755,0.9997987501394237,0.0002058244685165279
-0.1757307905878406,-0.1757307905878406,1.0001131310201659,0.00020606389502579432
-0.17425119111139792,-0.17425119111139792,1.0000161377439647,0.00020620796721434022
-0.17284378816548268,-0.17284378816548268,0.9999045662728218,0.00020641792153301756
-0.17052838173985946,-0.17052838173985946,0.9998618456082582,0.0002066070624303566
-0.16885611164034345,-0.16885611164034345,1.0001567955881316,0.0002012997548674989
-0.1678357094351668,-0.1678357094351668,0.9998936260392334,0.0002127768756277096
-0.16709936807747,-0.16709936807747,1.000112568141228,0.0002074374151882418
-0.16503727803647053,-0.16503727803647053,1.0000271428908474,0.0002065807271649155
-0.16212890979659278,-0.16212890979659278,0.9998755206214694,0.00020534142911551577
-0.16062482961860952,-0.16062482961860952,1.0002015787638872,0.00020635802844054
-0.1575419133529067,-0.1575419133529067,0.9998748063838038,0.00020666414856112533
-0.15479306713968982,-0.15479306713968982,0.9999486937706641,0.00020662200300172688
-0.15320213745580985,-0.15320213745580985,1.0002074034862247,0.00020664060842021277
-0.15056870744447223,-0.15056870744447223,0.9995451896440564,0.00020627214924327873
-0.14898009830794762,-0.14898009830794762,1.000215750279378,0.00020579039245932244
-0.14834706727706362,-0.14834706727706362,0.9996054963244372,0.00020622056086651392
-0.14729233774123712,-0.14729233774123712,0.9997951002189547,0.00020610547069547955
-0.14574720704113134,-0.14574720704113134,1.0000005764771696,0.00020628723378086528
-0.14438115880766417,-0.14438115880766417,0.9996100617311541,0.00020652387134282956
-0.1421948841045378,-0.1421948841045378,0.99987155117622,0.0002066422172330364
-0.1407203321083216,-0.1407203321083216,1.000244698602377,0.00020237424478884047
-0.13983728260791395,-0.13983728260791395,0.9999641568649332,0.00022133541025280172
-0.1390917020093184,-0.1390917020093184,1.000067895877717,0.00020964248894974816
-0.13651415163767525,-0.13651415163767525,0.9999599720491389,0.0002065579194611845
-0.13352212310710457,-0.13352212310710457,1.000180659308263,0.00020467773067653797
-0.13009869228699245,-0.13009869228699245,1.0000081452041214,0.0002071514057300466
-0.12665225448436104,-0.12665225448436104,1.0001495786482348,0.00020667159781549935
-0.12473175000341144,-0.12473175000341144,1.0002587732615833,0.00020655584363178892
-0.12188357808045111,-0.12188357808045111,1.0001210790542667,0.0002062498755826626
-0.1208541353349574,-0.1208541353349574,0.9995430331519577,0.00020583349708499935
-0.1199228665616829,-0.1199228665616829,0.9998568322879177,0.00020605306797277534
-0.11826715719071217,-0.11826715719071217,0.9998404438843913,0.0002061949406886622
-0.11679326987941749,-0.11679326987941749,0.9999444101993653,0.00020653520575567968
-0.11464767158322502,-0.11464767158322502,0.9999621616140437,0.00020666136069549105
-0.11314461817964912,-0.11314461817964912,1.0002214338694615,0.0002014773963228879
-0.11213972747791559,-0.11213972747791559,1.0002751873122,0.0002023124240365735
-0.11136762015812565,-0.11136762015812565,0.9999597554493171,0.00021483021737616278
-0.10930127557367086,-0.10930127557367086,1.0000247610518702,0.00020656321830157782
-0.1064073067100253,-0.1064073067100253,1.000146806062938,0.0002047946804078206
-0.10470193547080271,-0.10470193547080271,1.0001029561261743,0.0002066844003646136
-0.10051452042825985,-0.10051452042825985,1.0001513663437596,0.0002066767228305313
-0.09801789411576464,-0.09801789411576464,0.9999359633113807,0.00020656137720350857
-0.09558175859274343,-0.09558175859274343,0.9998360929208514,0.00020639686903890908
-0.0937204547051806,-0.0937204547051806,0.999886842744768,0.00020593569759474518
-0.09292393240029924,-0.09292393240029924,1.0000239578605308,0.00020610820975364093
-0.0922060157492524,-0.0922060157492524,1.0000301908293605,0.00020606521687981994
-0.0906150948634604,-0.0906150948634604,1.0000267380074952,0.00020627780316315623
-0.08920047196443193,-0.08920047196443193,0.99982624750749,0.00020639891947934748
-0.08680922138155438,-0.08680922138155438,0.9995941076966478,0.00020661117159780242
-0.08529300010413862,-0.08529300010413862,0.9996787747160012,0.00020661808989526513
-0.08427353642182425,-0.08427353642182425,0.999902672705019,0.00021199582330495745
-0.08317697692255024,-0.08317697692255024,0.9997946853420195,0.00020964193094091932
-0.0806075609056279,-0.0806075609056279,0.9998226531023606,0.0002064817152453601
-0.07788689935114235,-0.07788689935114235,1.000043053753147,0.00020647957013274288
-0.07576866782910656,-0.07576866782910656,0.9998286380737499,0.00020660042530885078
-0.07207581357506569,-0.07207581357506569,1.0001778117351405,0.0002066512221895411
-0.07029457529133651,-0.07029457529133651,0.9998238933565631,0.00020662925143925852
-0.06782382424571551,-0.06782382424571551,1.000399212369198,0.0002063887872381933
-0.06575478506274521,-0.06575478506274521,1.0001114288939548,0.0002060268937225834
-0.06504306240240113,-0.06504306240240113,1.0002033749894097,0.00020634226098649377
-0.06398853776336182,-0.06398853776336182,1.0003212142583677,0.00020616589479655468
-0.06257729354547337,-0.06257729354547337,0.9999086286357279,0.00020627351802417803
-0.06146820712601766,-0.06146820712601766,0.9999588937124484,0.00020644822818285504
-0.059248372350702995,-0.059248372350702995,1.0003119326540804,0.00020665967023256356
-0.05772665081021842,-0.05772665081021842,0.9998124964380992,0.00020663891462658238
-0.05668901190801989,-0.05668901190801989,1.0001000817637087,0.00022037242969825006
-0.055993760039564223,-0.055993760039564223,0.9999550612930477,0.00020996925830204616
-0.05449463288823608,-0.05449463288823608,0.9999176390792373,0.00020791203141293257
-0.05121591140050441,-0.05121591140050441,0.999994417419288,0.00020555120506583202
-0.04856465969060082,-0.04856465969060082,0.9999233140762079,0.00020610976348901084
