time,time,flux,flux_err
-0.4995371010925737,-0.4995371010925737,1.0000306490312105,5.967423136267549e-05
-0.49916304495127406,-0.49916304495127406,0.9999745361461516,6.064147453878405e-05
-0.49860134297050535,-0.49860134297050535,1.0000486401878739,5.9595898095825384e-05
-0.4981960251738201,-0.4981960251738201,1.0000101060532862,6.138797256284864e-05
-0.49793143933347894,-0.49793143933347894,0.9999752301235713,5.9864187312030566e-05
-0.4975650272157509,-0.4975650272157509,1.0000407163820342,5.947222903195026e-05
-0.4968759688155842,-0.4968759688155842,0.999869229900427,6.061470890453218e-05
-0.49666672684106744,-0.49666672684106744,0.9999460150660899,5.9569899407458346e-05
-0.49637623873131814,-0.49637623873131814,0.999917779648859,6.105010379001431e-05
-0.4958503615707741,-0.4958503615707741,1.0000131963993,6.0344552377675505e-05
-0.4953988582754391,-0.4953988582754391,0.999954282157319,6.068467149725815e-05
-0.4946466143039288,-0.4946466143039288,1.0000151019767087,6.0136278776182675e-05
-0.49414784224063624,-0.49414784224063624,0.9999768031622163,5.998308142607078e-05
-0.49384602014470147,-0.49384602014470147,1.0000204780876187,6.017017477505666e-05
-0.49310315780021485,-0.49310315780021485,1.0000248228907807,5.947143892259757e-05
-0.4927863701741444,-0.4927863701741444,1.0000111046475009,6.089714937542928e-05
-0.49252512275561455,-0.49252512275561455,1.0000400193928576,5.964083402632325e-05
-0.4922771060882951,-0.4922771060882951,0.9999565275379101,5.960914337741138e-05
-0.4914691423167824,-0.4914691423167824,0.9999713462141108,5.985956296592675e-05
-0.4909777450578986,-0.4909777450578986,0.9999956035156277,5.946447459703239e-05
-0.49038776199449785,-0.49038776199449785,1.0000068311209167,6.0087826890126076e-05
-0.48998563945351636,-0.48998563945351636,0.9999914308427641,6.177709877190109e-05
-0.48941224181617143,-0.48941224181617143,1.000067504457554,5.9934368352716356e-05
-0.4889129635528661,-0.4889129635528661,0.9999544971040955,6.0553715469192634e-05
-0.48856534094229576,-0.48856534094229576,1.0000636862937393,5.9728072805191646e-05
-0.4880690144695109,-0.4880690144695109,0.999871161809741,5.992077464211735e-05
-0.4875340773825883,-0.4875340773825883,1.000070661144653,6.064944207850591e-05
-0.4872248578365543,-0.4872248578365543,0.9999820177128486,5.9491327393386995e-05
-0.48684847562981304,-0.48684847562981304,1.0001341780665325,6.000261352567405e-05
-0.48607293467794077,-0.48607293467794077,1.0000595897114648,5.955155415765179e-05
-0.4856213566294173,-0.4856213566294173,1.0000856069060673,5.912836358376751e-05
-0.4851623574140831,-0.4851623574140831,0.9999800432152043,5.996723381116509e-05
-0.4847101005230797,-0.4847101005230797,1.0000312566372143,6.08921452272032e-05
-0.4838595307082869,-0.4838595307082869,1.0001705298404062,6.0135635252386765e-05
-0.48335016307100886,-0.48335016307100886,0.999983906215626,6.002218202060158e-05
-0.48283813342422943,-0.48283813342422943,1.0000902234495106,5.999814380020368e-05
-0.4822044320288114,-0.4822044320288114,0.9999357421206728,6.0405295239420485e-05
-0.4817572502186522,-0.4817572502186522,1.0000349692282227,5.987797442243255e-05
-0.48145626365876526,-0.48145626365876526,0.9999238937639173,6.128995729661655e-05
-0.48091440077114384,-0.48091440077114384,1.0000747055294592,5.986585366206915e-05
-0.4803346173255704,-0.4803346173255704,1.0000816735842797,6.008808297075173e-05
-0.48016172785282835,-0.48016172785282835,1.0000692466689676,5.9921968402532085e-05
-0.47959688560804353,-0.47959688560804353,0.9999834982538645,6.024792274784851e-05
-0.4792958459496731,-0.4792958459496731,1.0000128216837139,6.04364846614586e-05
-0.47871898370358396,-0.47871898370358396,1.0000487756694685,6.049616116148684e-05
-0.47810586456471355,-0.47810586456471355,0.9999538082314551,5.954680193012962e-05
-0.477525646322465,-0.477525646322465,1.0000569447703125,6.024229762596529e-05
-0.47709339798166184,-0.47709339798166184,0.9999838642953159,5.9838645210247364e-05
-0.47655417637724895,-0.47655417637724895,1.0000217856563633,5.9862482155233664e-05
-0.47625489817291966,-0.47625489817291966,0.999956568623577,6.105588945756868e-05
-0.47601549281389455,-0.47601549281389455,1.000087040261068,5.949924338110239e-05
-0.47547986709250833,-0.47547986709250833,0.9999611648560205,5.936613498537252e-05
-0.4750275281781796,-0.4750275281781796,1.000033801693933,5.984842349105413e-05
-0.4746351338617387,-0.4746351338617387,1.0000271180908222,5.92542864346171e-05
-0.47405661317316117,-0.47405661317316117,0.9999507470405099,6.007253486173206e-05
-0.4736893355511711,-0.4736893355511711,0.999911995910274,6.08168424947993e-05
-0.47323757795238636,-0.47323757795238636,1.000021678784588,6.100569956339704e-05
-0.4724867007913417,-0.4724867007913417,0.9999298603741373,6.021340461267598e-05
-0.4722680161692551,-0.4722680161692551,0.9999984860669302,6.0412078728150156e-05
-0.4717298480027239,-0.4717298480027239,0.9999484970167654,5.9626159944504345e-05
-0.47136421412142226,-0.47136421412142226,0.9999832062652878,6.128576625017397e-05
-0.47109265955368756,-0.47109265955368756,1.0000345533916897,6.063969889784215e-05
-0.4708221429478726,-0.4708221429478726,1.0000285855961077,5.949730901815233e-05
-0.4705953166107065,-0.4705953166107065,1.0000273323895439,5.9501393073027434e-05
-0.47006346875277816,-0.47006346875277816,1.000103545013871,5.95900023446007e-05
-0.4694164956497843,-0.4694164956497843,1.0000050347370881,5.954783714113643e-05
-0.4690775908093201,-0.4690775908093201,1.0000340634077065,5.993423662403309e-05
-0.4685342727578245,-0.4685342727578245,1.00006403270834,5.9803668010278024e-05
-0.4681908255588496,-0.4681908255588496,0.9999042095817895,6.0043018687733524e-05
-0.4673294264750439,-0.4673294264750439,1.0001397610578358,6.048081577444631e-05
-0.4667161414035945,-0.4667161414035945,1.0001233472738593,6.023857312078642e-05
-0.4662808934925124,-0.4662808934925124,0.9999659657044653,6.0534383565184944e-05
-0.4657652103793225,-0.4657652103793225,1.0000804111970982,6.052567755855086e-05
-0.46539298836432863,-0.46539298836432863,1.0000655797032654,5.9777872222362526e-05
-0.4650563248273102,-0.4650563248273102,1.000072921077361,6.030002132880177e-05
-0.4646088413443067,-0.4646088413443067,0.9999826459283158,5.990830067770262e-05
-0.4639098416053457,-0.4639098416053457,0.9998523921666139,5.953356667979604e-05
-0.46371966649458046,-0.46371966649458046,1.0000545729336996,6.026662218621441e-05
-0.46336269787716444,-0.46336269787716444,0.9999392023660596,5.983281501374646e-05
-0.462958883785177,-0.462958883785177,1.0000330131881623,6.043136842137178e-05
-0.462577856828284,-0.462577856828284,1.0000446749166099,6.050488650240466e-05
-0.4619607693704893,-0.4619607693704893,0.9999096129038128,6.023778833209318e-05
-0.46129224432515914,-0.46129224432515914,1.0000724187689944,6.012138820634717e-05
-0.4610036580445012,-0.4610036580445012,0.9999929826194569,6.029960822042901e-05
-0.4603876503620995,-0.4603876503620995,0.9999723009766035,6.031751753536784e-05
-0.4600327771579032,-0.4600327771579032,1.000003218102308,5.990130337873909e-05
-0.45974796682567104,-0.45974796682567104,0.9999835958176433,6.132060839174405e-05
-0.45940410812036137,-0.45940410812036137,0.9999588750842129,5.946162384222424e-05
-0.4586845989048015,-0.4586845989048015,1.0000331985772513,6.040265636432973e-05
-0.45842370285245126,-0.45842370285245126,0.9999528580456613,5.956303192094206e-05
-0.4580713002927951,-0.4580713002927951,1.0000956372259866,6.0786709965208846e-05
-0.4575197930142167,-0.4575197930142167,1.000045042973527,6.056141680494562e-05
-0.4569042375398567,-0.4569042375398567,0.9999992260333002,6.13665787786572e-05
-0.4561073090138962,-0.4561073090138962,0.9999884004970138,6.002332658635946e-05
-0.4557030539464904,-0.4557030539464904,0.9999632296408569,5.984870692646632e-05
-0.45504060036764715,-0.45504060036764715,1.0000146373668364,5.946720377488163e-05
-0.4546002806047909,-0.4546002806047909,1.0000298812692932,6.084334437973898e-05
-0.45432388013286984,-0.45432388013286984,0.9999651855194311,5.962215903545878e-05
-0.4540365581604419,-0.4540365581604419,0.9999249243629947,5.9597806757148586e-05
-0.4533628765915637,-0.4533628765915637,0.9999669547791254,5.9908753664789536e-05
-0.45281573559041133,-0.45281573559041133,0.9999434328336283,5.9520115085536776e-05
-0.45227470804966285,-0.45227470804966285,0.9999993473250555,5.9700305194364255e-05
-0.45177732334414034,-0.45177732334414034,0.9999838861160747,6.095953090993596e-05
-0.45106832981546174,-0.45106832981546174,0.9999185830838109,5.9779788485430395e-05
-0.45062529037240895,-0.45062529037240895,1.0000500674814585,6.031153544493063e-05
-0.4501487465342507,-0.4501487465342507,0.9999389042943634,5.974901610354986e-05
-0.44963436744583307,-0.44963436744583307,1.000156516528332,5.979981453998349e-05
-0.44921934015437726,-0.44921934015437726,0.9999141122670918,6.045458838020537e-05
-0.44898828292207327,-0.44898828292207327,1.0000545392618823,5.9488006642644e-05
-0.4486756223763223,-0.4486756223763223,1.000144403780451,6.0438156841004166e-05
-0.4482192200463032,-0.4482192200463032,1.000005780348647,6.0129750533632964e-05
-0.4475815284007695,-0.4475815284007695,1.0000265098537835,5.924750671008695e-05
-0.4471997395521612,-0.4471997395521612,1.0000000730920833,5.957817788166431e-05
-0.44658061033987906,-0.44658061033987906,1.0000352270526691,5.974987422112894e-05
-0.4461270774307195,-0.4461270774307195,0.9999220963153282,6.088897546571968e-05
-0.44555043798172844,-0.44555043798172844,1.0000287577035474,6.046261253704055e-05
-0.4449928818910848,-0.4449928818910848,0.9999944011488033,6.020498746595526e-05
-0.4446050299447961,-0.4446050299447961,1.000024257721979,5.9988303314797326e-05
-0.44397395239502657,-0.44397395239502657,1.0000598218826455,6.0378442952700076e-05
-0.4435188194533112,-0.4435188194533112,0.9999586822874977,5.9881119147090365e-05
-0.4432237619781517,-0.4432237619781517,1.0000207027961614,6.13092037123432e-05
-0.4426665573133505,-0.4426665573133505,0.9999903771905689,6.013493679955392e-05
-0.4420929280779092,-0.4420929280779092,0.9999511741759518,6.0079609695817405e-05
-0.44187721143534875,-0.44187721143534875,1.0000304465514938,5.957560123369196e-05
-0.441256687589339,-0.441256687589339,0.9999572961297497,6.023394406134369e-05
-0.4409227346768603,-0.4409227346768603,1.000053531303816,6.0355486453566035e-05
-0.4403548613176099,-0.4403548613176099,1.0000238588394772,6.048936119829732e-05
-0.4396736838898505,-0.4396736838898505,0.9999567730671635,5.997463802104335e-05
-0.43928184542019155,-0.43928184542019155,0.9999556896085411,6.0044549307494886e-05
-0.4388438415771816,-0.4388438415771816,0.9998990989613791,5.9750274497481855e-05
-0.4383188981941203,-0.4383188981941203,0.9999937897064604,5.985912165645874e-05
-0.4380234607378952,-0.4380234607378952,1.0002483149121264,6.121658206045005e-05
-0.437804358167341,-0.437804358167341,0.9999581994560117,5.955016948665163e-05
-0.4373461243958445,-0.4373461243958445,0.9999544252661359,5.926624972928673e-05
-0.4367831936542643,-0.4367831936542643,1.0000686003014696,5.989036607562108e-05
-0.4363886755119893,-0.4363886755119893,1.0000505638649906,5.925274821478887e-05
-0.435818436081172,-0.435818436081172,1.0001193490179998,6.006728831069645e-05
-0.43539503495994725,-0.43539503495994725,0.9999967805167375,6.198185232950339e-05
-0.4349411232673447,-0.4349411232673447,1.0000359587017664,5.9950578986893985e-05
-0.43423026012314947,-0.43423026012314947,0.999943779514459,6.028770606449393e-05
-0.4339480282695149,-0.4339480282695149,1.0000050630236852,5.999915296417942e-05
-0.433423200584366,-0.433423200584366,0.999956682835402,5.963247105441717e-05
-0.4330654360121116,-0.4330654360121116,1.00008547043782,6.059281286668294e-05
-0.4327534779222333,-0.4327534779222333,0.9999501338495769,6.036546852867106e-05
-0.4324637990866904,-0.4324637990866904,0.999909402224165,5.918333886964991e-05
-0.4321739755483577,-0.4321739755483577,1.0000394837118578,5.956321454985589e-05
-0.4314678975148126,-0.4314678975148126,0.9999256257990993,5.984614065882031e-05
-0.43093363160296577,-0.43093363160296577,0.9999759005518489,5.912706139339883e-05
-0.43041300191252957,-0.43041300191252957,1.0001269250322895,6.026629141423977e-05
-0.43002547183132267,-0.43002547183132267,0.9999857699604193,6.000682839744007e-05
-0.42922591942478905,-0.42922591942478905,0.9999657948146876,6.0117482897645096e-05
-0.42875190347695025,-0.42875190347695025,0.9999358127588204,6.136982302116987e-05
-0.4282631798967486,-0.4282631798967486,1.0000289998568466,6.0131878848504615e-05
-0.42769336827623194,-0.42769336827623194,0.9999226075726373,6.0569405024048014e-05
-0.42724378657439954,-0.42724378657439954,0.9999311627096888,5.996084781184863e-05
-0.4269393330308958,-0.4269393330308958,1.0001227534146355,6.136706659559251e-05
-0.4266200426136493,-0.4266200426136493,1.0000980963589594,6.018430204591183e-05
-0.42585343320533864,-0.42585343320533864,1.0000047326055403,5.955180427033726e-05
-0.42552459488797467,-0.42552459488797467,1.0000676895889415,5.999951147805368e-05
-0.42523662087332925,-0.42523662087332925,1.0001021049282852,6.017460671460286e-05
-0.4247375325925532,-0.4247375325925532,1.0000349064742855,5.997756957237682e-05
-0.42449375666328704,-0.42449375666328704,0.9999641724817764,6.078144966076403e-05
-0.42397037620394257,-0.42397037620394257,0.9999923435424432,6.023149630725212e-05
-0.4232185365210171,-0.4232185365210171,1.0000431130822918,5.9672265560789776e-05
-0.4227964508783771,-0.4227964508783771,1.0000780810674363,6.007018721922542e-05
-0.42221744153066537,-0.42221744153066537,0.9999983268282919,6.022805618786127e-05
-0.42177886128192765,-0.42177886128192765,0.9999805481608262,5.9589248340193294e-05
-0.421511293311778,-0.421511293311778,1.0001315166072466,6.127635235460803e-05
-0.42119444382697113,-0.42119444382697113,1.00010943479099,5.948451025428954e-05
-0.4205071752381627,-0.4205071752381627,1.0000601256888018,6.039854855136014e-05
-0.42018072674400175,-0.42018072674400175,0.9999315036087444,5.9564685585547617e-05
-0.4198304497404024,-0.4198304497404024,1.000047355005154,6.0722266212788486e-05
-0.41929139479179867,-0.41929139479179867,1.0000418468758105,6.0000567527018065e-05
-0.41882747368217677,-0.41882747368217677,0.9999825608767112,6.192038450978697e-05
-0.4181548564811237,-0.4181548564811237,0.9998698817842697,5.9515634046353224e-05
-0.41766571699263294,-0.41766571699263294,1.0000865903035243,6.012285101212845e-05
-0.4173261618372635,-0.4173261618372635,1.0000830846077933,6.0177560186498076e-05
-0.4166725493778358,-0.4166725493778358,1.000035536290698,5.9932254389668715e-05
-0.4163650969625451,-0.4163650969625451,1.000093346398173,6.078541579425509e-05
-0.4160888392274501,-0.4160888392274501,0.999962809072062,5.960337325956915e-05
-0.41587518149462993,-0.41587518149462993,0.9998931923954911,5.984143187564545e-05
-0.4153042479258147,-0.4153042479258147,1.0000085871754858,5.9898586852920996e-05
-0.41470935579563956,-0.41470935579563956,0.9998829749464655,5.9697302839809736e-05
-0.4142712154658511,-0.4142712154658511,1.0000126850941808,6.0032611314734535e-05
-0.41371381020435366,-0.41371381020435366,0.9999972575091862,6.0112246325287414e-05
-0.4131100636790507,-0.4131100636790507,1.000009452103948,6.0244725320128904e-05
-0.41239129131136,-0.41239129131136,1.0000559814948784,6.030224579297749e-05
-0.41194765019754415,-0.41194765019754415,0.9999904235590147,5.9704323536827574e-05
-0.41153365963255056,-0.41153365963255056,0.9998772543558004,6.047329900514387e-05
-0.4110701337544015,-0.4110701337544015,1.0000314706505191,6.0632576032486404e-05
-0.4107517308439128,-0.4107517308439128,0.9999870656312746,5.9485191427687196e-05
-0.4104206224772497,-0.4104206224772497,1.000030783173498,6.030662570155611e-05
-0.4097580094501609,-0.4097580094501609,1.0000077242029348,5.957457099551749e-05
-0.40918345731624867,-0.40918345731624867,1.0000747621154755,5.919050792425358e-05
-0.4088676551473327,-0.4088676551473327,0.9999528835011615,6.020903698597341e-05
-0.40833492177625885,-0.40833492177625885,0.9999912355272278,5.9780094432676346e-05
-0.407857535056246,-0.407857535056246,1.0000493815353195,6.0832739509651394e-05
-0.4073360168127692,-0.4073360168127692,0.9999736319863624,6.0573966617515886e-05
-0.4067930575562059,-0.4067930575562059,1.0000350146733932,5.967880603302037e-05
-0.4062607243380626,-0.4062607243380626,0.9999759143065818,6.024493645969119e-05
-0.40565321350586603,-0.40565321350586603,1.0001169955735911,6.0005256979160627e-05
-0.405209593885229,-0.405209593885229,0.999971270888364,6.133357658729931e-05
-0.40493598295142874,-0.40493598295142874,1.0000371287677317,5.9871553009552576e-05
-0.4044307089498034,-0.4044307089498034,1.0000271183670304,6.0107330001420164e-05
-0.4038512534592883,-0.4038512534592883,1.0000238179326466,6.006884542555709e-05
-0.40363619017152813,-0.40363619017152813,0.9999997754113983,5.957338080356543e-05
-0.403123332739051,-0.403123332739051,1.000046885276042,6.0353989003127315e-05
-0.4028096463996917,-0.4028096463996917,0.9999334158258776,6.03829135765147e-05
-0.4021550269346335,-0.4021550269346335,0.9999795503939781,6.0157317245373695e-05
-0.401349434912845,-0.401349434912845,0.9999531534813121,6.009622068511165e-05
-0.4009849628462689,-0.4009849628462689,0.9999421631122243,5.993286038738038e-05
-0.4003282044068328,-0.4003282044068328,0.9999312202191977,5.941375556111989e-05
-0.3998941305413609,-0.3998941305413609,1.0000589451710407,6.1022462418234386e-05
-0.39962863675755217,-0.39962863675755217,0.9998204720528759,5.969171159278666e-05
-0.39946489259600637,-0.39946489259600637,0.999925802277426,5.9382583119006065e-05
-0.3989203264514799,-0.3989203264514799,1.0000039599654083,5.988218216580926e-05
-0.39843569280492375,-0.39843569280492375,0.9999402861002317,5.955309802639832e-05
-0.3981160759401973,-0.3981160759401973,0.9999888419824406,5.918518419447623e-05
-0.3976088310853811,-0.3976088310853811,0.9999709031274394,6.0449062485570954e-05
-0.3972364782224759,-0.3972364782224759,1.0000260467808135,6.037877122696984e-05
-0.3967583036443102,-0.3967583036443102,0.9999039948162028,6.097444592579337e-05
-0.39606798832683127,-0.39606798832683127,0.9999506036126835,6.029573314713972e-05
-0.3958566267305287,-0.3958566267305287,0.9999126091347366,6.024956964777963e-05
-0.39542315447033616,-0.39542315447033616,0.9999399876438713,5.974272273894499e-05
-0.3949438742347411,-0.3949438742347411,0.9999418253617461,5.9927113799474114e-05
-0.39462825113587313,-0.39462825113587313,0.9999193985004036,6.011394584671786e-05
-0.3943421372619923,-0.3943421372619923,0.9998743016789341,6.000608579421002e-05
-0.39391002281190596,-0.39391002281190596,0.9999896863520116,5.9871368100664014e-05
-0.3930871295873658,-0.3930871295873658,0.9999525055502378,5.950066464812379e-05
-0.3926612774201203,-0.3926612774201203,1.0000013377720653,5.9483686356185814e-05
-0.3921287167002447,-0.3921287167002447,0.9999165827930753,5.998971655388589e-05
-0.39171705859771466,-0.39171705859771466,1.0000786615443942,6.094942460988629e-05
-0.3911103185877437,-0.3911103185877437,0.9999830849570612,6.024410747558289e-05
-0.39048947393021083,-0.39048947393021083,0.999973858180842,5.990520129696658e-05
-0.3899541303602746,-0.3899541303602746,0.999955202611879,5.998460870729583e-05
-0.38932415670278714,-0.38932415670278714,0.9999141651101395,6.062863895129877e-05
-0.3888297732672072,-0.3888297732672072,0.9999777776439831,5.9860248215637476e-05
-0.38851296704960986,-0.38851296704960986,0.9999792725882685,6.168138122211199e-05
-0.3881291749305092,-0.3881291749305092,1.000017761715868,5.9563539288163746e-05
-0.38739920740772504,-0.38739920740772504,1.000088844155897,5.9647406467537044e-05
-0.38718835351464803,-0.38718835351464803,1.000053108793682,5.992745748060109e-05
-0.386555669135123,-0.386555669135123,1.000038231643455,6.0248676678582284e-05
-0.3863757565035485,-0.3863757565035485,0.9999365664887481,6.007751534968137e-05
-0.3858670370100299,-0.3858670370100299,0.9999678628700179,6.052999418464758e-05
