time,time,flux,flux_err
-0.4994860315768165,-0.4994860315768165,1.0002890165073053,0.00026212663825231494
-0.49846685734955826,-0.49846685734955826,1.0000083837417466,0.0002580647233555593
-0.49777294081941365,-0.49777294081941365,1.0003077122698412,0.0002552827450072588
-0.497021450423199,-0.497021450423199,0.9998862349714617,0.00025513067471908947
-0.4962988712257356,-0.4962988712257356,0.9996162050758475,0.0002537538184092223
-0.4944820367752982,-0.4944820367752982,0.9999960550382759,0.00025456358670166405
-0.4934993480645062,-0.4934993480645062,0.999917835881144,0.00025470466090319515
-0.4928321383740695,-0.4928321383740695,0.9998254406140543,0.0002541914922444629
-0.4921236372567364,-0.4921236372567364,1.0000345736021246,0.00025411353493909816
-0.4901848440313188,-0.4901848440313188,1.0000961248655256,0.0002543374294877125
-0.4887045785144437,-0.4887045785144437,0.9996217742685823,0.0002546407932498567
-0.4869138742156792,-0.4869138742156792,0.9997815205311535,0.0002540935981529054
-0.48571751257404683,-0.48571751257404683,0.9995381279157713,0.0002639623463653394
-0.48416328463645186,-0.48416328463645186,1.0005993122463022,0.0002629313043574464
-0.48305535623221657,-0.48305535623221657,0.9998914037769415,0.0002652148145306557
-0.48211089806936797,-0.48211089806936797,0.9998755843461862,0.0002655210696790004
-0.48047246559508494,-0.48047246559508494,0.999914845369473,0.00025524184156694603
-0.4783279194351053,-0.4783279194351053,0.9998034300559627,0.000253834261489607
-0.47681527952154285,-0.47681527952154285,1.0000964370365295,0.0002538979980411224
-0.47526242106760036,-0.47526242106760036,1.000242440126281,0.0002542046501686466
-0.4724930195974594,-0.4724930195974594,1.0001740798326741,0.0002551066768274959
-0.47045487936702557,-0.47045487936702557,0.9996115492088059,0.0002673859819213462
-0.4666619408912084,-0.4666619408912084,0.999969885217477,0.00025423489089584943
-0.46534612719697177,-0.46534612719697177,0.9997771940250646,0.0002539011612490406
-0.4643183622327342,-0.4643183622327342,1.000184616303129,0.00025459772430069474
-0.4635487505904166,-0.4635487505904166,1.0000212574830027,0.0002543745744941536
-0.4620615306426771,-0.4620615306426771,1.0001679803222425,0.000254126300669438
-0.4583787244642735,-0.4583787244642735,1.0004370000326026,0.00025426638115958817
-0.4562675080742338,-0.4562675080742338,0.9998543766436304,0.00025377992494717884
-0.45355633711296833,-0.45355633711296833,1.0003456269771234,0.00025536467498627624
-0.4510964417066134,-0.4510964417066134,0.9998096859410381,0.0002545428197535761
-0.44814740679357784,-0.44814740679357784,1.0000174992769189,0.00025466398904679425
-0.4459084318827081,-0.4459084318827081,1.0003948051078153,0.0002534154654755407
-0.4447155803522037,-0.4447155803522037,0.9992457833800132,0.00025357049336542463
-0.44279505595914087,-0.44279505595914087,0.9996048179163068,0.00025433387219707274
-0.44038087693043054,-0.44038087693043054,1.0002764762163034,0.00025456788245900217
-0.43813510710533593,-0.43813510710533593,0.9994917652316826,0.000254538788001871
-0.43409824271147956,-0.43409824271147956,1.0001146515747228,0.00025415045206450006
-0.4295722825685516,-0.4295722825685516,1.0004750751723317,0.0002554000252758757
-0.4283559387062269,-0.4283559387062269,0.999923719237947,0.00025391592313517774
-0.42568831908865834,-0.42568831908865834,0.9997544421375519,0.00025375511498968437
-0.42421212202243624,-0.42421212202243624,0.9996909051474965,0.0002543062141195773
-0.42322905491673735,-0.42322905491673735,0.9999329315316107,0.00025487808726268275
-0.4217336075977073,-0.4217336075977073,0.9999005226331781,0.00025544923710002217
-0.42047384481484185,-0.42047384481484185,1.0000431353684562,0.0002544644726103269
-0.4155523796529451,-0.4155523796529451,1.000230122182751,0.0002753728212157238
-0.4116482554505637,-0.4116482554505637,0.999756116146185,0.0002642273812891574
-0.4075370289800048,-0.4075370289800048,1.00017220653604,0.0002545906652852716
-0.4063671188057924,-0.4063671188057924,1.0000512411401254,0.0002540486603745893
-0.4049058262105973,-0.4049058262105973,0.9999333473581542,0.00025407548797706905
-0.40360309389798205,-0.40360309389798205,0.9998807956882423,0.00025431894875175073
-0.40253646478086014,-0.40253646478086014,1.0002767725678572,0.0002549625137327511
-0.397650994444848,-0.397650994444848,0.9998328419094461,0.0002615747213222685
-0.39479480447989773,-0.39479480447989773,0.9997268695926962,0.0002699463707508031
-0.3936404516847688,-0.3936404516847688,1.0000212767506664,0.0002537598119113539
-0.39281859591937973,-0.39281859591937973,0.9995666720267359,0.0002539739583251213
-0.39120667386596325,-0.39120667386596325,0.9999377826601364,0.00025438634788886816
-0.39028000892503767,-0.39028000892503767,1.0003261948738207,0.00025549980887445647
-0.3897393769759219,-0.3897393769759219,0.9996709759181639,0.00025920274346807724
-0.38924287265908786,-0.38924287265908786,0.9996349967758228,0.00025817885057669357
-0.38842355455635696,-0.38842355455635696,1.000077710261293,0.0002622267275816521
-0.3872638292690681,-0.3872638292690681,0.9998172811563556,0.00025779501468402093
-0.3863878241449129,-0.3863878241449129,1.0001986546089339,0.00025659783253078943
-0.38570783434115585,-0.38570783434115585,1.000172348103204,0.0002538482545732102
-0.38463190562615635,-0.38463190562615635,1.000126309787039,0.0002539850148814026
-0.38287872097134823,-0.38287872097134823,1.0002010100109961,0.0002546751389454584
-0.38216115966715736,-0.38216115966715736,1.0001989589395621,0.0002546505101469382
-0.38149384035205003,-0.38149384035205003,1.0002783262089991,0.00025425926844374977
-0.3799959056850639,-0.3799959056850639,1.0004322378828427,0.0002541710307071742
-0.3778270954477193,-0.3778270954477193,1.0001552260834692,0.00025443147318132046
-0.376072631131683,-0.376072631131683,0.9995340554595966,0.0002541281218621797
-0.37446795096911956,-0.37446795096911956,1.0000092414993662,0.0002538384424825322
-0.37282888686968363,-0.37282888686968363,0.999775058616706,0.00026274629932773334
-0.371831443291012,-0.371831443291012,1.0000874559556785,0.000275647518386193
-0.37056434956612067,-0.37056434956612067,0.9998629789209412,0.0002549332952809032
-0.369225448621728,-0.369225448621728,0.9998124715808272,0.00025518186446381005
-0.3672670459796791,-0.3672670459796791,0.9997432465723219,0.0002538382531957993
-0.3657544069537835,-0.3657544069537835,0.9999600297892766,0.00025392457565628397
-0.36482298864648327,-0.36482298864648327,0.9999075692890493,0.00025390117742065375
-0.3616560726972239,-0.3616560726972239,0.9996430469065276,0.0002551652974822535
-0.3586530876760662,-0.3586530876760662,0.9998327614639008,0.00025481647262628186
-0.3548400444255094,-0.3548400444255094,0.9999168320225305,0.0002537730223673024
-0.353659792203689,-0.353659792203689,0.9999532186785742,0.0002542056400771455
-0.3528654878879024,-0.3528654878879024,1.0001425749305826,0.00025464916204173254
-0.3520981834801205,-0.3520981834801205,1.0001775721563286,0.000254599527564116
-0.35034767134930006,-0.35034767134930006,1.000276691818025,0.00025428803678349896
-0.3475673910579644,-0.3475673910579644,0.9998516230454435,0.00027244875239407446
-0.3462551699289179,-0.3462551699289179,1.0002466660072185,0.00025912207652600627
-0.3433952562205377,-0.3433952562205377,0.9995590377909173,0.00025475895855668845
-0.34060059655312214,-0.34060059655312214,0.9995574210916292,0.00025498670895677
-0.3381876119536173,-0.3381876119536173,1.0003904174228653,0.00025411473273308997
-0.3355222723832412,-0.3355222723832412,0.9995505464396365,0.00025409669131941034
-0.3341109223663807,-0.3341109223663807,1.0000626929006529,0.0002534567564564391
-0.3329735224462638,-0.3329735224462638,0.9999406412990979,0.000254062591209214
-0.33074767525686183,-0.33074767525686183,0.999981256271602,0.0002541255898276713
-0.32840104812858045,-0.32840104812858045,1.0000476397547136,0.0002552962675647826
-0.3258892787838704,-0.3258892787838704,0.999767683693577,0.00025383027587882513
-0.32020775114069694,-0.32020775114069694,1.0000313392311635,0.0002550955227994988
-0.3175128896044043,-0.3175128896044043,0.9998483301921863,0.00025432183835991486
-0.3157628610970278,-0.3157628610970278,0.9999225376739798,0.00025401111991385213
-0.31351007104458406,-0.31351007104458406,1.0002941433899335,0.0002537022330592875
-0.3126030940416967,-0.3126030940416967,0.9998111141424857,0.0002548903546985635
-0.31146578465341007,-0.31146578465341007,1.0001252881644553,0.00025490171792334537
-0.30941242948465514,-0.30941242948465514,0.9994010319035285,0.0002543855368368353
-0.3044903033041919,-0.3044903033041919,0.99971562848516,0.00027538131671740263
-0.29931910458835775,-0.29931910458835775,0.9999772429233034,0.00026427861830128594
-0.29624835848007935,-0.29624835848007935,0.9999424784069115,0.00025515000344115263
-0.29503059259222936,-0.29503059259222936,1.000013659505754,0.0002540485511821573
-0.29356981863675174,-0.29356981863675174,0.9997532803272822,0.0002540571096212944
-0.29232557687937516,-0.29232557687937516,1.000252581286524,0.00025460767921534587
-0.291415758322546,-0.291415758322546,1.0001007860034594,0.0002545284121100952
-0.2864926153233682,-0.2864926153233682,0.9997738074212,0.0002648534412683968
-0.28349242524272994,-0.28349242524272994,1.0001992980023868,0.000264664568876016
-0.28258585658768426,-0.28258585658768426,1.0000168793211777,0.00025398659065140256
-0.2817652795340109,-0.2817652795340109,0.9998579609817349,0.0002540532277937967
-0.28020205459033604,-0.28020205459033604,1.000058951778845,0.00026136523248162055
-0.27946241317040404,-0.27946241317040404,1.0005214727593095,0.00026091878015384193
-0.27873091954461415,-0.27873091954461415,0.9997372068996349,0.0002546672947396571
-0.2782733663902036,-0.2782733663902036,1.0000603520547189,0.0002581403332732911
-0.2776794169098139,-0.2776794169098139,0.9997592721100592,0.0002600570066566633
-0.27665907157570474,-0.27665907157570474,0.9997792926921297,0.0002604184552735681
-0.27565072620564024,-0.27565072620564024,1.0003236193997558,0.00025532120627730267
-0.2749373910846771,-0.2749373910846771,0.9999959817752904,0.0002561345275248413
-0.27430194089974974,-0.27430194089974974,1.0000317032287442,0.00025912947642681334
-0.27317312975865204,-0.27317312975865204,0.999859559923228,0.00025397439651046207
-0.2716882906752289,-0.2716882906752289,0.9998991484803043,0.00025491836341620086
-0.2709561051480705,-0.2709561051480705,1.0000508612858159,0.0002543880208840304
-0.2702513206764706,-0.2702513206764706,1.0002914126047135,0.0002542589939489214
-0.26848302384532874,-0.26848302384532874,1.0000912028407458,0.0002541436170166178
-0.26640471990249354,-0.26640471990249354,0.9997860026644825,0.00025440821330202765
-0.26492997989844297,-0.26492997989844297,0.9995376089774078,0.0002585707853753891
-0.2634297574084485,-0.2634297574084485,0.9998786950877984,0.0002541329191573587
-0.26204188922274624,-0.26204188922274624,0.9999877969523221,0.0002626082417164635
-0.26080363383953226,-0.26080363383953226,1.000188815777045,0.00027535091428302857
-0.25950219516744255,-0.25950219516744255,0.9998453517493114,0.00025491833294799147
-0.2578645458772371,-0.2578645458772371,0.999915967985047,0.00025487184428978673
-0.2558245214684575,-0.2558245214684575,0.9999877715836705,0.0002539878910699545
-0.2545235164980113,-0.2545235164980113,0.9995342031749136,0.0002537207131521794
-0.25313213050831107,-0.25313213050831107,1.0001047178946696,0.0002542922155473106
-0.2503691242709465,-0.2503691242709465,0.9996510487183409,0.0002550867715695314
-0.24563244524179026,-0.24563244524179026,1.0000678748165266,0.00025456843612312746
-0.24353754103649408,-0.24353754103649408,0.99983248231128,0.00025408143353184293
-0.24259800331492443,-0.24259800331492443,0.9997812967144959,0.0002542088535924693
-0.2416976793145295,-0.2416976793145295,0.9999076087321249,0.00025466132832555646
-0.2404268288439198,-0.2404268288439198,0.9999815223801036,0.0002545467129443672
-0.23691632135378313,-0.23691632135378313,0.999942590209162,0.00026475249479914105
-0.23519419399744948,-0.23519419399744948,0.999842874783616,0.0002591623357729585
-0.2324875071652059,-0.2324875071652059,1.000279151776338,0.00025473859693086483
-0.23069081545545486,-0.23069081545545486,1.0005482434668411,0.00025490078888582165
-0.22840378814871656,-0.22840378814871656,0.9995082699472869,0.00025407341661866465
-0.22634547273628414,-0.22634547273628414,1.0000557580648546,0.00026295462302520264
-0.22419924788118806,-0.22419924788118806,1.000153208716552,0.0002541649128175574
-0.2230509470544348,-0.2230509470544348,1.0000807823153453,0.00025342973118287103
-0.22210869163172903,-0.22210869163172903,1.0001883895129136,0.0002537632295659787
-0.2198664994299179,-0.2198664994299179,0.9996357463038962,0.00025444914036857415
-0.21608163160126423,-0.21608163160126423,0.999768397392484,0.00025473555452861413
-0.21288145544094733,-0.21288145544094733,0.9999882956112822,0.00025389082054544084
-0.2074900098319631,-0.2074900098319631,0.9995197290071862,0.00025539403727577555
-0.20596754941507242,-0.20596754941507242,0.999671677839955,0.0002538814206851661
-0.20293361259828088,-0.20293361259828088,0.9998265332035794,0.0002539966584845585
-0.20175464027852286,-0.20175464027852286,1.0004664891975943,0.0002544508832459396
-0.2008097690246359,-0.2008097690246359,0.9998318105269071,0.00025469269785707144
-0.19923136795478058,-0.19923136795478058,1.0003607587726608,0.00025519977689388305
-0.19660993629004225,-0.19660993629004225,0.9998572466249032,0.0002542593042459551
-0.19313104006578213,-0.19313104006578213,0.9996877459207608,0.00027507170306717837
-0.1882563904408016,-0.1882563904408016,0.9998507074540186,0.0002643932066283647
-0.18518608700178446,-0.18518608700178446,0.9996111945482905,0.00025518407698460943
-0.18396928182628472,-0.18396928182628472,0.9999803219753662,0.00025404209881510324
-0.18250884389563,-0.18250884389563,0.9997721576726233,0.00025404884050956114
-0.18126369891833746,-0.18126369891833746,1.0000567993905727,0.0002546165517656073
-0.18012782338118996,-0.18012782338118996,0.9995726047574207,0.0002563161454992774
-0.17431582809440443,-0.17431582809440443,1.0001958542434548,0.0002652722047322585
-0.1719728585681878,-0.1719728585681878,0.999982548165365,0.0002537298500008615
-0.1709352090394532,-0.1709352090394532,0.9999909080092545,0.0002539293133524183
-0.16937575317133452,-0.16937575317133452,1.0001099957878679,0.0002541866155909121
-0.1682681269121531,-0.1682681269121531,1.0000603800868348,0.00025471886698873045
-0.16756194632980623,-0.16756194632980623,0.9998799777085698,0.0002550441454984887
-0.16686754197144182,-0.16686754197144182,0.9994906025957482,0.0002615438657978971
-0.16586089995762449,-0.16586089995762449,1.00015952283718,0.0002614401138747792
-0.1647142761881696,-0.1647142761881696,0.9997195975121229,0.00025703136779897955
-0.16401573527764413,-0.16401573527764413,1.0002149324976806,0.0002552260781092783
-0.16338904931108117,-0.16338904931108117,1.0004340727622107,0.0002550158485465576
-0.16243668612951295,-0.16243668612951295,0.9999766184463537,0.0002540306283837059
-0.16075461294531124,-0.16075461294531124,1.0002491596207395,0.00025468724748701436
-0.16003767960501136,-0.16003767960501136,0.9997749153430158,0.00025460924462801244
-0.15951856376268553,-0.15951856376268553,0.9998357836623188,0.0002645071397183616
-0.15866901569606853,-0.15866901569606853,0.9993434588088815,0.00025400605771693885
-0.1569928942808474,-0.1569928942808474,0.9996496836395448,0.0002541731285362355
-0.1553434147950611,-0.1553434147950611,1.0000804158685357,0.0002544329970098922
-0.15379338634083978,-0.15379338634083978,1.000097639279715,0.00025425350137800483
-0.1523687421467912,-0.1523687421467912,0.9999359348135204,0.00025413924007031125
-0.15098119211252198,-0.15098119211252198,0.9997953620876345,0.0002624854739048057
-0.14963492144524934,-0.14963492144524934,0.9999533122823495,0.0002649630561180233
-0.14834889370540622,-0.14834889370540622,0.9998345088823057,0.0002549306885233984
-0.1470127556749503,-0.1470127556749503,0.9997301914332244,0.00026207275656482096
-0.14568793512007688,-0.14568793512007688,1.000423055739531,0.0002586726967504998
-0.14410413972946118,-0.14410413972946118,1.0002772709507037,0.0002539959113277889
-0.14318055335461394,-0.14318055335461394,1.0001312210562168,0.00025391168645577395
-0.14189712998995674,-0.14189712998995674,1.0001767862712874,0.0002655842016718302
-0.13953204569916125,-0.13953204569916125,0.9999455215669546,0.0002552059888931596
-0.13671816389469313,-0.13671816389469313,0.9995893632975271,0.0002649224383734843
-0.1329575915377063,-0.1329575915377063,0.999759289066094,0.0002539195129637946
-0.13173305999298462,-0.13173305999298462,0.999819600310488,0.0002540845990136228
-0.13080945688270731,-0.13080945688270731,0.9999740347788568,0.0002546731151231487
-0.1299740686030418,-0.1299740686030418,0.9999266329527223,0.0002545850564785308
-0.12673210673601715,-0.12673210673601715,1.0002840757408646,0.0002550135273911978
-0.12437509366936865,-0.12437509366936865,0.9993904168164004,0.0002537800878503891
-0.12201875117825693,-0.12201875117825693,0.9998330489552776,0.0002599534277934538
-0.11938521379706798,-0.11938521379706798,1.000130945794043,0.00025536783219316285
-0.11681223065243103,-0.11681223065243103,0.999746755581836,0.0002537983954236533
-0.11431829561115592,-0.11431829561115592,1.0001649043474397,0.00025468542990803294
-0.11252067585810437,-0.11252067585810437,0.9999668878385538,0.0002639716906863637
-0.11172149702470051,-0.11172149702470051,1.000281587524372,0.00025409038913915563
-0.1104740523158398,-0.1104740523158398,1.0001571213221865,0.0002540134121645025
-0.10770751532545546,-0.10770751532545546,1.0000810746154063,0.000254331074787875
-0.10566846827714471,-0.10566846827714471,1.0001314542353055,0.0002548122903728347
-0.10341400129400427,-0.10341400129400427,1.0000103367681856,0.0002534982160517582
-0.09948259470475022,-0.09948259470475022,0.9997706916585688,0.0002636282506434133
-0.09553117989635211,-0.09553117989635211,1.0002030646842286,0.0002543862423987758
-0.09415194688117481,-0.09415194688117481,1.0001034299196387,0.0002541133661796469
-0.09122863115553628,-0.09122863115553628,0.9999425851578492,0.00025399637824794787
-0.09004125715218833,-0.09004125715218833,1.0001560310070017,0.0002549242413187277
-0.08853603119932814,-0.08853603119932814,1.000067197300352,0.0002550343123388822
-0.08548424724212964,-0.08548424724212964,0.9999832730440218,0.00025435258778486755
-0.08100235427336884,-0.08100235427336884,0.9998040344852723,0.0002744014400943668
-0.07592008662031731,-0.07592008662031731,1.0000383041225522,0.00025501510379425475
-0.07386416887748055,-0.07386416887748055,1.0000254861430682,0.0002552453971662829
-0.07261730644459022,-0.07261730644459022,0.9999471308945871,0.0002537797474027707
-0.07124574289118754,-0.07124574289118754,0.999616002975757,0.0002543301904790938
-0.06984506194057757,-0.06984506194057757,0.9995929624948403,0.0002545491661527896
-0.06818254894023994,-0.06818254894023994,1.0001173989608168,0.00025499219825124826
-0.06349462516081986,-0.06349462516081986,0.9998517439860104,0.0002646880420577574
-0.06091217844368657,-0.06091217844368657,0.9994196606239412,0.0002536367079781714
-0.05987442971527344,-0.05987442971527344,1.000104807161133,0.0002539363431722899
-0.0586479282748769,-0.0586479282748769,1.0004882741381762,0.00025440088794762315
-0.05738828183239093,-0.05738828183239093,0.9997049661208625,0.00025467367607222275
-0.05659743423821055,-0.05659743423821055,0.9997094705008891,0.00025480818295245384
-0.05597852803184651,-0.05597852803184651,0.9999496496750855,0.0002617060366322357
-0.05501193452073494,-0.05501193452073494,1.0000416302154382,0.0002596987192190449
-0.05377029031296843,-0.05377029031296843,0.999542787638837,0.00025924008065809966
-0.05295449570257915,-0.05295449570257915,1.0000615590522417,0.00025524684645961105
-0.05232777816636371,-0.05232777816636371,1.0001013780422077,0.0002550016549147448
