time,time,flux,flux_err
-0.4995268662920959,-0.4995268662920959,1.0000421042070127,7.147032927910975e-05
-0.4967304620925764,-0.4967304620925764,0.9999956628300287,6.96704042627272e-05
-0.4951252877920827,-0.4951252877920827,0.9999526866944262,7.045987484914316e-05
-0.49387427140318324,-0.49387427140318324,0.9999734155590387,6.565241558903744e-05
-0.4911295637692092,-0.4911295637692092,1.000055223186776,6.361264879684058e-05
-0.4899712791957427,-0.4899712791957427,0.9999482346049915,6.364631253598313e-05
-0.48871738607122095,-0.48871738607122095,1.000004633328237,6.417900811811986e-05
-0.4866821155359503,-0.4866821155359503,0.9999842054863688,6.38119894768051e-05
-0.4852691274078097,-0.4852691274078097,0.9999555166938123,6.360858065951368e-05
-0.4842626922705676,-0.4842626922705676,1.000057328875845,6.427856164483985e-05
-0.4827232081908733,-0.4827232081908733,0.9999849291173699,6.370546140080068e-05
-0.48060022949357517,-0.48060022949357517,0.9999397573531479,6.360718021678956e-05
-0.47924108990409875,-0.47924108990409875,1.0000711019850892,6.371105086152845e-05
-0.47817079970554915,-0.47817079970554915,0.9999851374112309,6.45191074333175e-05
-0.47606555762176866,-0.47606555762176866,0.9999718594207316,6.406564750891478e-05
-0.47424871823459397,-0.47424871823459397,1.0000178016530559,6.373860016768606e-05
-0.4731631394504802,-0.4731631394504802,0.9998963992909499,6.44693346884637e-05
-0.4715095309802564,-0.4715095309802564,1.000111490096902,6.418501288740928e-05
-0.4694257060182281,-0.4694257060182281,1.0001363663012117,6.360880634965036e-05
-0.4681802003091434,-0.4681802003091434,0.9999081726555972,6.457404817787674e-05
-0.4667053939658217,-0.4667053939658217,1.0000638366953782,6.425036518405359e-05
-0.4643769169051666,-0.4643769169051666,0.9998998215865074,6.362184033774362e-05
-0.4627351466420805,-0.4627351466420805,1.0000284415006975,6.505057531535015e-05
-0.4614545648422791,-0.4614545648422791,0.9999487667546567,6.438016219773952e-05
-0.4595734740199987,-0.4595734740199987,0.9999516978669251,6.377849342531594e-05
-0.45759027847379913,-0.45759027847379913,1.0000138558710898,6.542528960570657e-05
-0.4563115550990915,-0.4563115550990915,1.0001536067594423,6.361039088103233e-05
-0.45506728971959093,-0.45506728971959093,0.9999014832543327,6.491212650363967e-05
-0.45275043590227143,-0.45275043590227143,1.000005041599992,6.360231433277008e-05
-0.45122597500449046,-0.45122597500449046,1.000112351596533,6.387371003335507e-05
-0.4501619524584385,-0.4501619524584385,0.9999589960684796,6.528731987815848e-05
-0.44734951304562853,-0.44734951304562853,0.9999010628175119,6.359929902362068e-05
-0.4457638371444773,-0.4457638371444773,0.999958768833874,6.39705574841705e-05
-0.44486610346648375,-0.44486610346648375,0.9999478517881378,6.570699391132302e-05
-0.442930986706051,-0.442930986706051,0.9999089539301247,6.363814285300818e-05
-0.44103662967681884,-0.44103662967681884,1.0000484594031818,6.36705725899344e-05
-0.44011030959372877,-0.44011030959372877,1.0000340297347106,6.448415078340897e-05
-0.43898158343799876,-0.43898158343799876,0.9999960866019089,6.578503578377539e-05
-0.4365127305209171,-0.4365127305209171,0.9999093719518694,6.360946716173006e-05
-0.4352437461639056,-0.4352437461639056,1.0000179096824393,6.366842989867272e-05
-0.4342315319576301,-0.4342315319576301,0.9999349445737904,6.421415161920888e-05
-0.4323025370336836,-0.4323025370336836,1.000044035084109,6.36028827795144e-05
-0.43053890915180093,-0.43053890915180093,1.000059829123974,6.360478740665414e-05
-0.4293621266231639,-0.4293621266231639,0.9999146598113857,6.435821775340597e-05
-0.4282342288963264,-0.4282342288963264,0.9999403236196602,6.371031624608058e-05
-0.4260405163106043,-0.4260405163106043,1.0000202981713167,6.36260549336588e-05
-0.4245296615117695,-0.4245296615117695,1.0000690581217737,6.372706737088641e-05
-0.4235376089578494,-0.4235376089578494,1.0000662018389597,6.45684364141886e-05
-0.4211501180951018,-0.4211501180951018,1.0000238257346339,6.409382434645088e-05
-0.4194553316978272,-0.4194553316978272,0.9999327528791456,6.374158459007047e-05
-0.41851325509196613,-0.41851325509196613,0.9999618043927759,6.448251540749125e-05
-0.4173876354296226,-0.4173876354296226,0.9999208522841254,6.420549858025796e-05
-0.4152409665111918,-0.4152409665111918,1.0000201279717238,6.362791354638198e-05
-0.41354440530994907,-0.41354440530994907,0.9999940983480702,6.476017557079018e-05
-0.41219185619265775,-0.41219185619265775,0.9999636004860928,6.430567708031947e-05
-0.40959386248723606,-0.40959386248723606,0.9999701362828363,6.362205316710549e-05
-0.407811572655919,-0.407811572655919,1.0000736860938542,6.520342781191664e-05
-0.4065311853628373,-0.4065311853628373,1.000035823091816,6.448594519685772e-05
-0.4046738231001655,-0.4046738231001655,1.0001089679812292,6.37965322249017e-05
-0.40256725280487443,-0.40256725280487443,0.9999788580762244,6.361986006664711e-05
-0.4010858816298423,-0.4010858816298423,1.0000545229827584,6.502794998661387e-05
-0.3992618109448813,-0.3992618109448813,0.9999943626312504,6.363720298994374e-05
-0.3967253493203316,-0.3967253493203316,0.9999324425950391,6.362261482033486e-05
-0.3955969725357136,-0.3955969725357136,1.0001080976593462,6.569776748163561e-05
-0.39384883556922434,-0.39384883556922434,0.9999859547166787,6.365480023485307e-05
-0.3912512714508921,-0.3912512714508921,0.9999052828423629,6.363464317743498e-05
-0.39020788119523786,-0.39020788119523786,1.0001335537607792,6.629005299869437e-05
-0.38843817671877334,-0.38843817671877334,1.0000140220637523,6.366656939660735e-05
-0.3861173055862309,-0.3861173055862309,1.0000588063200695,6.366918702605772e-05
-0.38515008174290416,-0.38515008174290416,0.9999936647595608,6.409145970253231e-05
-0.3832590064033866,-0.3832590064033866,0.9999337710710382,6.389077881322589e-05
-0.38137547436053865,-0.38137547436053865,0.9999543290500771,6.359673394360194e-05
-0.3803092377696885,-0.3803092377696885,0.9999421258444665,6.367235218703989e-05
-0.3791256681608502,-0.3791256681608502,0.9999439688257927,6.425161660611386e-05
-0.37693426776095296,-0.37693426776095296,1.0000235221298284,6.3608512807186e-05
-0.3752977207128424,-0.3752977207128424,0.9999546618776746,6.370824272345022e-05
-0.3742273796786321,-0.3742273796786321,0.9999675217458268,6.448700737998746e-05
-0.3727328073786339,-0.3727328073786339,1.00000006944306,6.405297353852669e-05
-0.3711154131218791,-0.3711154131218791,0.9999562123670908,6.38264760483014e-05
-0.3695914463198278,-0.3695914463198278,0.9999727690613144,6.372933958076792e-05
-0.36847725621482824,-0.36847725621482824,0.9999822004755161,6.445493587499374e-05
-0.3666466665396001,-0.3666466665396001,0.9999294187700641,6.415303749873673e-05
-0.36482333120075056,-0.36482333120075056,1.0000522552352922,6.359888885917062e-05
-0.36367746463802175,-0.36367746463802175,1.0000281085420553,6.46884802142739e-05
-0.3622951726196334,-0.3622951726196334,0.999955891391276,6.423393974968003e-05
-0.3599678015016252,-0.3599678015016252,0.9999599492496823,6.362348070197094e-05
-0.3583315840252908,-0.3583315840252908,0.9999687407679986,6.498090537954676e-05
-0.3569759120640811,-0.3569759120640811,1.0000541077738805,6.45157981347081e-05
-0.35469084047945215,-0.35469084047945215,0.999884421873247,6.362421728135289e-05
-0.3528883738850709,-0.3528883738850709,1.0000246587153387,6.535092851194909e-05
-0.351612765097525,-0.351612765097525,0.999966801970573,6.37864235278439e-05
-0.35046081224863884,-0.35046081224863884,1.000065005030543,6.466191491948609e-05
-0.3486758194107097,-0.3486758194107097,1.0000395772381918,6.359694879491761e-05
-0.3470042155648116,-0.3470042155648116,1.0000235944872347,6.386727064281814e-05
-0.34593918462633155,-0.34593918462633155,1.0000828795275831,6.518401605696441e-05
-0.34364426067913884,-0.34364426067913884,1.0000215932952705,6.363196156596002e-05
-0.34156065637071154,-0.34156065637071154,1.0000621226975404,6.364261836085429e-05
-0.34054318568087183,-0.34054318568087183,0.9999930576271527,6.594753129468764e-05
-0.3385250226507196,-0.3385250226507196,1.0000060754447866,6.364509641801939e-05
-0.33650220845884177,-0.33650220845884177,1.000044226118387,6.36535193993185e-05
-0.33553519334527665,-0.33553519334527665,0.9999798318514141,6.447134476097788e-05
-0.33452772595919666,-0.33452772595919666,1.0001688522608032,6.920047615112835e-05
-0.33210811924363953,-0.33210811924363953,0.999929624864467,6.360678448069152e-05
-0.330844273956609,-0.330844273956609,0.9999739594757205,6.36632593702286e-05
-0.3298137726349523,-0.3298137726349523,1.0000020254759054,6.420520866253533e-05
-0.3278983582451474,-0.3278983582451474,0.999989348916887,6.360860749263742e-05
-0.32613808270834854,-0.32613808270834854,1.0000045375428872,6.360800837451384e-05
-0.32494176166655964,-0.32494176166655964,0.9999127538079083,6.432064356338692e-05
-0.3234057090245187,-0.3234057090245187,1.000057529555969,6.371471475303834e-05
-0.3212692527566105,-0.3212692527566105,0.9999658097333122,6.360701793037283e-05
-0.31990777187165803,-0.31990777187165803,0.9998331096885048,6.371312245136742e-05
-0.3188632213888923,-0.3188632213888923,0.9999695259049449,6.455461335042047e-05
-0.31674337792501317,-0.31674337792501317,1.000024383583664,6.408561905567428e-05
-0.31505171378084923,-0.31505171378084923,1.0000814754851173,6.374634880708338e-05
-0.3141078331449535,-0.3141078331449535,0.9999197266734734,6.446951840557627e-05
-0.3129987730877474,-0.3129987730877474,1.000015431987281,6.361746974573023e-05
-0.3113200497406069,-0.3113200497406069,0.9999046561242553,6.418641958099707e-05
-0.30957158221281134,-0.30957158221281134,1.0000023457295708,6.359897766943727e-05
-0.3084151072485838,-0.3084151072485838,0.9998901155733568,6.47026837713667e-05
-0.3063573774794349,-0.3063573774794349,0.9998705211185646,6.427969644091298e-05
-0.3043541013263166,-0.3043541013263166,1.0000485344445766,6.515146917912649e-05
-0.30296814560715574,-0.30296814560715574,0.9999257439981581,6.361758143237925e-05
-0.30164388921984936,-0.30164388921984936,1.0000106723963058,6.46282161509414e-05
-0.2992110218852758,-0.2992110218852758,1.000018851005424,6.360763757316403e-05
-0.2975228628347395,-0.2975228628347395,0.9999403722080722,6.361383317286966e-05
-0.29631948461174035,-0.29631948461174035,1.0001099140083831,6.497054923795573e-05
-0.29416126235737466,-0.29416126235737466,0.9999217385346897,6.36220395275311e-05
-0.2920795697107678,-0.2920795697107678,0.9999510465777973,6.363744362540865e-05
-0.2910361680347705,-0.2910361680347705,1.0000333580713328,6.561389250491737e-05
-0.2887232194596436,-0.2887232194596436,0.9999665894584554,6.363481242531739e-05
-0.2866382090229308,-0.2866382090229308,0.9999104516092888,6.365117911758962e-05
-0.28563960577594116,-0.28563960577594116,0.999962619881881,6.620362772118542e-05
-0.2833552462019725,-0.2833552462019725,1.000232140508872,6.366090868416238e-05
-0.2815482125850394,-0.2815482125850394,0.9999297976987954,6.366702159666526e-05
-0.2805087111948524,-0.2805087111948524,0.9999757894284468,6.416188019664517e-05
-0.27835167822777296,-0.27835167822777296,0.9999792217095613,6.380613632125092e-05
-0.2767528861382743,-0.2767528861382743,0.9999832999761449,6.361365169621529e-05
-0.2756586676376173,-0.2756586676376173,1.0000288081781097,6.420615588563895e-05
-0.2743300003494369,-0.2743300003494369,0.9999912073948986,6.368954667671459e-05
-0.2721311228873674,-0.2721311228873674,0.9998907500438483,6.359933101554904e-05
-0.27066779441665856,-0.27066779441665856,1.0000943354085086,6.372433987356892e-05
-0.26960584439511875,-0.26960584439511875,1.0000603175413578,6.446058123289955e-05
-0.26794120228732937,-0.26794120228732937,0.9999308986966888,6.405737517755049e-05
-0.26605799052049406,-0.26605799052049406,1.0000586232860802,6.360451059258833e-05
-0.264740476856241,-0.264740476856241,0.9999579237666424,6.454629087528573e-05
-0.2637331831560005,-0.2637331831560005,0.9999293828184687,6.546392872309475e-05
-0.26182810725586025,-0.26182810725586025,1.0000737762710485,6.412128528711502e-05
-0.260128156573046,-0.260128156573046,0.9999239045169727,6.375244235987899e-05
-0.259146275522653,-0.259146275522653,1.0000390023368055,6.45093294045024e-05
-0.25767459423223044,-0.25767459423223044,0.9998803659690398,6.422619375847096e-05
-0.2553303780354327,-0.2553303780354327,0.9999012328443545,6.361087903227496e-05
-0.2537216103461105,-0.2537216103461105,0.999980796058202,6.490955276982073e-05
-0.25220311337616297,-0.25220311337616297,1.0000345685831742,6.450776631604168e-05
-0.24973292618233245,-0.24973292618233245,1.000060935429287,6.360655886221013e-05
-0.24829846089705826,-0.24829846089705826,0.9998903073164076,6.529700618885731e-05
-0.24695892073505094,-0.24695892073505094,1.0000244396162952,6.475238932572111e-05
-0.24517455881868955,-0.24517455881868955,0.9999398083621014,6.362567347725259e-05
-0.243238490857766,-0.243238490857766,1.0000124521778808,6.361884389308937e-05
-0.24191359091200865,-0.24191359091200865,0.999892784566932,6.411323859109446e-05
-0.24039939751673955,-0.24039939751673955,1.0000270104374096,6.488838351804351e-05
-0.23778736403328365,-0.23778736403328365,0.9999288789907343,6.361657615446132e-05
-0.23651778303610627,-0.23651778303610627,1.0000279563807706,6.425093286296461e-05
-0.23499714270292316,-0.23499714270292316,1.0000147397586134,6.528284797249203e-05
-0.23246667307394092,-0.23246667307394092,0.9999900268024516,6.364264700419492e-05
-0.23129794207634405,-0.23129794207634405,0.9999968702002849,6.442982786388866e-05
-0.23015106806124094,-0.23015106806124094,0.999934782095389,6.568433584105176e-05
-0.2274001432728255,-0.2274001432728255,1.000016322606604,6.361798532969797e-05
-0.2262364666938083,-0.2262364666938083,1.0000050937171086,6.365057439120175e-05
-0.22518919450521935,-0.22518919450521935,1.0001468432649576,6.419821010778082e-05
-0.22320237951353192,-0.22320237951353192,1.0000330568130678,6.382268371915356e-05
-0.2218277500331169,-0.2218277500331169,1.00007616969044,6.361778239926928e-05
-0.22072851579869165,-0.22072851579869165,1.0000658617183777,6.42758406909329e-05
-0.21941798875923268,-0.21941798875923268,1.0000956038290412,6.370732777332799e-05
-0.21722000355657656,-0.21722000355657656,0.9999774558075917,6.362257127435624e-05
-0.21573363002971746,-0.21573363002971746,1.0000439002678265,6.370952428246757e-05
-0.2147095779539086,-0.2147095779539086,0.9999062413133947,6.453368964387162e-05
-0.21278719876427205,-0.21278719876427205,1.0000271528857327,6.407477752030795e-05
-0.210946896407404,-0.210946896407404,1.000025118954184,6.359954241908718e-05
-0.20982341399649157,-0.20982341399649157,1.0000433239150357,6.45827734122564e-05
-0.20882686188851948,-0.20882686188851948,0.9999942353161593,6.418036999798887e-05
-0.2069122242188314,-0.2069122242188314,1.0000553915660682,6.36224208237933e-05
-0.20517065802996512,-0.20517065802996512,1.0000001555207578,6.360275850496671e-05
-0.20400421346421355,-0.20400421346421355,1.0000039645726368,6.46326339338196e-05
-0.20194720058643725,-0.20194720058643725,1.0000716776524403,6.426147042444003e-05
-0.19994418709247838,-0.19994418709247838,1.0000171797435184,6.509188946279345e-05
-0.19856496019929182,-0.19856496019929182,1.0000030522722136,6.361462231003814e-05
-0.197231482717325,-0.197231482717325,0.9999451433521443,6.457298706397544e-05
-0.19480783056351356,-0.19480783056351356,0.9999067740843731,6.36006875435528e-05
-0.1933838902914431,-0.1933838902914431,0.9999903668557202,6.549154137203943e-05
-0.1920508322014939,-0.1920508322014939,1.0001784397099944,6.491457744054973e-05
-0.19044535948778502,-0.19044535948778502,0.9999363672007398,6.363542747502067e-05
-0.18829802638792897,-0.18829802638792897,1.000024135177505,6.36231489237971e-05
-0.18700988757482265,-0.18700988757482265,0.9999576473811966,6.417464902404059e-05
-0.1854929254099261,-0.1854929254099261,1.0000406522325969,6.502869758491223e-05
-0.18284889209026006,-0.18284889209026006,1.0000306621383974,6.363328723374844e-05
-0.18161477584508248,-0.18161477584508248,0.99998512640991,6.431700947218152e-05
-0.18013245840556918,-0.18013245840556918,1.0000241940563925,6.546684170154401e-05
-0.17791218606580514,-0.17791218606580514,0.9998745954520183,6.360983056191371e-05
-0.17677823815029114,-0.17677823815029114,1.0000358968292344,6.364129227769748e-05
-0.17584402818465605,-0.17584402818465605,0.9999936739365317,6.457420235527144e-05
-0.1731199794303393,-0.1731199794303393,0.9999008603353211,6.36146562323537e-05
-0.1716940038255416,-0.1716940038255416,1.000109255565501,6.366977147748357e-05
-0.17072938427445478,-0.17072938427445478,0.99996088630296,6.421619872266415e-05
-0.16906227424915415,-0.16906227424915415,1.000075680429,6.361026694630052e-05
-0.16710490655095783,-0.16710490655095783,1.0000198178546162,6.361181852076995e-05
-0.16579866513202432,-0.16579866513202432,1.0001109849133305,6.43864947131471e-05
-0.16466610517236405,-0.16466610517236405,1.0000585512998734,6.41600893308229e-05
-0.1626860069547547,-0.1626860069547547,0.9999096336661495,6.360395817862738e-05
-0.16104105885024184,-0.16104105885024184,0.9999363945901878,6.372660335546523e-05
-0.16011014561518094,-0.16011014561518094,0.9999720090451099,6.443043843058714e-05
-0.15854813510668464,-0.15854813510668464,1.0000748873002103,6.426130104820607e-05
-0.15620981440297327,-0.15620981440297327,0.999994388368455,6.36057368563935e-05
-0.15509413788677193,-0.15509413788677193,0.9999996557149868,6.461776068233079e-05
-0.1542170235159574,-0.1542170235159574,0.9999201671524307,6.361305198326336e-05
-0.15242014633258805,-0.15242014633258805,1.0000077037235662,6.420989877106321e-05
-0.1501145853137132,-0.1501145853137132,1.0000196974232285,6.48229473695172e-05
-0.14876891482854263,-0.14876891482854263,0.9999807044357523,6.362635102368289e-05
-0.14636959627096074,-0.14636959627096074,0.9999435949724574,6.431847206012194e-05
-0.14437301390280483,-0.14437301390280483,1.0001038875819777,6.523778497373013e-05
-0.14309526755532714,-0.14309526755532714,1.0000703574933225,6.361015371253156e-05
-0.1413940116734011,-0.1413940116734011,0.9999993673197333,6.472683823621093e-05
-0.139181405416457,-0.139181405416457,1.000039218079328,6.360476467363978e-05
-0.13777572734979912,-0.13777572734979912,0.9999696519545237,6.384481498658302e-05
-0.13645597713475582,-0.13645597713475582,1.000070143765258,6.51048564265241e-05
-0.13375625890912488,-0.13375625890912488,0.9999681891483396,6.361867779518395e-05
-0.13233218649402262,-0.13233218649402262,1.000053982026581,6.389450200981499e-05
-0.13109604626661167,-0.13109604626661167,1.000119536265579,6.554178612851674e-05
-0.1284079218894476,-0.1284079218894476,0.9998455303249261,6.358545399786244e-05
-0.12710026311688125,-0.12710026311688125,1.0000342821550339,6.404431798610007e-05
-0.1261795283004176,-0.1261795283004176,0.9999787849519342,6.601791207459126e-05
-0.12335108791012317,-0.12335108791012317,0.9999809933571202,6.361130114175797e-05
-0.12204548061417882,-0.12204548061417882,0.9999914079280507,6.365689598094717e-05
-0.12097842384246178,-0.12097842384246178,1.000053125295738,6.418487211336896e-05
-0.11854674876085483,-0.11854674876085483,1.0000344566480783,6.380825204431171e-05
-0.11713544718222693,-0.11713544718222693,1.000062717253591,6.360837080468656e-05
-0.11612689298926852,-0.11612689298926852,0.999972499896464,6.425729246544107e-05
-0.11480369984637946,-0.11480369984637946,0.9999407228140289,6.369085486037183e-05
-0.11280981087766122,-0.11280981087766122,1.0000008810827639,6.362607231629766e-05
-0.11133571398677304,-0.11133571398677304,0.9999854204105467,6.370879965315559e-05
-0.11029564047930762,-0.11029564047930762,0.9999976046209472,6.451183886060845e-05
-0.1083798799518263,-0.1083798799518263,1.0000052897827447,6.406146576224439e-05
-0.10642689171945677,-0.10642689171945677,1.0000206840805337,6.373764822213693e-05
-0.10528272010851651,-0.10528272010851651,1.00016128243248,6.446099234561734e-05
-0.1040912416036008,-0.1040912416036008,1.000012163295576,6.414866385613462e-05
