time,time,flux,flux_err
-0.499009449253208,-0.499009449253208,0.999974017435985,0.00011615733205157765
-0.4971753602803801,-0.4971753602803801,0.9999890908841484,0.00011593606817363884
-0.495625934007694,-0.495625934007694,1.000112530115684,0.00010699092786657211
-0.49411136920389254,-0.49411136920389254,1.0000512249753748,0.00010531955657177567
-0.49169043911679183,-0.49169043911679183,0.9999921328194592,0.00010527936078435914
-0.4896595017926302,-0.4896595017926302,1.0000080700230476,0.00010533635092678359
-0.4876414987666067,-0.4876414987666067,0.9999456646830207,0.00010548828602194554
-0.4855444816785166,-0.4855444816785166,1.000090367357096,0.00010580450603093871
-0.4830708054738352,-0.4830708054738352,0.9999067800658803,0.00010590674310630335
-0.4816161048453068,-0.4816161048453068,0.9999681730799092,0.00010624207916566432
-0.4803185885772109,-0.4803185885772109,1.0000152590541294,0.00010686713623610309
-0.47881675345706753,-0.47881675345706753,1.0001674124192022,0.00010576001122232167
-0.4769435615860857,-0.4769435615860857,1.000067691468055,0.00010532367755326601
-0.4749295489833457,-0.4749295489833457,1.0000328767307853,0.00010530742964787325
-0.47250439125637056,-0.47250439125637056,0.9999058273091027,0.00010530846231931621
-0.47041309167107104,-0.47041309167107104,0.9999876534886105,0.00010536034379639484
-0.46848295909003357,-0.46848295909003357,0.9999420630593013,0.00010574803945316861
-0.46682365211308935,-0.46682365211308935,1.0000369631423052,0.00010578114459795307
-0.4654295350366738,-0.4654295350366738,1.0001135367913192,0.00010670947833664355
-0.4644467063655611,-0.4644467063655611,0.9999116085526362,0.00010628084516586716
-0.46319940019166095,-0.46319940019166095,1.0000839491339124,0.00010618141701771778
-0.461980662192218,-0.461980662192218,1.0000112310177227,0.00010656535531139517
-0.46052598651440346,-0.46052598651440346,1.0000814967214395,0.00010605979437883914
-0.45816768702061383,-0.45816768702061383,1.0000099596447538,0.0001053073755415325
-0.4559907834191108,-0.4559907834191108,0.9998999153077716,0.00010535298072229952
-0.4539631758612813,-0.4539631758612813,1.0000548715974182,0.00010550165688999504
-0.4520807777560549,-0.4520807777560549,0.9999966478948789,0.00010549879663491828
-0.4502775661618216,-0.4502775661618216,0.9998584419271653,0.0001057280573297708
-0.44846783664252143,-0.44846783664252143,1.0001422692299005,0.00010667943864486388
-0.44711960743006784,-0.44711960743006784,1.0000390877823144,0.00010678616568728365
-0.44563771948160136,-0.44563771948160136,1.0000519369558325,0.00010614600288478724
-0.44438622390443927,-0.44438622390443927,1.000034433671324,0.00010621046516295437
-0.44239043174602555,-0.44239043174602555,0.9999487845813093,0.0001053115507678488
-0.44059314086043744,-0.44059314086043744,1.0001727743045443,0.00010530904340907232
-0.4384562142018694,-0.4384562142018694,1.0001253001173662,0.0001053395545140349
-0.4363829121371964,-0.4363829121371964,0.9999854532068163,0.00010538811175963406
-0.4345967092172941,-0.4345967092172941,0.9999705928071968,0.00010575836620184688
-0.4328931435651612,-0.4328931435651612,1.0001294738247193,0.00010581615202564146
-0.4313694650889374,-0.4313694650889374,1.00004332111496,0.00010615244796932289
-0.43013367979729084,-0.43013367979729084,1.0001312286409632,0.00010623616767394526
-0.42875459318165665,-0.42875459318165665,1.0000127125529492,0.00010598044409520038
-0.42752085634565445,-0.42752085634565445,0.9998316349991919,0.00010664010174011255
-0.42560637938731816,-0.42560637938731816,1.0000262277339917,0.00010529889891482399
-0.42315432771574707,-0.42315432771574707,1.0000583140184376,0.00010532513669930304
-0.42130309744388794,-0.42130309744388794,0.9999918904310185,0.00010583024858383325
-0.41955949741241055,-0.41955949741241055,0.9998543239162917,0.00010551345364127497
-0.41752005327434744,-0.41752005327434744,1.0000984165364233,0.00010552613970295495
-0.4153689625585685,-0.4153689625585685,1.0001053999587806,0.00010637730608308999
-0.41373076410091014,-0.41373076410091014,0.9999295579369628,0.00010548838657675217
-0.41246940998535137,-0.41246940998535137,0.9998764111746791,0.00010671951317843987
-0.41052400348125956,-0.41052400348125956,0.999801567135141,0.00010526018788800727
-0.4083401794487145,-0.4083401794487145,0.9999574531385633,0.00010530937815524569
-0.40655572414107155,-0.40655572414107155,1.0000413183956067,0.0001053049673792526
-0.4044082769338274,-0.4044082769338274,1.000007393973259,0.00010533492935766162
-0.4023529485333711,-0.4023529485333711,0.9998811544894215,0.00010539361727140315
-0.39988497509621085,-0.39988497509621085,0.9999905150583416,0.00010626706645806899
-0.39789111627906093,-0.39789111627906093,1.0001906058045744,0.00010551436159493049
-0.3963869517814601,-0.3963869517814601,1.000003245695415,0.00010629477883986899
-0.39470132159185595,-0.39470132159185595,0.9999428688940591,0.00010571427759983847
-0.3928844982176088,-0.3928844982176088,0.9999125938495803,0.00010527715859605267
-0.39056056769913994,-0.39056056769913994,0.9999378308142106,0.00010531108712479674
-0.38821082209178714,-0.38821082209178714,0.9999829096636038,0.00010535899819261995
-0.3863893650996033,-0.3863893650996033,0.9999535121030372,0.00010534562068526772
-0.3843264282128075,-0.3843264282128075,1.000116977855042,0.00010571063720631036
-0.38283684791531414,-0.38283684791531414,0.9999776139277475,0.00010575353645967385
-0.3812919585645432,-0.3812919585645432,0.9999418267258731,0.00010597748581008626
-0.379705491947243,-0.379705491947243,0.9999208163250277,0.00010549132195297724
-0.37809464121528435,-0.37809464121528435,0.9999552958116149,0.00010547145355293254
-0.37650128710083663,-0.37650128710083663,1.000060264056271,0.00010711266697861307
-0.37478112440148836,-0.37478112440148836,1.000102512347828,0.000105289522005188
-0.37279487857595084,-0.37279487857595084,1.0000242828533668,0.00010529334659019752
-0.3708473923208658,-0.3708473923208658,0.9999269689459075,0.00010535979552996127
-0.36874644563067704,-0.36874644563067704,1.000018191263932,0.00010539064670025901
-0.36647660785820335,-0.36647660785820335,0.9999648733958963,0.00010581451355828921
-0.364188983940403,-0.364188983940403,1.0001075681740166,0.00010592744660096098
-0.3625967193715042,-0.3625967193715042,1.0000597744807438,0.00010656808218506957
-0.36098278033023234,-0.36098278033023234,0.9999857804947426,0.00010574366356351642
-0.35952473553770686,-0.35952473553770686,1.0001507416933668,0.0001059539484498873
-0.3575836985721253,-0.3575836985721253,1.0001083122103878,0.00010531303085502206
-0.35548467027256264,-0.35548467027256264,1.0001095528200925,0.00010529464633494516
-0.3534845273970859,-0.3534845273970859,1.0001092784202783,0.00010537713306915974
-0.3514782893500524,-0.3514782893500524,0.9999135377943634,0.00010554943945293151
-0.3496969280880876,-0.3496969280880876,1.0002149428707754,0.00010556823443418557
-0.3484231147187529,-0.3484231147187529,0.9998945526800294,0.00010580430987358486
-0.34693092076922766,-0.34693092076922766,0.9998856767607256,0.00010591894553745683
-0.34561624527559615,-0.34561624527559615,1.0000788513340382,0.00010628431632304282
-0.3445137288596015,-0.3445137288596015,1.000113341754155,0.00010608336772202783
-0.3429067989374744,-0.3429067989374744,1.0000906964885026,0.00010575857070205277
-0.34060758362466004,-0.34060758362466004,0.9998496703853721,0.00010529271066329017
-0.33820932095113676,-0.33820932095113676,1.0000005140058135,0.00010534670859013693
-0.33631309795891867,-0.33631309795891867,1.0000525882793079,0.00010534600817562437
-0.33429364185431043,-0.33429364185431043,1.000165850996928,0.0001054254150095747
-0.33235367640736513,-0.33235367640736513,0.9998980154439454,0.00010584231331373858
-0.3304902473231778,-0.3304902473231778,1.0001177948401216,0.00010592230978353585
-0.3290988768741954,-0.3290988768741954,0.9999558286414068,0.00010621325130301658
-0.32782116703747305,-0.32782116703747305,1.0003326830564956,0.00010719221920561979
-0.3265714555338491,-0.3265714555338491,1.000121226416108,0.00010578264517346053
-0.3247693226119736,-0.3247693226119736,1.0000252436421595,0.00010529400556040988
-0.3227183795766905,-0.3227183795766905,0.9998819240741564,0.00010531604102353734
-0.32039629997452723,-0.32039629997452723,0.9998769033776144,0.00010533051546995776
-0.3182978262921097,-0.3182978262921097,1.0000375879840662,0.00010536029368534688
-0.3162489058013307,-0.3162489058013307,1.0000899002950216,0.00010575456564611079
-0.31434999758494087,-0.31434999758494087,1.0000763296886621,0.00010579242163090664
-0.3128202888590749,-0.3128202888590749,1.0000932323416034,0.00010610773883423441
-0.311587863045861,-0.311587863045861,0.9999289325888595,0.00010619548549932868
-0.3102434899716172,-0.3102434899716172,1.000070293384503,0.00010637098259877729
-0.3092980044253636,-0.3092980044253636,1.0002189258353251,0.00010708484268028492
-0.30747336927161084,-0.30747336927161084,0.9998016224275093,0.00010530842809015518
-0.30548069340584333,-0.30548069340584333,1.0000158936457806,0.00010529798216267249
-0.3034065850661136,-0.3034065850661136,1.0001350675115308,0.00010535918725795553
-0.30137983668828383,-0.30137983668828383,0.999968964222514,0.00010549928748193229
-0.2995013412903063,-0.2995013412903063,1.0001525077716242,0.00010550220724486093
-0.297294081831933,-0.297294081831933,1.0001349654335903,0.00010632838295260767
-0.2955905792216072,-0.2955905792216072,0.9999262572533688,0.00010622763790875526
-0.2945038612058852,-0.2945038612058852,1.000094603527907,0.00010977742180850853
-0.2933385619398905,-0.2933385619398905,0.9998222975916178,0.00010591190253144168
-0.29180376324802637,-0.29180376324802637,1.0001828936053285,0.00010624190891583005
-0.28980462070030627,-0.28980462070030627,0.9999969766018136,0.00010530930481986854
-0.2880109950172482,-0.2880109950172482,1.0000781405624966,0.0001053057900623765
-0.2858710668690037,-0.2858710668690037,1.0001256362322608,0.00010533101075153326
-0.2838029028906021,-0.2838029028906021,0.9999490583801436,0.0001053884340228051
-0.2819521672965493,-0.2819521672965493,1.0000999862489632,0.00010578565175365515
-0.28031043175724335,-0.28031043175724335,0.9998986545026023,0.00010580912795358234
-0.27878918194328434,-0.27878918194328434,1.0000452666744775,0.00010616243448293303
-0.27755205786670556,-0.27755205786670556,1.0000394798990417,0.00010624969619068563
-0.27604831660573836,-0.27604831660573836,0.9999794882900831,0.00010612214573594348
-0.27435454351361843,-0.27435454351361843,1.0001124829206407,0.00010528868429141036
-0.27202395427739245,-0.27202395427739245,0.9999521935994957,0.00010530410382051999
-0.2700113160244655,-0.2700113160244655,1.0001241400395322,0.00010530852972961006
-0.2682057627069298,-0.2682057627069298,0.999987160759483,0.0001053927272974792
-0.26623515687533655,-0.26623515687533655,0.9999524829971858,0.00010544481054404385
-0.26408823500969447,-0.26408823500969447,0.9997701984855194,0.00010596776211376853
-0.2620955836668145,-0.2620955836668145,1.0000884736637587,0.00010601489401879502
-0.2605522393016145,-0.2605522393016145,1.0001628149929984,0.00010664844516290262
-0.25920234935183545,-0.25920234935183545,0.9999101306113151,0.00010549734832916926
-0.25739326944458296,-0.25739326944458296,0.9998442870841198,0.00010615215976782165
-0.2554345929878764,-0.2554345929878764,1.000087329267998,0.00010531082675126304
-0.2535233529051766,-0.2535233529051766,1.0000833501231752,0.00010529087277205233
-0.2514403219654923,-0.2514403219654923,1.0000874270015598,0.00010534022443416695
-0.2493579723115545,-0.2493579723115545,1.0000894949477401,0.00010561055604117402
-0.24753516506170853,-0.24753516506170853,1.0001392273563892,0.00010561466666578728
-0.24592294515750837,-0.24592294515750837,1.0002122834754323,0.00010583486059101447
-0.24436936560377945,-0.24436936560377945,0.9999418835356728,0.0001063801540245425
-0.24278671096544713,-0.24278671096544713,1.0002331519862153,0.00010542999853283542
-0.2413209240155993,-0.2413209240155993,0.9998491544238025,0.00010649867948843273
-0.23937073373526802,-0.23937073373526802,1.0001399366034132,0.00010531707481539747
-0.2369496809085831,-0.2369496809085831,1.000052403894642,0.00010529232016865273
-0.23494409081758932,-0.23494409081758932,1.0001194940431406,0.00010536069483548145
-0.23293577184376774,-0.23293577184376774,0.9997347876151537,0.00010552876046813391
-0.23099777389143128,-0.23099777389143128,1.0001131827298408,0.00010553103314663262
-0.22940378960047383,-0.22940378960047383,1.0000437966939753,0.00010583229729890296
-0.2277392402436817,-0.2277392402436817,1.000237371849244,0.0001061247940568184
-0.22621715305722317,-0.22621715305722317,0.999953471677434,0.00010547356928113673
-0.22423167406814173,-0.22423167406814173,1.0000157079369063,0.00010529836342534258
-0.22207536731730215,-0.22207536731730215,1.0001922308982059,0.00010530535151313586
-0.21967793996445834,-0.21967793996445834,1.0000807705871064,0.00010534580286128028
-0.21777555942244362,-0.21777555942244362,1.0001531653970663,0.0001053427157450678
-0.21574329959403257,-0.21574329959403257,1.0000108904724074,0.00010540851404895124
-0.2133124665619107,-0.2133124665619107,0.999815125663828,0.00010584959202724539
-0.21128054348228034,-0.21128054348228034,0.9999388902605851,0.00010602608685789153
-0.20976979632105214,-0.20976979632105214,1.0002404031859786,0.000106478514260601
-0.20841524671122896,-0.20841524671122896,0.9999912576794878,0.00010604420692427322
-0.20742145651602187,-0.20742145651602187,0.9998638069456899,0.00010710563496034138
-0.2058188811672153,-0.2058188811672153,1.000043615271949,0.00010530455732208945
-0.20380726998846513,-0.20380726998846513,1.00022333786074,0.00010532694077529563
-0.2018156524427468,-0.2018156524427468,0.9999563407925661,0.0001053272704631385
-0.19975898876145948,-0.19975898876145948,1.0002037352323037,0.00010536955467928106
-0.19770507791545242,-0.19770507791545242,1.0002497432085788,0.00010575037677088432
-0.19580695388431196,-0.19580695388431196,0.9998849385034925,0.0001057606077529425
-0.19427670353907162,-0.19427670353907162,1.0000332145772277,0.00010596952182617839
-0.19303678268624935,-0.19303678268624935,1.0000528562564839,0.00010628592174232834
-0.19155005869979505,-0.19155005869979505,1.0000704290836182,0.00010597558552194644
-0.1894073364615906,-0.1894073364615906,1.0001628685560222,0.0001053101959788461
-0.18705153031623922,-0.18705153031623922,0.9999819786193204,0.00010529461156114629
-0.18486711563018615,-0.18486711563018615,1.0000863065192815,0.00010535091701246097
-0.18283822042576503,-0.18283822042576503,0.9998948963597549,0.00010548269385887695
-0.18094996596919372,-0.18094996596919372,1.0001318277280755,0.00010550093774935479
-0.17917994809395169,-0.17917994809395169,0.9999201516446654,0.00010570233299426435
-0.17734311759995763,-0.17734311759995763,0.9999397770273696,0.00010664985661539968
-0.17598881608864758,-0.17598881608864758,1.0000745393939026,0.00010673979569131738
-0.17480612265353557,-0.17480612265353557,0.9999449256011987,0.00010632183342809288
-0.17413029419549275,-0.17413029419549275,1.0001787612151332,0.00010665639729576638
-0.1729598954116227,-0.1729598954116227,1.0000669761474228,0.00010582172579647335
-0.17099561704671942,-0.17099561704671942,0.9998889851735209,0.00010531136142216777
-0.16946639317902737,-0.16946639317902737,1.000103679250145,0.00010530177217043512
-0.16733397612406406,-0.16733397612406406,1.0001723057886327,0.0001053421442880111
-0.1652529663493624,-0.1652529663493624,1.0001658893403305,0.00010538690899781064
-0.16331844917149282,-0.16331844917149282,0.9999951908602617,0.00010576388077222819
-0.16143313476932236,-0.16143313476932236,0.9999288971183764,0.00010576896049044656
-0.16000476778135636,-0.16000476778135636,1.0000984029472975,0.00010611685437766941
-0.15866453273047226,-0.15866453273047226,1.000036869700246,0.00010618876654550466
-0.15737077626399695,-0.15737077626399695,0.9999706039321989,0.00010656407821709357
-0.1557432729139691,-0.1557432729139691,0.9999332692378129,0.00010616162055433074
-0.15348746930540075,-0.15348746930540075,1.0000609372736464,0.00010531125280291239
-0.15113215600140392,-0.15113215600140392,1.0000248963944407,0.00010535871532491546
-0.14931243783794343,-0.14931243783794343,1.0000179190310827,0.00010532413072381721
-0.14723942024575082,-0.14723942024575082,0.9999517266391804,0.00010566204628507986
-0.14471247240144294,-0.14471247240144294,1.000120343818464,0.00010634300345720271
-0.14301053133967798,-0.14301053133967798,0.9999231333691586,0.00010624728090462377
-0.1418565000873059,-0.1418565000873059,1.0001087167425333,0.00010667229165127355
-0.14017958019976504,-0.14017958019976504,1.0000279212036942,0.00010528382190638414
-0.13812458554166368,-0.13812458554166368,1.000028152536051,0.00010529678864727718
-0.1360971622605575,-0.1360971622605575,0.9998673520175394,0.00010529250991578346
-0.1341991990688257,-0.1341991990688257,1.0000707216505755,0.0001052758919201922
-0.13201598284649663,-0.13201598284649663,1.0000367426288972,0.00010546656316749816
-0.13008400375838391,-0.13008400375838391,1.0000338748117494,0.00010545320106830787
-0.1280456296837656,-0.1280456296837656,1.0000342705396752,0.00010612926804422448
-0.12650089563394432,-0.12650089563394432,0.9999789063699858,0.00010616688402775362
-0.12525944605877157,-0.12525944605877157,1.0001312282344348,0.0001062703125587589
-0.12375317041296512,-0.12375317041296512,1.0001413088510092,0.00010611774032667529
-0.12213511899171862,-0.12213511899171862,0.9998853168136292,0.00010529379432275117
-0.11991174871509429,-0.11991174871509429,1.0001650393110222,0.00010530000043393625
-0.11752647190587595,-0.11752647190587595,1.0000391076049786,0.00010532161967387263
-0.11561804574157578,-0.11561804574157578,1.0000997621184182,0.00010540203819996807
-0.11365543855936266,-0.11365543855936266,1.0000886374935418,0.00010544109231215668
-0.11177907848323229,-0.11177907848323229,0.9999739255294745,0.0001059726325324677
-0.10984668432502076,-0.10984668432502076,0.9998704414054578,0.00010597265313228574
-0.10826636992569547,-0.10826636992569547,1.0000616553825956,0.0001054735419728267
-0.10720211771840696,-0.10720211771840696,1.000255693662545,0.0001070764153164865
-0.1055058737314539,-0.1055058737314539,1.0000431080532155,0.00010611273227455798
-0.10366201850119978,-0.10366201850119978,0.9999431118518846,0.00010528327866630761
-0.10166804792825132,-0.10166804792825132,0.9999802616861044,0.0001052840324052027
-0.09972342905821278,-0.09972342905821278,0.9999837387839932,0.00010536033623640906
-0.09762287331395783,-0.09762287331395783,0.9999767735734324,0.00010538687717774839
-0.0955207021033857,-0.0955207021033857,0.9999686098200995,0.00010579124507097339
-0.09362040849518963,-0.09362040849518963,1.000108551499045,0.0001058595638813257
-0.09209835295332595,-0.09209835295332595,0.9999976900528427,0.00010547069701789885
-0.09056806269218214,-0.09056806269218214,0.9999408473098903,0.00010636253649598855
-0.0889209769491572,-0.0889209769491572,0.9999490354919537,0.00010653247970500031
-0.08727787064563017,-0.08727787064563017,1.0000001221370818,0.0001053098179269977
-0.08527023833885324,-0.08527023833885324,0.9999907333578291,0.00010530947709827623
-0.08304241513542365,-0.08304241513542365,1.0000106926626517,0.00010537810164185217
-0.08122026146447751,-0.08122026146447751,1.0000445224801817,0.00010534523238230043
-0.07916134663391858,-0.07916134663391858,0.9999852092035084,0.00010570530954641337
-0.07740709274075926,-0.07740709274075926,1.0001695697634136,0.0001057933041001009
-0.07580773030640557,-0.07580773030640557,0.9999528010871653,0.00010592252582888044
-0.07422853384923656,-0.07422853384923656,1.0002747389524533,0.00010547891224128081
-0.07271934392338153,-0.07271934392338153,0.9999657875214985,0.00010596712531129511
-0.07126727333525196,-0.07126727333525196,0.999884651941815,0.00010599105025841879
-0.069000433103065,-0.069000433103065,0.9998482097066207,0.00010531138441365489
