time,time,flux,flux_err
-0.49899129438464723,-0.49899129438464723,0.9996438807893203,0.0012094543461490562
-0.4961734621951261,-0.4961734621951261,1.0012786458267289,0.0011569581029936588
-0.494423702937335,-0.494423702937335,1.0000086658250253,0.0011552212607310978
-0.4926917542728309,-0.4926917542728309,0.9994364026019354,0.0011546308952441458
-0.49029404623997835,-0.49029404623997835,0.9996636713957854,0.0010567245100349966
-0.4888222978514932,-0.4888222978514932,0.9992145360586171,0.0010520570729653576
-0.48638069507378534,-0.48638069507378534,0.999737585722977,0.0011139827155517788
-0.484569761907278,-0.484569761907278,0.9995663251844992,0.0010554756553549374
-0.4833511202511545,-0.4833511202511545,0.9990642869213218,0.001053909510208138
-0.48158061728645407,-0.48158061728645407,0.999657896873404,0.0010531840410011736
-0.47963862854248873,-0.47963862854248873,1.00082401477684,0.0010542393139489252
-0.4779511915697185,-0.4779511915697185,0.9998654256375268,0.0011122281490798668
-0.47549405871568523,-0.47549405871568523,1.0013995485876586,0.0010552120987915362
-0.47391795985458884,-0.47391795985458884,0.9991272983250417,0.0010548535363227509
-0.4726662582725112,-0.4726662582725112,1.0018111624109258,0.0010542279668651286
-0.47063352063896674,-0.47063352063896674,1.000838973289439,0.0010538544520629156
-0.46853017829198507,-0.46853017829198507,1.0005842349093572,0.0010542769855011497
-0.4663640106188723,-0.4663640106188723,0.9991867499618949,0.0011106978849840412
-0.4643701240213886,-0.4643701240213886,0.9999577639828404,0.001055668418634207
-0.4629982860858945,-0.4629982860858945,1.0013628585667953,0.001055173193176325
-0.46159097789786757,-0.46159097789786757,0.9982641123985665,0.0010534451446979627
-0.4591235431397763,-0.4591235431397763,1.0013363317370017,0.0010522191405519454
-0.4572498470043683,-0.4572498470043683,0.9983445970286844,0.0010559047995979342
-0.45509109693994104,-0.45509109693994104,1.0013462544813163,0.001109198578382996
-0.45327986530401176,-0.45327986530401176,0.9990369629368574,0.0010552839529175924
-0.45206120465245475,-0.45206120465245475,0.9988505893901231,0.001053888517044946
-0.4502906861327574,-0.4502906861327574,0.9997427916712898,0.0010532506846428805
-0.44798020693315266,-0.44798020693315266,1.000904447084221,0.0010535091858912536
-0.4458922066112791,-0.4458922066112791,0.9986559052217178,0.001107241165586308
-0.4437980092227008,-0.4437980092227008,0.999694552302641,0.0010556186678524592
-0.44239658352589684,-0.44239658352589684,0.9989109899560835,0.0010543707445894665
-0.4411191115060319,-0.4411191115060319,1.0000482734267915,0.0010545525746985856
-0.43874488283991014,-0.43874488283991014,0.9994079124925849,0.0010543173352844492
-0.43682062576863245,-0.43682062576863245,0.9992847640711402,0.0010536621666229437
-0.4345697211807419,-0.4345697211807419,1.0001444516373532,0.0011044898790143764
-0.43274305590239237,-0.43274305590239237,1.0007407447959156,0.0010561985427433637
-0.4314577061277305,-0.4314577061277305,0.999661947866443,0.0010542714225871262
-0.42994277317948215,-0.42994277317948215,1.0000352987376249,0.0010533395256753979
-0.427375844108974,-0.427375844108974,0.9992852270642816,0.0010529349155232288
-0.42551960182072435,-0.42551960182072435,1.0020461817533186,0.0011038371810175858
-0.42334478209413645,-0.42334478209413645,1.0001835807384591,0.0010552181489490871
-0.4217682672383489,-0.4217682672383489,1.000715330293711,0.0010551573757396078
-0.42051642130300027,-0.42051642130300027,1.0005060364922602,0.0010545162640839818
-0.4184834703846718,-0.4184834703846718,1.0005118723989026,0.0010538050461100664
-0.4163181694188097,-0.4163181694188097,1.0011483794079041,0.0010537837258332895
-0.41410986097971547,-0.41410986097971547,0.9994447819777582,0.0011009302275238183
-0.41222051404447485,-0.41222051404447485,0.9984321708177939,0.0010547742727327904
-0.41084838731858325,-0.41084838731858325,0.9989247463686306,0.0010545179640747632
-0.40944126533477176,-0.40944126533477176,1.00170642488689,0.0010539908015666534
-0.40697383606038784,-0.40697383606038784,0.9995907405651103,0.0010532028563185127
-0.4051000671886868,-0.4051000671886868,1.0005073468206735,0.0010558736628123472
-0.402941769291192,-0.402941769291192,0.9999220818406249,0.0010987669597129382
-0.40113004081149484,-0.40113004081149484,1.0018111268263143,0.001056058007267629
-0.3999113491349817,-0.3999113491349817,1.0005336772464177,0.0010548297854569547
-0.39814080482210557,-0.39814080482210557,0.9982326315930992,0.001052961546007949
-0.3958303793631785,-0.3958303793631785,1.0001740487562203,0.0010541523105597251
-0.3933548360418172,-0.3933548360418172,0.9993117209247258,0.0010968075877498377
-0.3916191452869498,-0.3916191452869498,1.000574128859733,0.0010555339562285803
-0.3902466739040392,-0.3902466739040392,1.0010668918393537,0.0010549261064019297
-0.38896929109814665,-0.38896929109814665,1.0002942659281469,0.0010539744007432754
-0.38659505540981626,-0.38659505540981626,0.9996861474372013,0.0010542007943549919
-0.38452324829631834,-0.38452324829631834,0.9994619644981118,0.001053949142218158
-0.382150665858444,-0.382150665858444,1.0003593760716059,0.0010959869435823125
-0.3805935069677616,-0.3805935069677616,0.9999172049716073,0.0010554054136329935
-0.3793078383293505,-0.3793078383293505,0.9991943892808356,0.0010544541228634974
-0.37779286352961206,-0.37779286352961206,0.9998315092596737,0.0010537912946228347
-0.375226001404917,-0.375226001404917,0.9987127680106516,0.0010530343855825511
-0.37313546513278195,-0.37313546513278195,0.9997737216526671,0.0010934330498378957
-0.37101256946552896,-0.37101256946552896,0.9995319536435332,0.0010559669953029214
-0.3696185789860465,-0.3696185789860465,1.0002408098240572,0.0010556679335533298
-0.36836658920110493,-0.36836658920110493,1.0002663209978127,0.0010541364467161617
-0.36633342457862456,-0.36633342457862456,0.9993869432842855,0.00105400094621469
-0.36416861866573524,-0.36416861866573524,0.9992050182132621,0.0010545680681500256
-0.3615605921758288,-0.3615605921758288,0.9996864335783894,0.001092307983087615
-0.36005325211172023,-0.36005325211172023,1.0003818401478424,0.0010560581953496665
-0.3586984930552717,-0.3586984930552717,0.9997388977768127,0.0010551882660457367
-0.35729155789149447,-0.35729155789149447,0.9990787685040999,0.0010536913352538976
-0.35482413342870134,-0.35482413342870134,1.0020693442438262,0.0010535348448005787
-0.3527917148479901,-0.3527917148479901,1.0000773262373563,0.0010911586821344597
-0.3505338156496691,-0.3505338156496691,1.0008584404379413,0.001055622591351973
-0.3489802204876469,-0.3489802204876469,0.9986909444490669,0.001055242892552142
-0.34776149862527744,-0.34776149862527744,1.0006115211082451,0.0010546701544918856
-0.3459909284910282,-0.3459909284910282,1.0009205225628535,0.0010543981801018495
-0.34368055545855897,-0.34368055545855897,1.0004075933891492,0.0010543743852215865
-0.34120542905493495,-0.34120542905493495,0.9998974172796334,0.0010900622786622265
-0.3394695299668456,-0.3394695299668456,1.0004840904024166,0.0010559262063514006
-0.33809676873042915,-0.33809676873042915,1.0004456620702642,0.001054881052299496
-0.33681947569784826,-0.33681947569784826,0.9996881189433638,0.001054016398009566
-0.33444523242797003,-0.33444523242797003,0.9987718953317071,0.0010547069875722073
-0.3323737293791055,-0.3323737293791055,1.0000296824752755,0.001054071149145721
-0.33000096403857243,-0.33000096403857243,1.000542967340035,0.001088778643969689
-0.32844396231357675,-0.32844396231357675,0.99978520030863,0.0010552791226385656
-0.32715797528680923,-0.32715797528680923,1.000439245368067,0.0010545358787228919
-0.3256429588032006,-0.3256429588032006,0.9996061896704429,0.001053531061983958
-0.322852191259517,-0.322852191259517,1.0002394921370583,0.0010538140912078723
-0.3203456671440108,-0.3203456671440108,1.0005178313780216,0.0010883965089243555
-0.3186096847173758,-0.3186096847173758,0.998612843265103,0.001055898404340124
-0.3172368078024192,-0.3172368078024192,1.0013901634318025,0.0010550113875594925
-0.31595955088605476,-0.31595955088605476,0.9981597152304195,0.001054263914348577
-0.3133918021173486,-0.3133918021173486,1.0009849335859407,0.0010535746783917345
-0.3110718929480754,-0.3110718929480754,1.0014035150840428,0.0010865383768182356
-0.30894220864202,-0.30894220864202,0.9992324351645117,0.0010556999171165752
-0.30758414573883786,-0.30758414573883786,0.9993371454768465,0.0010552767798273825
-0.30629803136780537,-0.30629803136780537,1.000291478220224,0.0010550066131777718
-0.3047829982107032,-0.3047829982107032,1.0006805260138303,0.00105419458252084
-0.30199230838261426,-0.30199230838261426,0.9983733888243769,0.0010531929041274267
-0.2995156648246848,-0.2995156648246848,0.9985592673560022,0.0010849188319730539
-0.2980030918030934,-0.2980030918030934,0.999094349095426,0.0010550755282169204
-0.2966090227962013,-0.2966090227962013,0.9993553184544881,0.0010549786041373884
-0.2953568327910034,-0.2953568327910034,0.9995334180356071,0.0010544944321281046
-0.29320459708123964,-0.29320459708123964,0.9991645966483735,0.0010539596350532285
-0.2906541170434139,-0.2906541170434139,1.001335905570292,0.0010540039963378308
-0.28834096949449306,-0.28834096949449306,0.9998696830242313,0.0010841406681076477
-0.28704333075902466,-0.28704333075902466,0.9996043700467105,0.001055040089211398
-0.2856886482709342,-0.2856886482709342,0.9998122472909516,0.0010544715435852235
-0.2842819760755447,-0.2842819760755447,0.9992471732166797,0.0010539197337141608
-0.28161964203127354,-0.28161964203127354,1.0002454487213466,0.0010534359268471714
-0.2792663508052101,-0.2792663508052101,0.9982016831976223,0.001083150643624268
-0.27740095819835914,-0.27740095819835914,1.0003385046353732,0.001055291433874642
-0.2759704789049465,-0.2759704789049465,1.000102034030063,0.0010554344891926316
-0.27475171575051716,-0.27475171575051716,1.0013091221147021,0.0010549708461914918
-0.27298111000291103,-0.27298111000291103,0.9998553092825373,0.0010542908675076484
-0.27029943705711046,-0.27029943705711046,0.999514412119049,0.0010544893007136927
-0.2677332280497467,-0.2677332280497467,0.9992868046219107,0.0010827032746576642
-0.2664600745729331,-0.2664600745729331,0.9996436369418715,0.0010557294591378977
-0.2650869087555293,-0.2650869087555293,0.9999992259972647,0.001055763567136031
-0.263809742423291,-0.263809742423291,1.0000783435976854,0.0010550910072244489
-0.2612422045893254,-0.2612422045893254,1.0011442912224582,0.0010538778141211279
-0.25892211836408024,-0.25892211836408024,1.0013150677155371,0.0010827600050417577
-0.2567925527853731,-0.2567925527853731,1.0007930915231693,0.0010561897767213395
-0.2554346073510715,-0.2554346073510715,1.000138458347322,0.0010562261164278066
-0.25414817506753024,-0.25414817506753024,1.0000248494037867,0.0010544959559688066
-0.25263310033833475,-0.25263310033833475,1.0011712975994473,0.0010553093871005228
-0.2498426040447157,-0.2498426040447157,0.9985561657544973,0.0010538005454397497
-0.24736603073361038,-0.24736603073361038,1.0013856273276434,0.0010823629551915245
-0.24585346951689643,-0.24585346951689643,1.0001353987094663,0.0010556467197029731
-0.24445934514669715,-0.24445934514669715,0.9999917772667336,0.0010560963853085306
-0.24320701283040763,-0.24320701283040763,1.002357341711447,0.0010557888620297455
-0.24105482249669877,-0.24105482249669877,0.9994559826988534,0.0010547277730326493
-0.23850460512039717,-0.23850460512039717,1.0015386639296229,0.001054360919163223
-0.23619130983333889,-0.23619130983333889,1.0016957794141086,0.0010820414114453497
-0.2347977064758197,-0.2347977064758197,1.0007620848335237,0.0010558571372440192
-0.23328823388974343,-0.23328823388974343,0.9990462803173239,0.0010552468821793642
-0.23177314268359622,-0.23177314268359622,1.0014051251196503,0.0010556280587685452
-0.22898272335060027,-0.22898272335060027,1.0008464656648146,0.00105431136729884
-0.22655726720367966,-0.22655726720367966,1.0014759157140642,0.0010824272148756877
-0.22525132413466054,-0.22525132413466054,0.9998942358233233,0.0010554517136356404
-0.22362443856882236,-0.22362443856882236,1.0006859588208208,0.0010569764177057674
-0.2223470862002614,-0.2223470862002614,1.0015353173446786,0.0010569396001625735
-0.22019491393848512,-0.22019491393848512,0.9991541399689694,0.0010553608426518359
-0.21764480138590442,-0.21764480138590442,1.0006044002552277,0.0010548802616331386
-0.21533144670765977,-0.21533144670765977,0.9997321456581497,0.0010805317502198424
-0.21393777962184685,-0.21393777962184685,1.001846887944318,0.0010563507791694986
-0.21242829355169307,-0.21242829355169307,1.0010253444665635,0.0010552254241729773
-0.21091318567205236,-0.21091318567205236,1.0004990327962677,0.0010569656451200906
-0.20848113662132164,-0.20848113662132164,1.0010561145494832,0.0010554679093172173
-0.206257046925748,-0.206257046925748,0.9985399119252575,0.0010810877250071278
-0.20439147166725888,-0.20439147166725888,0.999586744168577,0.0010550933965965401
-0.2027644762422824,-0.2027644762422824,0.9985761983496205,0.0010570444420845374
-0.20148716046523987,-0.20148716046523987,0.9986012768490451,0.0010567618540216826
-0.19958796456112396,-0.19958796456112396,0.99854179843116,0.0010543788745897772
-0.19729008209469612,-0.19729008209469612,0.999580756603865,0.001056095947355801
-0.19472368475680923,-0.19472368475680923,0.9991125411387621,0.00108030055380705
-0.19341488160926018,-0.19341488160926018,0.9989760757077277,0.0010559244495304625
-0.19176670719707545,-0.19176670719707545,0.9997004438480737,0.0010557730372489412
-0.19005322949942638,-0.19005322949942638,0.9960891506597814,0.0010569715483729366
-0.18807406886899117,-0.18807406886899117,0.9989308052929052,0.0010549048316906033
-0.1859124390543002,-0.1859124390543002,0.9968944748551936,0.0010805671007541537
-0.18378304102106996,-0.18378304102106996,1.000287982990478,0.0010555147510234186
-0.18225626800276587,-0.18225626800276587,0.9970390834450805,0.0010578883570185515
-0.18072492099418014,-0.18072492099418014,0.994880160353454,0.0010565347522040942
-0.17895411600338776,-0.17895411600338776,1.0012704885952453,0.0010556014359864867
-0.17683302443947468,-0.17683302443947468,0.9996615514798357,0.0010539593632086259
-0.17412858308107387,-0.17412858308107387,0.9984627291486353,0.001057295853974564
-0.17273820546915886,-0.17273820546915886,0.995482338145137,0.0010806337390063055
-0.17121710161627562,-0.17121710161627562,0.9971688350776328,0.0010562497132117305
-0.16955265368451364,-0.16955265368451364,0.9972046722922207,0.0010581212145371645
-0.16767087544822062,-0.16767087544822062,0.9987783423595497,0.0010557744297450063
-0.16549529500261997,-0.16549529500261997,0.9984398368440669,0.0010562130833118059
-0.16292318178366258,-0.16292318178366258,1.0022800233193871,0.001055273986498692
-0.16162936990358504,-0.16162936990358504,0.996729250353521,0.001083733340493215
-0.16014710954650582,-0.16014710954650582,0.9987893035057265,0.00105609217959204
-0.15847742887590358,-0.15847742887590358,0.9985588503899094,0.001056009814970177
-0.15633155593468473,-0.15633155593468473,1.0010663973968827,0.0010552317013277218
-0.15390880149234362,-0.15390880149234362,0.9980995142048485,0.0010573886136121659
-0.15202338415019767,-0.15202338415019767,0.9998305668756539,0.001078797995441567
-0.1506145736142571,-0.1506145736142571,0.9982857604597092,0.0010601669329992837
-0.14914154122125184,-0.14914154122125184,0.9970720509761696,0.0010573706713078246
-0.14721678830819657,-0.14721678830819657,0.9999966181184916,0.0010553523053538926
-0.1451405474558669,-0.1451405474558669,0.998617186877764,0.0010574156603935976
-0.1423345041023822,-0.1423345041023822,0.9985414796619658,0.0010556864590448149
-0.14108731351479947,-0.14108731351479947,0.9972127007462189,0.001080942767453848
-0.13961724174077972,-0.13961724174077972,0.9993302122018262,0.001056523056269206
-0.13790334262193937,-0.13790334262193937,0.9960736740203263,0.0010574608744247473
-0.13592442246808786,-0.13592442246808786,1.0006469774239293,0.001054993185207778
-0.13368866417140451,-0.13368866417140451,0.9982413432308407,0.0010577729892966574
-0.13138199271807025,-0.13138199271807025,0.9996444356160529,0.0010552846371085513
-0.13001476594918132,-0.13001476594918132,0.9975385238080843,0.0010834762327435413
-0.12857527383766865,-0.12857527383766865,0.9971635547410009,0.0010582506141809946
-0.1268042112214971,-0.1268042112214971,0.9997610532651233,0.0010544652577858485
-0.12468332944536087,-0.12468332944536087,1.0005420591524976,0.0010546615972165298
-0.12197923327585158,-0.12197923327585158,0.9990689353104469,0.0010581877219436157
-0.12050487471433372,-0.12050487471433372,0.9975097120461683,0.0010797213076401747
-0.11906721501864012,-0.11906721501864012,0.9963196380262176,0.001056652595640728
-0.11740296999205384,-0.11740296999205384,0.9961663682517046,0.0010583650887438613
-0.11552120767373708,-0.11552120767373708,1.0001074478610843,0.0010552247196719963
-0.113345792338896,-0.113345792338896,0.9986908111574694,0.001057111468222639
-0.11077353638975182,-0.11077353638975182,0.999465521635484,0.0010552992332629586
-0.10947955355195518,-0.10947955355195518,0.9956503632099828,0.0010810771203797211
-0.10799736260178179,-0.10799736260178179,0.9982956853590169,0.0010567489729769214
-0.10632744937129246,-0.10632744937129246,0.9990628572990445,0.001056129454857933
-0.104181978744964,-0.104181978744964,1.000008805474139,0.0010547043037764455
-0.10175935058359756,-0.10175935058359756,0.9983027670499706,0.0010577576563818311
-0.09987371514516781,-0.09987371514516781,0.999239224744423,0.0010763469922360858
-0.09846467529487199,-0.09846467529487199,0.9966282320856994,0.0010588590353502163
-0.09699178896134981,-0.09699178896134981,0.9973050393268142,0.001058564582469806
-0.0950669591435144,-0.0950669591435144,0.999343075436505,0.0010538293854063345
-0.09299101678925581,-0.09299101678925581,0.9988169661806602,0.0010576785196673628
-0.09018518800721723,-0.09018518800721723,1.0005525132354391,0.0010552897328801665
-0.08893709345029492,-0.08893709345029492,0.9971032546816423,0.0010764910115857876
-0.08746778196391461,-0.08746778196391461,0.9973739143827732,0.001056414927109881
-0.08575346072348111,-0.08575346072348111,0.9961360160505404,0.0010581513146625714
-0.08377477959238604,-0.08377477959238604,0.9984696354276064,0.0010544622010019988
-0.08153926893373864,-0.08153926893373864,0.9994058177222843,0.0010581571791774404
-0.07923236948081466,-0.07923236948081466,0.999303285054666,0.0010550792434972285
-0.07786467613777859,-0.07786467613777859,0.9944774267795445,0.001077939216720411
-0.0764256320802815,-0.0764256320802815,0.9974316865809746,0.0010581091249543893
-0.07465431091541178,-0.07465431091541178,0.9990409641959929,0.0010544431821904923
-0.07253363831196111,-0.07253363831196111,1.0003130336119093,0.0010545046208167083
-0.06982988749896321,-0.06982988749896321,1.0000851995982047,0.0010582508460818556
-0.06835498836844636,-0.06835498836844636,0.9971305933167152,0.0010746848639576587
-0.0669173329246405,-0.0669173329246405,0.9994917302208778,0.0010572583395597962
-0.06525329164287541,-0.06525329164287541,0.9966082231783815,0.001057637946441472
-0.06337154431967065,-0.06337154431967065,1.0002462066270055,0.001055271016566672
-0.061196293816192335,-0.061196293816192335,0.99815808076413,0.0010565819449344584
-0.058623894884749464,-0.058623894884749464,1.000669700862917,0.0010553430442539467
-0.05732974117308913,-0.05732974117308913,0.9949292057208081,0.001075343989833835
-0.05584762055268584,-0.05584762055268584,0.9985450562491176,0.0010559634821895969
-0.054177474902553514,-0.054177474902553514,0.9993325505690034,0.0010556499168314175
-0.052032405416139224,-0.052032405416139224,0.9999704541699227,0.001054550592187604
-0.04960990395547924,-0.04960990395547924,0.9977245643211632,0.0010561966451056188
-0.047724049497537634,-0.047724049497537634,0.9988854551622944,0.0010721508133444617
-0.04631478167520982,-0.04631478167520982,0.9988110448136764,0.0010573636106672893
