time,time,flux,flux_err
-0.49987975819810043,-0.49987975819810043,0.9999294985417091,5.500529185142545e-05
-0.49979064786166416,-0.49979064786166416,1.0000259270150624,5.0241159987700865e-05
-0.499688533655717,-0.499688533655717,1.0001030922453529,5.07333573775834e-05
-0.49959206939674916,-0.49959206939674916,1.0000529677293135,5.0812675906658565e-05
-0.49948521647311284,-0.49948521647311284,0.9999760306690888,5.116582160343896e-05
-0.49937780101608953,-0.49937780101608953,1.0000825850190092,5.1781961639249646e-05
-0.49927038272508073,-0.49927038272508073,0.9999012421094869,5.036031441703727e-05
-0.49916550858106346,-0.49916550858106346,1.0000216573513745,5.070842700903651e-05
-0.49910640015659735,-0.49910640015659735,1.0000276368730034,5.042024664717432e-05
-0.499005974879401,-0.499005974879401,0.9999735590192362,5.052029872300186e-05
-0.4988408157041704,-0.4988408157041704,0.9999187755167667,5.183159146359957e-05
-0.4986389025340031,-0.4986389025340031,1.0000085951381241,5.051516997777991e-05
-0.4985666574764764,-0.4985666574764764,1.0000188640443253,5.2704486354253375e-05
-0.4984550421817403,-0.4984550421817403,1.0000899467544602,5.208943363396808e-05
-0.4982811448840948,-0.4982811448840948,0.9999955827929476,5.047852171567751e-05
-0.49814113206230104,-0.49814113206230104,1.0000791047515158,5.1739492772935115e-05
-0.49805012180659103,-0.49805012180659103,0.9999324594361276,5.172274341102213e-05
-0.4979399662646756,-0.4979399662646756,0.9999405557505604,5.071971067679565e-05
-0.49780810104639384,-0.49780810104639384,1.0000085095399969,5.068810423039851e-05
-0.4977208869495371,-0.4977208869495371,1.0000242026672173,5.26816400980552e-05
-0.4975539616723836,-0.4975539616723836,0.9999232247193433,5.024626971833071e-05
-0.49744979842653264,-0.49744979842653264,0.9999184413602711,5.022342456765061e-05
-0.49731799089277046,-0.49731799089277046,1.000036788866438,5.03650942019319e-05
-0.4971949813996616,-0.4971949813996616,1.0000776194681114,5.0703358593069944e-05
-0.4970385803790123,-0.4970385803790123,0.9999934117736574,5.1707630957974715e-05
-0.49689437964989336,-0.49689437964989336,1.0000002464493252,5.133599587726617e-05
-0.49677348729164805,-0.49677348729164805,1.0000913249724641,5.2046877303964226e-05
-0.496696254433482,-0.496696254433482,0.9999934271644919,5.0576658905112084e-05
-0.4965568416475435,-0.4965568416475435,0.9999633322143229,5.021959478835451e-05
-0.49650484389349003,-0.49650484389349003,0.999945189074835,5.071480653073213e-05
-0.49643047375575405,-0.49643047375575405,0.9999849377178858,5.0607872032414254e-05
-0.4963373485195916,-0.4963373485195916,1.0000444912141095,5.038262639014472e-05
-0.4961904606752796,-0.4961904606752796,1.000012412980561,5.281703012687685e-05
-0.49606057048295044,-0.49606057048295044,0.9999471952839677,5.0831808220251116e-05
-0.4959605008458311,-0.4959605008458311,1.0000492909037892,5.0244773221047664e-05
-0.49577634390370806,-0.49577634390370806,1.000071984477811,5.122664747389164e-05
-0.4956329865301086,-0.4956329865301086,1.0000343284290547,5.1529123924531994e-05
-0.4955796634712897,-0.4955796634712897,1.0000698618177062,5.010888742330474e-05
-0.4954886070205248,-0.4954886070205248,1.0000038506056825,5.02965977814741e-05
-0.49540580531975137,-0.49540580531975137,1.000027216731911,5.080173818404305e-05
-0.4952957642519323,-0.4952957642519323,0.9999830716511255,5.2710305475912586e-05
-0.4952158870153653,-0.4952158870153653,1.0000509035053626,5.165421887913424e-05
-0.4951061078529165,-0.4951061078529165,0.9999930222642014,5.0654560445148846e-05
-0.4949482403608272,-0.4949482403608272,0.9999651031665966,5.036999533192169e-05
-0.494833154076332,-0.494833154076332,0.9999501261331292,5.042979613463849e-05
-0.49470102252671494,-0.49470102252671494,1.000181148062451,5.150032848148037e-05
-0.494566643282451,-0.494566643282451,1.0000595896586801,5.140303848630259e-05
-0.4944640810375859,-0.4944640810375859,0.9999303215577628,5.061627203670062e-05
-0.494374525953026,-0.494374525953026,0.9999940341940725,5.162160899776515e-05
-0.49428936134645485,-0.49428936134645485,0.9999905972175785,5.047081520291269e-05
-0.49411366242347865,-0.49411366242347865,1.0001049445031935,5.0718128897656943e-05
-0.49402858539688166,-0.49402858539688166,0.9999833015878993,5.026497821138263e-05
-0.49389495099239866,-0.49389495099239866,0.9999620118358283,5.054394647968901e-05
-0.4937635632275487,-0.4937635632275487,0.9999707647050748,5.1866517583588315e-05
-0.493633774506452,-0.493633774506452,1.0000564939769874,5.054270897748534e-05
-0.4934592307210551,-0.4934592307210551,1.0000014796772227,5.050843573512974e-05
-0.49334007461802687,-0.49334007461802687,1.000062422712596,5.0820139753653756e-05
-0.49322867344817495,-0.49322867344817495,1.0000321946166284,5.1285476244592374e-05
-0.4931066282762913,-0.4931066282762913,0.9999954509022082,5.050194794626606e-05
-0.4930004839385219,-0.4930004839385219,0.9999511698942625,5.168132847345239e-05
-0.49290939381171484,-0.49290939381171484,0.999943876306776,5.065932867769755e-05
-0.492703722625447,-0.492703722625447,1.0000513929546657,5.0503549205317225e-05
-0.49258450063935016,-0.49258450063935016,0.9999519390675482,5.309817905175495e-05
-0.49245336727981337,-0.49245336727981337,1.0000459687639214,5.0360318284531474e-05
-0.4923474644208909,-0.4923474644208909,1.0000467426605755,5.028117764819542e-05
-0.49215075817410253,-0.49215075817410253,0.9999119275502245,5.0646323262264595e-05
-0.492047041071055,-0.492047041071055,1.0000340889972548,5.1732740873891355e-05
-0.4919545695564011,-0.4919545695564011,0.9999798313877678,5.176824206162379e-05
-0.49184520198759857,-0.49184520198759857,1.0000659000206773,5.044776632478152e-05
-0.49169099491700763,-0.49169099491700763,0.9999568665892203,5.095166299911929e-05
-0.49157361832330937,-0.49157361832330937,0.9999504977726955,5.039833300027554e-05
-0.49147460798340037,-0.49147460798340037,1.0000243979567487,5.137962985431304e-05
-0.49136766785741204,-0.49136766785741204,1.0000379028314024,5.1682328460894386e-05
-0.4912292933513527,-0.4912292933513527,0.9999491899571661,5.173092430894157e-05
-0.4910203978928621,-0.4910203978928621,0.9999546078295765,5.052826805290731e-05
-0.49088845169681006,-0.49088845169681006,0.9999572884433847,5.03073657869441e-05
-0.49081201816443354,-0.49081201816443354,0.9999513669659781,5.236053234083019e-05
-0.4907055538802524,-0.4907055538802524,1.000078340994405,5.07667209412769e-05
-0.4905811695731245,-0.4905811695731245,1.0000199730529549,5.164939824416663e-05
-0.490529268021055,-0.490529268021055,0.9999578394926145,5.057740732848984e-05
-0.490402054713195,-0.490402054713195,1.0000828889681361,5.010070573988993e-05
-0.4903085035606637,-0.4903085035606637,0.9999015788467807,5.201949866356737e-05
-0.49023761760327034,-0.49023761760327034,0.999954400816411,5.208680557283494e-05
-0.4900784496901906,-0.4900784496901906,1.000066786557665,5.0156965743267513e-05
-0.4900262305112847,-0.4900262305112847,0.9999844710799117,5.045452667413356e-05
-0.4898893373901956,-0.4898893373901956,1.0000649767681942,5.046455330453852e-05
-0.48976078154882996,-0.48976078154882996,0.9999563302172291,5.078457056265889e-05
-0.4896586541683064,-0.4896586541683064,0.9999339148346025,5.0335539304437044e-05
-0.48951538669571165,-0.48951538669571165,1.0000643412661865,5.0370909761817395e-05
-0.4893198507794295,-0.4893198507794295,0.999909120028677,5.047405170793467e-05
-0.48923629779019395,-0.48923629779019395,1.000098915679987,5.089522292393732e-05
-0.4891159193895874,-0.4891159193895874,1.000132793863812,5.05098032719151e-05
-0.4890240731321683,-0.4890240731321683,0.9998317536773014,5.181500864266006e-05
-0.4889546076359693,-0.4889546076359693,1.0001813506956112,5.0502178116179444e-05
-0.4888743663679634,-0.4888743663679634,1.0000214838189694,5.1845889582191794e-05
-0.48878048266415136,-0.48878048266415136,1.0000540398669933,5.0875209613253665e-05
-0.4885913480320596,-0.4885913480320596,0.9999994162694827,5.028143098959408e-05
-0.4883685729095305,-0.4883685729095305,1.000020727368224,5.4071172643749656e-05
-0.4881558794702869,-0.4881558794702869,0.999955037455131,5.146930849840467e-05
-0.4880975695916277,-0.4880975695916277,1.000020281010196,5.080306040759619e-05
-0.4879033353267005,-0.4879033353267005,0.9999563680745027,5.1839239235226474e-05
-0.48779570826663987,-0.48779570826663987,0.9999747305103259,5.234459575513007e-05
-0.4876681777954218,-0.4876681777954218,1.000069992967796,5.176098821361369e-05
-0.4875422417579102,-0.4875422417579102,1.0000220382727971,5.28247906503922e-05
-0.4874205807151156,-0.4874205807151156,0.9998835639505573,5.090813680382849e-05
-0.4873206252435921,-0.4873206252435921,1.000046736595871,5.0240686081186295e-05
-0.48723919057665627,-0.48723919057665627,1.0000442237123468,5.068461557623579e-05
-0.487151173473103,-0.487151173473103,1.0000979493028916,5.0649342880654746e-05
-0.4870749916663044,-0.4870749916663044,0.9999657430964326,5.056342976724521e-05
-0.48694000187242636,-0.48694000187242636,1.0000019822738246,5.0498023647902474e-05
-0.4868043702866999,-0.4868043702866999,0.9999364310510879,5.186647281621421e-05
-0.4866814951230481,-0.4866814951230481,1.0000651660813893,5.095426781741328e-05
-0.4865660821276833,-0.4865660821276833,0.9999716405249668,5.0187127198111804e-05
-0.4864965425207629,-0.4864965425207629,1.0000364059126592,5.194194926730983e-05
-0.4864323388690536,-0.4864323388690536,1.0000052682420475,5.0445302798365966e-05
-0.48632514207056377,-0.48632514207056377,0.9999680805884618,5.0453064175592594e-05
-0.4862520531532937,-0.4862520531532937,1.000013052007534,5.063401917231585e-05
-0.48619142795432707,-0.48619142795432707,1.0000071157595176,5.034819308066597e-05
-0.4860866160146543,-0.4860866160146543,0.9999162156521264,5.1694812587869595e-05
-0.4859300770127447,-0.4859300770127447,1.000131131585695,5.0364744595088936e-05
-0.4858181905088713,-0.4858181905088713,0.9999918248211932,5.0365282281193276e-05
-0.48568362241785507,-0.48568362241785507,1.0000364159950006,5.264934758554313e-05
-0.4855544570149505,-0.4855544570149505,0.9999738413817465,5.183422893165957e-05
-0.48537463118191226,-0.48537463118191226,0.9999597215834084,5.032446441064311e-05
-0.485284502383729,-0.485284502383729,1.0001658005122906,5.121534328450067e-05
-0.4851889851233864,-0.4851889851233864,0.9999712204102019,5.3312402581030057e-05
-0.4850293635754497,-0.4850293635754497,1.0000384833183371,5.059048546307218e-05
-0.48489397777666454,-0.48489397777666454,0.9999308410422227,5.084104716018252e-05
-0.4847677928803023,-0.4847677928803023,1.0000485567944575,5.0712770472557856e-05
-0.4846663186166552,-0.4846663186166552,1.0000400168845454,5.02097926968999e-05
-0.4845153654903697,-0.4845153654903697,1.0000285084512843,5.027133597042568e-05
-0.4843875393002236,-0.4843875393002236,0.9999878921068707,5.068555845118473e-05
-0.4842373562947614,-0.4842373562947614,1.0000672259324257,5.175621098705388e-05
-0.4841008436393167,-0.4841008436393167,0.9999372791569117,5.127477126140176e-05
-0.48392016747529853,-0.48392016747529853,1.0000119275126358,5.114199691242924e-05
-0.4838782123850251,-0.4838782123850251,1.0000316072346638,5.044168468629367e-05
-0.4837600550687057,-0.4837600550687057,1.0000085418390792,5.006845912988883e-05
-0.4837043896695832,-0.4837043896695832,1.0000235490122027,5.064241798898298e-05
-0.483601081816596,-0.483601081816596,1.000065122292091,5.167933369054572e-05
-0.4834937880019424,-0.4834937880019424,0.9998895290428941,5.0444393613062215e-05
-0.483347135137592,-0.483347135137592,1.0000208868578186,5.280028922181419e-05
-0.48323151874137693,-0.48323151874137693,1.000026270313672,5.0155594776043016e-05
-0.4831415185588412,-0.4831415185588412,0.9998847696042942,5.067994490139886e-05
-0.4829524432250764,-0.4829524432250764,1.000045617353942,5.167777104241149e-05
-0.4828091617811879,-0.4828091617811879,1.000020743184265,5.0277089780903964e-05
-0.482759540767438,-0.482759540767438,1.000003852493653,5.1534131591981125e-05
-0.482651691781939,-0.482651691781939,1.0001340631931788,5.168137690873417e-05
-0.4825764283137687,-0.4825764283137687,0.9999832893348483,5.0645748060471485e-05
-0.4824701238569105,-0.4824701238569105,0.9999764504970592,5.153159113837655e-05
-0.48242282999417513,-0.48242282999417513,0.9999725133049113,5.1525755802794176e-05
-0.48231712560445883,-0.48231712560445883,1.0001585583321573,5.04286947439223e-05
-0.48220593039295634,-0.48220593039295634,0.9999753081365828,5.0236622228125596e-05
-0.4820915568052442,-0.4820915568052442,0.9999189715344364,5.03205898285742e-05
-0.481938656456623,-0.481938656456623,1.0000130586367462,5.0743196616469754e-05
-0.48180252745805774,-0.48180252745805774,1.0000912704120535,5.017087060958022e-05
-0.4816540645857458,-0.4816540645857458,1.0001139422027652,5.1580068772788846e-05
-0.4815456331089081,-0.4815456331089081,0.999951337100834,5.0876813526931054e-05
-0.48143913373569375,-0.48143913373569375,1.0000759680557547,5.151901024313287e-05
-0.4813004166840983,-0.4813004166840983,0.9999718915869027,5.037602755514872e-05
-0.48123728105274494,-0.48123728105274494,0.9999579659823488,5.188972112894875e-05
-0.48114945331035414,-0.48114945331035414,0.9999804114821276,5.0466379705509535e-05
-0.481046629732009,-0.481046629732009,0.9999544619230276,5.055699588311152e-05
-0.48095831468963296,-0.48095831468963296,1.0000319103458353,5.11651669846966e-05
-0.48089473054133125,-0.48089473054133125,0.9999676177331089,5.0572337207704606e-05
-0.48068507918796965,-0.48068507918796965,1.0000124750255417,5.024282933145986e-05
-0.48058002725301774,-0.48058002725301774,1.000039915724849,5.075013247734356e-05
-0.48041446107963565,-0.48041446107963565,1.000046506700318,5.155574619709746e-05
-0.48028035671595715,-0.48028035671595715,0.999988837921579,5.1546855339789215e-05
-0.480174718429771,-0.480174718429771,0.9999563503319019,5.0857276224535654e-05
-0.4800644763316086,-0.4800644763316086,1.0000046176378288,5.182386700677468e-05
-0.4799190079131222,-0.4799190079131222,1.0000292510515343,5.078039600380635e-05
-0.479781222789461,-0.479781222789461,1.0000540557434463,5.1545528571564524e-05
-0.4796741098900384,-0.4796741098900384,1.0000307522576795,5.031812145054312e-05
-0.4795693244188442,-0.4795693244188442,0.9999330735853267,5.0196795982365664e-05
-0.47953220626804977,-0.47953220626804977,1.000131262215182,5.072208043494627e-05
-0.4794554586194863,-0.4794554586194863,0.9999373031216127,5.168918573538909e-05
-0.47927900068316376,-0.47927900068316376,0.9999972410468254,5.11999408102824e-05
-0.47919918465267985,-0.47919918465267985,1.0000846850195546,5.224928461222849e-05
-0.4791232148782001,-0.4791232148782001,0.9999241765662079,5.1251976360461204e-05
-0.4790390981725068,-0.4790390981725068,0.9999746125177309,5.055846372800136e-05
-0.47886379713963834,-0.47886379713963834,0.999956045195295,5.1795375807132275e-05
-0.4787639580965333,-0.4787639580965333,1.0000384250652918,5.064554973512426e-05
-0.47867817518563244,-0.47867817518563244,1.0001292541224367,5.0235292340480676e-05
-0.4785504482584656,-0.4785504482584656,1.0000593326001208,5.2898767726607514e-05
-0.478403803906258,-0.478403803906258,1.000062589665285,5.152347394127402e-05
-0.4781638130014471,-0.4781638130014471,1.000194093756041,5.159536217108833e-05
-0.4780461079630186,-0.4780461079630186,0.9999682146772833,5.0614975412192965e-05
-0.47792454267910217,-0.47792454267910217,1.0000548258924837,5.2598263404813694e-05
-0.47779491239780325,-0.47779491239780325,1.0000366923535566,5.0935655318997525e-05
-0.47769400060424233,-0.47769400060424233,1.0000003885049287,5.171993190597423e-05
-0.47760915358012423,-0.47760915358012423,1.000024962182556,5.027381874477731e-05
-0.4774789571391011,-0.4774789571391011,1.0000347140184727,5.088343524379369e-05
-0.47731569219977243,-0.47731569219977243,0.9999325261135799,5.155707564268047e-05
-0.47723058901246984,-0.47723058901246984,1.0000253906393808,5.042510280123164e-05
-0.4771273233818647,-0.4771273233818647,0.9999012173176404,5.150322901913731e-05
-0.4770009767409647,-0.4770009767409647,1.0000959280208535,5.0228382683406246e-05
-0.4768769728128973,-0.4768769728128973,0.9998649882528483,5.200934250261687e-05
-0.4767491321079433,-0.4767491321079433,0.9999411686880577,5.0334714037121865e-05
-0.4766458287100249,-0.4766458287100249,1.0000378827069791,5.034783356939283e-05
-0.47653374536457704,-0.47653374536457704,1.0000170014785088,5.178758487620731e-05
-0.47641343617942766,-0.47641343617942766,1.0000734011346464,5.062937889475956e-05
-0.4763213410893513,-0.4763213410893513,0.9999975788390826,5.0813359133151104e-05
-0.4762177729986433,-0.4762177729986433,0.999969804566676,5.03273605491508e-05
-0.4761481795823784,-0.4761481795823784,0.9999447301510489,5.294192742679819e-05
-0.47604263039829675,-0.47604263039829675,1.0000864400538159,5.1457577965008174e-05
-0.4759784331698029,-0.4759784331698029,1.0000355503579743,5.103896948034272e-05
-0.4758345223403012,-0.4758345223403012,1.0000239146220604,5.0489779463942166e-05
-0.47567543624536485,-0.47567543624536485,1.0000140044736479,5.136274070847636e-05
-0.47555405998136846,-0.47555405998136846,0.9998732982689493,5.25746017078947e-05
-0.47548046735973915,-0.47548046735973915,0.9998973021008972,5.0749399187626115e-05
-0.4753577477124054,-0.4753577477124054,0.9999629868095138,5.068138050437061e-05
-0.47527953484823227,-0.47527953484823227,1.0000047364169509,5.080010738460306e-05
-0.47513445188378683,-0.47513445188378683,0.9999441664997898,5.028135217311928e-05
-0.4750278765641269,-0.4750278765641269,0.9999048062343328,5.239659338391985e-05
-0.47495638803520707,-0.47495638803520707,1.0001305284622333,5.061871646027021e-05
-0.4748118600022281,-0.4748118600022281,1.000071796228132,5.029450143945399e-05
-0.47469445292517776,-0.47469445292517776,0.999918650703761,5.144483874823438e-05
-0.4745219011980225,-0.4745219011980225,0.9999064248068,5.074317503681327e-05
-0.4743916688392346,-0.4743916688392346,0.9999616712737597,5.0695225337944554e-05
-0.474302864659694,-0.474302864659694,0.9999532520225907,5.063973895430662e-05
-0.47425766295709765,-0.47425766295709765,1.0000157921023847,5.077847850327972e-05
-0.47404791481603753,-0.47404791481603753,1.0000240225619073,5.027292296214498e-05
-0.4739637280908937,-0.4739637280908937,1.0000334331023173,5.077565394080196e-05
-0.47380442252469945,-0.47380442252469945,1.0001710690249042,5.188308646549869e-05
-0.4737057594262296,-0.4737057594262296,1.0000362092045227,5.139133061440663e-05
-0.4736170326192223,-0.4736170326192223,0.9999472689669886,5.0367515822678896e-05
-0.4735222329443786,-0.4735222329443786,0.9999530466160902,5.0734323031369556e-05
-0.4734605453151744,-0.4734605453151744,0.9999466744963599,5.151203051671722e-05
-0.47334018035253395,-0.47334018035253395,1.0001215968051476,5.057728996710522e-05
-0.4731732607462618,-0.4731732607462618,1.0001478710231333,5.260251003641696e-05
-0.47301870388837414,-0.47301870388837414,1.0000742681362342,5.059570704537377e-05
-0.4728547740443901,-0.4728547740443901,0.9999386481912662,5.202092505217572e-05
-0.47275026336646986,-0.47275026336646986,1.0000105873263065,5.0625046440046806e-05
-0.4725884694169508,-0.4725884694169508,1.0000122043640247,5.148943912496478e-05
-0.4724329274438787,-0.4724329274438787,0.999990112263893,5.1887830981666303e-05
-0.47230081634770615,-0.47230081634770615,1.0000193767567414,5.1427803017513664e-05
-0.4722080801046104,-0.4722080801046104,1.00002455328062,5.193626373190316e-05
-0.47203828184938174,-0.47203828184938174,1.0000169861331227,5.0659835092625304e-05
-0.4719472577817214,-0.4719472577817214,0.9999921598346209,5.0824637144286136e-05
-0.4718005749440636,-0.4718005749440636,1.0000675721051515,5.0335348945538085e-05
-0.47169244138640354,-0.47169244138640354,0.999941056260169,5.137917407149459e-05
-0.47160301981930386,-0.47160301981930386,1.000066358783738,5.075359412404173e-05
-0.4714853831930668,-0.4714853831930668,1.0000534308998463,5.0637932396378554e-05
-0.47135709947688154,-0.47135709947688154,1.0000721739944631,5.059744595920617e-05
