time,time,flux,flux_err
-0.4990747254494636,-0.4990747254494636,1.0001363741977305,8.037510875239126e-05
-0.49749873504260905,-0.49749873504260905,1.0002678004401242,8.022799900478623e-05
-0.4963221337340656,-0.4963221337340656,0.9999617618857648,7.996699479233973e-05
-0.49461375018436227,-0.49461375018436227,1.0000057639032187,8.054305140850547e-05
-0.49293165222625246,-0.49293165222625246,0.9998970488812604,8.027799779240853e-05
-0.49201488446851727,-0.49201488446851727,0.9998683995901805,8.125861337931713e-05
-0.49087068056469435,-0.49087068056469435,0.9999200285707607,8.064564795832951e-05
-0.48933076085013455,-0.48933076085013455,1.0000540834970437,8.016297525084771e-05
-0.48802821166755167,-0.48802821166755167,1.0001420206113132,8.143817502881994e-05
-0.48671826232312015,-0.48671826232312015,1.0000689740946187,8.033608791321922e-05
-0.48449334073229694,-0.48449334073229694,0.9995784392441541,8.004212528958107e-05
-0.4830180704673694,-0.4830180704673694,1.0001759947806521,8.021637505577778e-05
-0.4816220889799297,-0.4816220889799297,1.0000029547108453,8.005781210750787e-05
-0.4807634532189695,-0.4807634532189695,1.0000352857793655,7.969930153121472e-05
-0.478615642269142,-0.478615642269142,1.0000924325634446,8.0201438454011e-05
-0.4777213459208724,-0.4777213459208724,1.0000220159650297,7.997209388766588e-05
-0.4764430863564485,-0.4764430863564485,1.0000942043617358,8.00574465863239e-05
-0.47487559400760804,-0.47487559400760804,0.9998976203175765,8.015624089600288e-05
-0.4734945538417378,-0.4734945538417378,1.0000436118010545,7.990852086965636e-05
-0.4727276279591024,-0.4727276279591024,0.9997590642121267,8.072401024642782e-05
-0.4719328745486564,-0.4719328745486564,0.9999720051525411,8.01914313366248e-05
-0.46979152106214317,-0.46979152106214317,0.9999834987203154,8.013298151700467e-05
-0.46843498407033624,-0.46843498407033624,0.9999144710378737,8.036817308789017e-05
-0.4671797227572824,-0.4671797227572824,1.000047547043425,8.063735217127793e-05
-0.4663476741880004,-0.4663476741880004,0.9999731391588075,7.980629550354924e-05
-0.46429282445897113,-0.46429282445897113,0.9999260343955896,8.027311907253549e-05
-0.46201454078473037,-0.46201454078473037,0.9999882564448173,8.018469057693502e-05
-0.461163728543761,-0.461163728543761,0.9999559691727071,7.976771752722841e-05
-0.4590642272829427,-0.4590642272829427,1.0000505888867146,8.020378371532813e-05
-0.4582643763009401,-0.4582643763009401,0.9999313975544668,7.989995889444865e-05
-0.45744609455068713,-0.45744609455068713,0.99995420115163,7.985298452532029e-05
-0.4551422799107968,-0.4551422799107968,1.000034795311373,7.987093384066863e-05
-0.45340569529507774,-0.45340569529507774,0.9998904641873112,8.110716744624367e-05
-0.4525013916841999,-0.4525013916841999,0.9999659214832832,8.029141210942929e-05
-0.4516766279899457,-0.4516766279899457,0.9998502678886411,7.987763044771558e-05
-0.4508516887122823,-0.4508516887122823,0.9999990042828972,8.009923725873587e-05
-0.4492138568217342,-0.4492138568217342,1.0000981858285285,8.001866388780968e-05
-0.4478628297067189,-0.4478628297067189,0.9999361622529701,8.07741027337138e-05
-0.44684818491587064,-0.44684818491587064,1.0001303422971763,7.982865974710993e-05
-0.4450324167009967,-0.4450324167009967,0.9997834324996232,8.028144484963166e-05
-0.4433157290703093,-0.4433157290703093,0.9999514919070542,8.03618454244253e-05
-0.4421762444144406,-0.4421762444144406,1.0002268093140578,8.00329342814416e-05
-0.4412711195524025,-0.4412711195524025,1.0000380062498224,8.031007361976105e-05
-0.4394952884678787,-0.4394952884678787,1.0000953529168197,8.058521102661608e-05
-0.43834170488407836,-0.43834170488407836,1.0000709320605705,7.995045205564539e-05
-0.43737550684236337,-0.43737550684236337,0.9999792344066986,8.02872939144358e-05
-0.43505672327301,-0.43505672327301,1.0000478197620066,8.076349982373002e-05
-0.43301445488177703,-0.43301445488177703,0.9998921934881635,8.053375646932358e-05
-0.43158013686479535,-0.43158013686479535,1.000005239453931,7.998211010378988e-05
-0.4303560521642794,-0.4303560521642794,1.0000565195687106,8.029021077492309e-05
-0.4293868383530935,-0.4293868383530935,1.0001801474989107,8.020080669326214e-05
-0.42832191584602697,-0.42832191584602697,0.9999950081766368,8.08583681385125e-05
-0.4273269481767784,-0.4273269481767784,1.0001011631108745,7.994026682718338e-05
-0.4266549209452933,-0.4266549209452933,1.0004726699826665,7.979652208535222e-05
-0.42479442244002713,-0.42479442244002713,1.0001432805459496,8.019648698428554e-05
-0.4238447304211149,-0.4238447304211149,1.0001214865318082,8.033075852983058e-05
-0.42310206024849323,-0.42310206024849323,0.9998818451170879,8.037354951560809e-05
-0.4221202072156302,-0.4221202072156302,1.0002296123011205,8.062285995718615e-05
-0.420526966653415,-0.420526966653415,1.0000168772725315,7.99669136376977e-05
-0.4189869910478592,-0.4189869910478592,1.0000857486766517,8.046670807028692e-05
-0.4181938454363262,-0.4181938454363262,0.9998771084819582,8.064017410560394e-05
-0.4165818895467964,-0.4165818895467964,0.9998015682725342,7.997974393520227e-05
-0.41522125270712423,-0.41522125270712423,0.9999925108406977,8.115139464971831e-05
-0.4133191987399186,-0.4133191987399186,0.9998834799826184,8.020960736766215e-05
-0.41146726119623056,-0.41146726119623056,0.9997557110514576,7.98636622598557e-05
-0.4099249132828845,-0.4099249132828845,0.9999033137908231,7.981165676253884e-05
-0.40869957201139184,-0.40869957201139184,1.0000642520267247,8.037586765431045e-05
-0.40748950856359445,-0.40748950856359445,1.0000664948697955,7.985364231098556e-05
-0.405352465807664,-0.405352465807664,1.0002106544512372,8.026894396548187e-05
-0.40412426977054566,-0.40412426977054566,0.9999366100220293,7.990287692288119e-05
-0.4023688428729656,-0.4023688428729656,1.0000696187235625,8.033177065834981e-05
-0.4001424675465387,-0.4001424675465387,0.9999569253076241,8.058586338007306e-05
-0.39939900066965495,-0.39939900066965495,1.0000476841334325,8.099117856321937e-05
-0.3981540607986972,-0.3981540607986972,1.000028063478235,8.03398548242285e-05
-0.3965584201287129,-0.3965584201287129,1.0001764903644799,8.019920755074094e-05
-0.3953500532225007,-0.3953500532225007,1.0000318057161353,8.143354762083546e-05
-0.39431808778099364,-0.39431808778099364,0.9999973132747293,8.074664324274646e-05
-0.39332504004923974,-0.39332504004923974,0.9999342499361331,8.037320878280684e-05
-0.3920915188980871,-0.3920915188980871,0.9998806976859868,7.994927490206163e-05
-0.39033974101621427,-0.39033974101621427,1.0002202235998325,8.021196447246124e-05
-0.3889440865554207,-0.3889440865554207,0.9999622107408254,8.00584730406389e-05
-0.38812368422804866,-0.38812368422804866,1.0000272410636588,7.982368329243858e-05
-0.38617585616229916,-0.38617585616229916,1.000042671923163,8.015666633897438e-05
-0.3848639836680377,-0.3848639836680377,0.9999138397341258,8.010067163253066e-05
-0.3834119558094244,-0.3834119558094244,1.0000782541122768,8.03687398441469e-05
-0.38152280338617856,-0.38152280338617856,1.0000938377689008,8.003126540465098e-05
-0.3803587505411997,-0.3803587505411997,1.000017740983454,8.041781336515154e-05
-0.3796061666267633,-0.3796061666267633,0.9999687925327801,8.057698170619127e-05
-0.37852970690291843,-0.37852970690291843,0.9999645106318971,7.991773816756566e-05
-0.37634321204168375,-0.37634321204168375,0.9998846121742861,7.976605221882035e-05
-0.37558194716621074,-0.37558194716621074,1.00006819907631,8.090958691326833e-05
-0.374316746857221,-0.374316746857221,0.9999715836882908,8.032288450294531e-05
-0.3734710833938152,-0.3734710833938152,1.0000299844007399,7.95965891018692e-05
-0.3714566025148088,-0.3714566025148088,1.0000132541495195,8.024536586233189e-05
-0.3690726852917578,-0.3690726852917578,0.9999994457751906,7.994784843748529e-05
-0.36797883404942694,-0.36797883404942694,0.9998349876318737,7.991980842828543e-05
-0.3658855251567729,-0.3658855251567729,1.0000927524152483,8.028857755942435e-05
-0.364995809282118,-0.364995809282118,1.0000018451878738,8.002220919303365e-05
-0.36244863558749785,-0.36244863558749785,0.9999355117696217,7.979507864996433e-05
-0.36089302341497387,-0.36089302341497387,0.9998451629589373,8.112625270709144e-05
-0.36004478106551685,-0.36004478106551685,0.9999519544582671,8.045286891042422e-05
-0.358910166163696,-0.358910166163696,1.0001608285065975,7.970251272906406e-05
-0.3576896714148461,-0.3576896714148461,1.000009192431406,7.980512556390853e-05
-0.35615896298113514,-0.35615896298113514,0.9998370036331984,8.06799367668507e-05
-0.35491396642610196,-0.35491396642610196,0.9998075591320943,8.058466446760256e-05
-0.3540162891898945,-0.3540162891898945,0.9999919302246664,7.960437724285683e-05
-0.35223178013548023,-0.35223178013548023,1.0002884617312446,8.012647572368982e-05
-0.350472693512711,-0.350472693512711,1.0000432223998135,8.024210629784049e-05
-0.3494369888350775,-0.3494369888350775,1.0000793193922741,7.983365925836386e-05
-0.34816592861898243,-0.34816592861898243,0.999872631812905,8.018532251612351e-05
-0.34698456600817734,-0.34698456600817734,0.9999438194083,8.07050146102843e-05
-0.3458089784122421,-0.3458089784122421,0.9998525678984646,8.004682759713477e-05
-0.3450765399124066,-0.3450765399124066,0.9999805082136387,8.079558320713969e-05
-0.34364226082325333,-0.34364226082325333,0.9998518932204747,7.984137008895514e-05
-0.3414070100196113,-0.3414070100196113,0.9998052137513891,8.129339286240417e-05
-0.3395942642593582,-0.3395942642593582,0.9999819083837874,8.008026914455571e-05
-0.33854069437584255,-0.33854069437584255,0.9999180599073872,8.031853720782785e-05
-0.33720011297846214,-0.33720011297846214,1.00005350647526,7.98638476621523e-05
-0.3362690336667583,-0.3362690336667583,0.9998259028820418,8.043542006778633e-05
-0.3352400997995574,-0.3352400997995574,0.9998652412522488,8.053075610033839e-05
-0.33440050739154686,-0.33440050739154686,1.0002449749824716,7.990043266804556e-05
-0.3335968142469937,-0.3335968142469937,0.9998577411716056,8.016155118007013e-05
-0.33179075950101833,-0.33179075950101833,0.9994784954140707,8.005622451303762e-05
-0.3308425503986655,-0.3308425503986655,1.0000673169723053,8.027054166336129e-05
-0.32975176007894336,-0.32975176007894336,0.9998521425809628,7.989737587607965e-05
-0.3273851519850723,-0.3273851519850723,1.0002168028231389,8.004367012541689e-05
-0.3262410003095283,-0.3262410003095283,0.9999116006234757,8.070980218659558e-05
-0.3252081516577164,-0.3252081516577164,0.9998018117382561,8.032760571560231e-05
-0.3235059811268002,-0.3235059811268002,1.0000617114461725,8.019807176524409e-05
-0.32229976319067644,-0.32229976319067644,0.999940079094318,8.080503502683405e-05
-0.3210330737834738,-0.3210330737834738,0.9999875320906757,8.075614413348488e-05
-0.31865325611870504,-0.31865325611870504,1.0000686346173908,8.039395552800495e-05
-0.31652923759174884,-0.31652923759174884,0.999970559843008,8.006538589944905e-05
-0.31538860973887495,-0.31538860973887495,0.9997288093190025,8.016679383479838e-05
-0.3143185957284004,-0.3143185957284004,1.0000327229063395,7.978161290698611e-05
-0.3123010778261232,-0.3123010778261232,0.9997823481726245,8.0189731063454e-05
-0.31144638299083455,-0.31144638299083455,1.0000001310220266,7.990326241906935e-05
-0.30975024458093686,-0.30975024458093686,1.0000490881848951,8.026809618449305e-05
-0.30772642736847045,-0.30772642736847045,1.0000415911566793,8.046565618095969e-05
-0.30679476523873744,-0.30679476523873744,0.9999149664682457,8.090260434447678e-05
-0.3053112355599296,-0.3053112355599296,0.9999262809417246,7.991726116406756e-05
-0.3039672223290836,-0.3039672223290836,1.00015477347631,8.033999581793521e-05
-0.3028668138489593,-0.3028668138489593,0.9997598488181278,8.096952485400351e-05
-0.30197475076274716,-0.30197475076274716,1.0000564773999636,8.103276849535747e-05
-0.30110146650768,-0.30110146650768,1.000050273118195,7.997731804808042e-05
-0.3001780690043233,-0.3001780690043233,1.0001359381077988,8.007601918445034e-05
-0.298309631311713,-0.298309631311713,1.0000257128658103,8.012158032702274e-05
-0.29653771243611116,-0.29653771243611116,0.9999939180718481,8.021360219585808e-05
-0.29561121817387176,-0.29561121817387176,0.9999879483255016,8.000540750277696e-05
-0.2945271732118272,-0.2945271732118272,0.9999561052318355,7.995032298319549e-05
-0.29257881082303355,-0.29257881082303355,0.9999643284589439,8.011747891516064e-05
-0.29161000802050696,-0.29161000802050696,0.9999955036328526,7.997555057017294e-05
-0.29022262979779045,-0.29022262979779045,1.0000554529688217,8.038066502363037e-05
-0.28854340006801066,-0.28854340006801066,1.0000372877089327,7.979670204944223e-05
-0.287508061274275,-0.287508061274275,1.0001110698935414,8.066395968546198e-05
-0.2867894502618583,-0.2867894502618583,1.0000708652849402,8.063952616392249e-05
-0.28491632200675665,-0.28491632200675665,1.0000839190309263,7.997759588091664e-05
-0.2833168946126534,-0.2833168946126534,0.9998613915610772,8.006320516759955e-05
-0.2820092265821586,-0.2820092265821586,0.9999430960038309,8.065299203640985e-05
-0.28119891417736653,-0.28119891417736653,0.9999326212207906,8.016571522050428e-05
-0.28009773605881494,-0.28009773605881494,0.9998704477288329,7.978166715689193e-05
-0.27759681363604616,-0.27759681363604616,0.9999517848327762,8.002207438928041e-05
-0.27595290043900605,-0.27595290043900605,1.000111626446199,7.979622891009108e-05
-0.27393579806011986,-0.27393579806011986,1.0001030121490824,8.01388707013865e-05
-0.2726046360963664,-0.2726046360963664,1.000090151170043,8.031698185888777e-05
-0.2718057176920411,-0.2718057176920411,1.0000453026435976,8.01003479981498e-05
-0.2691880639657029,-0.2691880639657029,1.000168145118802,8.032805006026506e-05
-0.2679975947081402,-0.2679975947081402,1.0000301935208529,8.066321383043929e-05
-0.2671409306836722,-0.2671409306836722,1.0000236610805102,8.023741375569697e-05
-0.2661546671697579,-0.2661546671697579,0.9998467270940278,7.982605998239412e-05
-0.2650119946920313,-0.2650119946920313,0.99995709915824,7.979502588514363e-05
-0.263348992056126,-0.263348992056126,0.9996418110300282,8.0396284030298e-05
-0.262116065936425,-0.262116065936425,0.9998498754473066,8.05522098250735e-05
-0.2612273424390878,-0.2612273424390878,1.0000316767029425,7.996256230782909e-05
-0.2590982173991506,-0.2590982173991506,1.000107375201362,8.033034018034701e-05
-0.2576521160255652,-0.2576521160255652,0.9999409549100967,8.018913007474298e-05
-0.25621547873670353,-0.25621547873670353,1.000102606851517,7.99800631017341e-05
-0.2543585384148173,-0.2543585384148173,0.9999777244512738,8.050894558885878e-05
-0.2531301258401072,-0.2531301258401072,0.9997154282588031,8.053610071817297e-05
-0.2521297823645,-0.2521297823645,1.000008975567355,8.03498641170484e-05
-0.2505693072809663,-0.2505693072809663,1.000079953418097,7.992658489325998e-05
-0.24813151846683468,-0.24813151846683468,0.9997718415139601,8.102857059185116e-05
-0.24665515771557694,-0.24665515771557694,1.0000128998676119,8.003710966473086e-05
-0.2455643990477256,-0.2455643990477256,0.9998944419077269,8.032820193401314e-05
-0.24439877380718827,-0.24439877380718827,1.0000028187749361,7.994575737497425e-05
-0.2433082933501282,-0.2433082933501282,0.9998338992212654,8.062071786187002e-05
-0.24212803265327237,-0.24212803265327237,1.000017506818922,8.020943254461938e-05
-0.24129043018619994,-0.24129043018619994,1.0002074118276867,7.979433446589339e-05
-0.2395508618959866,-0.2395508618959866,0.9999202105925068,8.022280197379853e-05
-0.2381686816777801,-0.2381686816777801,1.0001124691505254,8.006982482563631e-05
-0.2372358087974135,-0.2372358087974135,0.9999339830177016,8.025862005676786e-05
-0.2349480477583711,-0.2349480477583711,0.9996982486404538,8.000308369366653e-05
-0.23368224444639055,-0.23368224444639055,1.0000375668131487,8.03826974574322e-05
-0.23283727761081535,-0.23283727761081535,0.9998879224199143,8.065945933298891e-05
-0.23120387676535756,-0.23120387676535756,1.0000128087964941,8.01197954418163e-05
-0.22944408108814968,-0.22944408108814968,0.999778684936355,8.147091116267355e-05
-0.22745409565395674,-0.22745409565395674,0.9998629075083804,7.979903569514436e-05
-0.2251682159207121,-0.2251682159207121,0.9996081749790113,8.038364744067293e-05
-0.22354081860466976,-0.22354081860466976,0.9999909492586256,8.043755002835484e-05
-0.22246310912596529,-0.22246310912596529,0.999934714819053,7.976271867540864e-05
-0.2215287989063654,-0.2215287989063654,1.0000303444576821,7.998707686043808e-05
-0.21962856570171424,-0.21962856570171424,1.0000050444947037,7.989123392651882e-05
-0.21895671883394244,-0.21895671883394244,0.9997140746435369,8.003794320662301e-05
-0.21703368372109252,-0.21703368372109252,0.9999627261402008,8.008885583724418e-05
-0.21490980521193706,-0.21490980521193706,1.0003133655486334,8.058374470409876e-05
-0.2141676484308846,-0.2141676484308846,0.999883741146715,8.05293219443013e-05
-0.2130267050670227,-0.2130267050670227,0.99978400998718,8.029502813827886e-05
-0.21150855376545225,-0.21150855376545225,0.9999949055116305,8.050625055416784e-05
-0.2106241581175709,-0.2106241581175709,0.999904294578371,8.024233151583943e-05
-0.2095681994673214,-0.2095681994673214,0.9998947136481611,8.123536532517733e-05
-0.20835482445036177,-0.20835482445036177,1.000154602156494,8.014015054576828e-05
-0.2068166742181347,-0.2068166742181347,1.0001661736671799,7.982507152030403e-05
-0.20469399871290078,-0.20469399871290078,1.0000095201923578,8.040459423653752e-05
-0.2033834641253634,-0.2033834641253634,0.99986971577669,8.037202601042013e-05
-0.20282404828758444,-0.20282404828758444,0.9999644173170449,7.992914632837062e-05
-0.20226339140353958,-0.20226339140353958,0.9999219992786683,7.98658853294459e-05
-0.2002507435325242,-0.2002507435325242,0.9998594731420889,8.020698605546875e-05
-0.1993410056034918,-0.1993410056034918,0.9999648020277304,8.022754609894371e-05
-0.19810017241470632,-0.19810017241470632,0.9998864911433367,8.058826289114021e-05
-0.19657923570266575,-0.19657923570266575,0.9998635943187008,8.003153858684832e-05
-0.19540546884090873,-0.19540546884090873,1.00026046066312,8.018599810048977e-05
-0.19455492955239606,-0.19455492955239606,0.9999583627386233,8.127876097392147e-05
-0.1937253475705802,-0.1937253475705802,0.9998674111217566,7.967854321152691e-05
-0.19219031635948342,-0.19219031635948342,0.9999197964656859,8.021111779281694e-05
-0.19063872591141262,-0.19063872591141262,0.999876400722527,8.005842942344506e-05
-0.18928538951149676,-0.18928538951149676,1.0001501296248128,8.084346315432313e-05
-0.18811546931392514,-0.18811546931392514,1.0000428060076714,7.959997100754325e-05
-0.18692287180529094,-0.18692287180529094,1.0000376719869286,7.998360909867438e-05
-0.18519702400299137,-0.18519702400299137,1.000061861367265,8.001821641754215e-05
-0.18348164462295244,-0.18348164462295244,1.0000538498026024,7.988007804300564e-05
-0.18193754087405978,-0.18193754087405978,0.9996958491624393,7.999330601412926e-05
-0.1801494984938472,-0.1801494984938472,0.9998965475358185,8.011840987211583e-05
-0.17946211949238206,-0.17946211949238206,0.9999003848207056,8.00874601702756e-05
-0.17696226871121326,-0.17696226871121326,0.999978930573166,8.029365125838972e-05
-0.1753199576152838,-0.1753199576152838,0.9996560062542361,8.065919687565937e-05
-0.17447862384651672,-0.17447862384651672,1.000016319896041,8.047930705823397e-05
-0.17367925875223592,-0.17367925875223592,1.0000125102357016,7.970631946902912e-05
-0.17235255852428963,-0.17235255852428963,0.9999154244705618,8.000562479749181e-05
-0.1710069392400328,-0.1710069392400328,0.9999654433084224,8.049012417893833e-05
-0.1694379212691274,-0.1694379212691274,0.9997729205798345,8.053883904287596e-05
-0.16865004916107865,-0.16865004916107865,1.000066953902323,7.997964106887885e-05
-0.16672622250916902,-0.16672622250916902,0.99991747094773,8.020280712495223e-05
-0.164973953297158,-0.164973953297158,0.9999563423512232,8.019650691704914e-05
-0.16353751360366003,-0.16353751360366003,0.9998950980158694,7.99790200667743e-05
-0.1620320867790724,-0.1620320867790724,0.9999752997247182,8.062943555481435e-05
