time,time,flux,flux_err
-0.49894559493926255,-0.49894559493926255,1.0001012623479184,0.0001235748267415745
-0.4974218204479257,-0.4974218204479257,0.9999542695364592,0.00012348533919591197
-0.4963929672539962,-0.4963929672539962,0.9998786794002893,0.00012349981997895773
-0.4950270972258295,-0.4950270972258295,1.000169362037157,0.00012330437478321992
-0.49377859071973945,-0.49377859071973945,1.0000060697890187,0.00011286882425279448
-0.4926432132684567,-0.4926432132684567,1.0000740142329427,0.00011112799934768164
-0.4910659001390741,-0.4910659001390741,1.000087780524129,0.00011436282110549912
-0.4876850093372923,-0.4876850093372923,1.0000700690288746,0.00011326920636033818
-0.4831384225893999,-0.4831384225893999,1.000076795632483,0.00011263515625083232
-0.48032278308819515,-0.48032278308819515,1.0001715015925807,0.00011281761806719757
-0.4790348782997171,-0.4790348782997171,0.9997073032980822,0.00011273686189493654
-0.4780834060285997,-0.4780834060285997,0.9999452645219262,0.00011278446820044969
-0.4769923960004235,-0.4769923960004235,1.0001093394714207,0.00011277669558979383
-0.4761506382521475,-0.4761506382521475,0.9999057463110465,0.00011252666664444291
-0.4749695873782912,-0.4749695873782912,0.9998641125582118,0.00011290438384524543
-0.4737530870283081,-0.4737530870283081,1.0001373544416692,0.00011144078844395717
-0.4723887864383869,-0.4723887864383869,1.0000519132750905,0.00011379768227142346
-0.4705516519235971,-0.4705516519235971,1.0001726956222445,0.00012045446688945807
-0.46622477137570967,-0.46622477137570967,0.9998748222794699,0.00011271290017784797
-0.46304831672023283,-0.46304831672023283,1.0003699907456736,0.00011279472068428543
-0.46100176419058697,-0.46100176419058697,0.9999953736252761,0.00011275079992382885
-0.45980750693415756,-0.45980750693415756,0.9997956104351704,0.0001127776557903547
-0.45885466943655046,-0.45885466943655046,0.9999194584665891,0.00011270742429214759
-0.457825213525939,-0.457825213525939,0.9999584974734079,0.00011284386290652032
-0.45679247245934673,-0.45679247245934673,0.9999363347688671,0.00011261865019253958
-0.455731141607248,-0.455731141607248,0.9999242282820872,0.00011161079062766731
-0.454383060363034,-0.454383060363034,0.9999589436069009,0.00011359307335898914
-0.4526730505727755,-0.4526730505727755,0.9999225225013653,0.0001176318848866897
-0.4495257448819757,-0.4495257448819757,0.999741021399784,0.00011298899288381248
-0.44466586091075444,-0.44466586091075444,0.9999210700622205,0.00011269868052793505
-0.4423875105487241,-0.4423875105487241,1.000004439556711,0.00011275663731340178
-0.44132078136171915,-0.44132078136171915,1.0000527557816379,0.0001127828037903149
-0.4404697883670451,-0.4404697883670451,1.0001788841779526,0.00011270163832588696
-0.43938938954161133,-0.43938938954161133,1.000236344565543,0.00011283755423529369
-0.43840062522504014,-0.43840062522504014,0.999673239831605,0.00011257864428881393
-0.4373984549332818,-0.4373984549332818,1.0000794205727253,0.00011198010072889046
-0.43599089596173146,-0.43599089596173146,1.0000166484402713,0.0001128427204550645
-0.4345161609999195,-0.4345161609999195,1.0001363953404647,0.00011668875452837532
-0.4318712799526111,-0.4318712799526111,0.9999373706760826,0.00011304405242836071
-0.42666788432834435,-0.42666788432834435,0.9997966043679718,0.00011270137422975757
-0.42412397757143483,-0.42412397757143483,1.0000712837602261,0.00011273451516290076
-0.42250341451945134,-0.42250341451945134,1.0000124948701141,0.00011273473814977033
-0.4215894318105711,-0.4215894318105711,1.0000012896379427,0.00011275931504597162
-0.42060688761339404,-0.42060688761339404,0.9999259656949107,0.00011274377644622337
-0.41956697709392754,-0.41956697709392754,0.9999715138657802,0.00011283026666301166
-0.41851561086732547,-0.41851561086732547,0.9998533286923946,0.0001121154531965707
-0.4170262499523233,-0.4170262499523233,1.0001408237618943,0.00011294129610152218
-0.4151025173589005,-0.4151025173589005,0.9999272857017752,0.00011531617213889791
-0.4109504847663629,-0.4109504847663629,0.9999227643144263,0.0001128085402725278
-0.40685246193461355,-0.40685246193461355,1.000064247376978,0.0001127145520470124
-0.40479366318395477,-0.40479366318395477,1.000108229209989,0.00011276034588385911
-0.4034448044061719,-0.4034448044061719,0.9998034909430757,0.00011276690578155563
-0.4023144747974584,-0.4023144747974584,0.9999571395026997,0.00011284682542062467
-0.4014907685079379,-0.4014907685079379,0.9999583315889986,0.00011269072674944245
-0.4003878142924805,-0.4003878142924805,1.0001193431432074,0.0001124134089669594
-0.399165353312128,-0.399165353312128,1.0002426255814567,0.00012602047273250306
-0.3977583233099722,-0.3977583233099722,1.0000207613447345,0.00011285298684310964
-0.3952329112915322,-0.3952329112915322,0.9998995402519177,0.00011485725474056996
-0.3922594019735698,-0.3922594019735698,0.9998932272783589,0.00011330934104916751
-0.3885715132972109,-0.3885715132972109,0.9998795900263371,0.00011264944819542229
-0.38592203031075767,-0.38592203031075767,0.9998719414062206,0.00011281525360067081
-0.38460903537270497,-0.38460903537270497,0.9999208508820058,0.00011267363445265331
-0.38358383460872575,-0.38358383460872575,0.9999704944540888,0.000112797434385082
-0.3826066873429227,-0.3826066873429227,0.9999718098212764,0.0001127751110688335
-0.3815784942540631,-0.3815784942540631,1.00007271404738,0.00011246091731940692
-0.38039966366050065,-0.38039966366050065,1.0000908250411022,0.00011289809201634538
-0.3791783576532907,-0.3791783576532907,0.9999810417630822,0.00011114903419912109
-0.377280018570309,-0.377280018570309,0.9999500527688039,0.00011438542945073934
-0.3736559648255934,-0.3736559648255934,1.0000226754381552,0.00011315486704072994
-0.3693137454603857,-0.3693137454603857,1.0000880122243196,0.0001127159326408843
-0.3667815681867069,-0.3667815681867069,1.0001566374262407,0.00011273201859873544
-0.3654813551678672,-0.3654813551678672,0.9999979635566332,0.00011271986779149313
-0.36452615745438377,-0.36452615745438377,0.9999382790649017,0.00011274678107457815
-0.36349671074276557,-0.36349671074276557,0.9999845495449854,0.0001128884211312021
-0.3624519732940826,-0.3624519732940826,0.9999026657154266,0.00011245496391589669
-0.36143397354753687,-0.36143397354753687,1.0001651758214396,0.00011151875499013839
-0.3600273152573209,-0.3600273152573209,1.0001701121623996,0.00011280529712055682
-0.3585668029736553,-0.3585668029736553,1.0000670598017076,0.00012064851718795016
-0.3559019742977398,-0.3559019742977398,1.000059192539038,0.00011315338452473919
-0.35141887373974895,-0.35141887373974895,0.9999766867920317,0.00011271343101483327
-0.3489387684996473,-0.3489387684996473,0.999883850103107,0.00011280062768079875
-0.34752918133017374,-0.34752918133017374,0.9999836413487184,0.0001127557992487078
-0.3464385879051406,-0.3464385879051406,1.0001258146322385,0.00011277509858463152
-0.34541731015197,-0.34541731015197,0.9999142556178258,0.00011270672320250427
-0.3445133986213477,-0.3445133986213477,0.9998159394224662,0.00011262829571561234
-0.3433849005181401,-0.3433849005181401,0.9998516874715431,0.0001128742085924599
-0.3422440021116927,-0.3422440021116927,1.0000736557905794,0.00011170967461407711
-0.3408879391987284,-0.3408879391987284,0.9999710850926233,0.00011356125866102046
-0.3391394423953898,-0.3391394423953898,0.9999349904432826,0.00011743265147311078
-0.3352319429322961,-0.3352319429322961,1.000264061067261,0.00011292406262777949
-0.3308913386121276,-0.3308913386121276,0.9999631776131486,0.00011269747065587496
-0.328981841456698,-0.328981841456698,0.9998707944290335,0.00011274865695631872
-0.32782248645307843,-0.32782248645307843,0.9999765608840001,0.00011276725149943193
-0.32679382020796766,-0.32679382020796766,1.000013896606233,0.00011273105131618795
-0.325906708027469,-0.325906708027469,1.0000476577709148,0.00011269554605871889
-0.32477758912864374,-0.32477758912864374,1.0000848950535117,0.00011285154483660664
-0.32363404484494823,-0.32363404484494823,1.000063078380335,0.00011197051231528869
-0.3222750173008535,-0.3222750173008535,0.9998631747535178,0.0001134063651340927
-0.32053162648226136,-0.32053162648226136,0.9999146201590057,0.00011605722957295493
-0.3166219483158784,-0.3166219483158784,0.9999879051412706,0.00011285727826984156
-0.3122824413869239,-0.3122824413869239,1.0000491913747465,0.00011269920537344315
-0.3102288065987523,-0.3102288065987523,1.0000431306115902,0.00011274823692162858
-0.30895990098651965,-0.30895990098651965,0.9999406547638797,0.00011278188280193307
-0.3079294081711851,-0.3079294081711851,0.9998969752354636,0.00011276437219580981
-0.3071047320125217,-0.3071047320125217,1.0000016739397908,0.00011268694021349514
-0.30596521165425655,-0.30596521165425655,0.999852955587133,0.0001128791498087953
-0.30476573923879186,-0.30476573923879186,0.9997224905873378,0.00011222627785915668
-0.30319138668419326,-0.30319138668419326,1.000013563519739,0.00011284023948661736
-0.300658023358119,-0.300658023358119,0.9999594184194931,0.00011532217247026942
-0.29572877524115027,-0.29572877524115027,0.9998748352491619,0.000112625727524326
-0.29271202919117056,-0.29271202919117056,1.000101357857701,0.00011278977790876984
-0.2910074043276836,-0.2910074043276836,0.9999918338938301,0.00011278618334919451
-0.28981421455901,-0.28981421455901,1.000051825167473,0.00011269676148570071
-0.2889048636643565,-0.2889048636643565,0.9999672470060835,0.00011283439535186068
-0.287773497262242,-0.287773497262242,0.9999337855000947,0.00011284758678337188
-0.2867360472948349,-0.2867360472948349,1.0001039979419262,0.00012449400816603442
-0.2855978790685185,-0.2855978790685185,0.9999441320297839,0.000112847781501583
-0.28366650313837455,-0.28366650313837455,0.9999707197202096,0.00011474238541114571
-0.2808893788533169,-0.2808893788533169,0.9999945370962573,0.00011334271004278614
-0.2776625126978615,-0.2776625126978615,0.9998021871544737,0.00011281847364768244
-0.27413504337600897,-0.27413504337600897,0.999895581381389,0.00011271677229624072
-0.27209399624844083,-0.27209399624844083,0.9999686937605178,0.00011275466102263897
-0.27092632744243017,-0.27092632744243017,1.0000266485178442,0.00011275689747473739
-0.27016727515510863,-0.27016727515510863,0.9999612958152191,0.00011276814232042021
-0.26895657143686547,-0.26895657143686547,0.9999730772848567,0.0001128947289270644
-0.2678880422768998,-0.2678880422768998,0.9998015952341337,0.00011239257724696822
-0.266862643409695,-0.266862643409695,1.0001415807556835,0.0001112907274179631
-0.2654563976633654,-0.2654563976633654,1.0000982550901742,0.00011278148878868865
-0.2638160676789994,-0.2638160676789994,1.0001224676560525,0.00011429430561158348
-0.26047737946209965,-0.26047737946209965,0.999908822122039,0.00011313474643375617
-0.25613502895794227,-0.25613502895794227,0.9998935885519696,0.00011271121578531222
-0.25360240483278174,-0.25360240483278174,0.9999352793142956,0.0001127342972855839
-0.25230102490168066,-0.25230102490168066,0.9998264254649409,0.00011271482884400259
-0.25134677644309705,-0.25134677644309705,0.9998383486338553,0.0001127466266351955
-0.2503179875588103,-0.2503179875588103,0.999905996710965,0.00011288325177894231
-0.24927247146406445,-0.24927247146406445,1.0000103767259565,0.00011250482271779963
-0.24825539880985162,-0.24825539880985162,1.0003334626554756,0.00011153824443556915
-0.2468486883008154,-0.2468486883008154,1.0000660813835194,0.0001128104192007374
-0.24538735427049688,-0.24538735427049688,0.9998332130033063,0.00012024212379960408
-0.24272368248202839,-0.24272368248202839,1.0000974059528978,0.00011316322908849056
-0.2382394541753456,-0.2382394541753456,0.9999951848043402,0.0001126948533959526
-0.23576026691443985,-0.23576026691443985,1.0001129956392254,0.00011279300485046817
-0.23418922208511503,-0.23418922208511503,1.0000236748847633,0.00011269776615263126
-0.23310695187174132,-0.23310695187174132,1.0000264250472926,0.00011279026272965056
-0.23198287179911858,-0.23198287179911858,1.000079518115069,0.0001127453439205511
-0.2311513824002759,-0.2311513824002759,1.0001006296925732,0.00011259913998995098
-0.23005096354390844,-0.23005096354390844,0.9999106870361653,0.00011293480738999368
-0.2290651119685208,-0.2290651119685208,1.0001103819487251,0.00011174197830013746
-0.2277087199894595,-0.2277087199894595,1.0001440794106071,0.00011354499752080262
-0.22596079297873076,-0.22596079297873076,1.0001415113752203,0.00011723754156715705
-0.22205304519739003,-0.22205304519739003,0.9997846083640018,0.00011289123210827103
-0.2177125647336652,-0.2177125647336652,0.9999177489421571,0.00011271547085270049
-0.2158023459960532,-0.2158023459960532,1.0000385999605101,0.00011275687677198721
-0.21464292785749423,-0.21464292785749423,0.9999189489869249,0.00011275846633666052
-0.21361343924800166,-0.21361343924800166,1.0000000795056307,0.00011271631998512749
-0.21272819794903625,-0.21272819794903625,1.000174575512749,0.00011270651707200427
-0.2115990080135816,-0.2115990080135816,1.0001397128534284,0.00011287208692365886
-0.2104551686628838,-0.2104551686628838,1.0000619246831044,0.00011200186164552912
-0.20895118719272432,-0.20895118719272432,1.0000152277957692,0.0001128553792430508
-0.2069770713795151,-0.2069770713795151,0.9997167695059943,0.00011608419882241595
-0.20225471334415487,-0.20225471334415487,0.9998920248631352,0.0001126793011203508
-0.1985475978879549,-0.1985475978879549,0.9999315988154279,0.00011279809016273047
-0.19672921269157087,-0.19672921269157087,0.9999404544312377,0.00011275767237444414
-0.19564321436482715,-0.19564321436482715,0.9999187317004384,0.00011271562260883022
-0.19456762501067715,-0.19456762501067715,1.0001694394954874,0.00011285546232407535
-0.19366592599253635,-0.19366592599253635,0.9999406316853865,0.00011260628758969498
-0.1926347635606362,-0.1926347635606362,1.0000375320619073,0.00011229140183052466
-0.19131926206609934,-0.19131926206609934,1.000010975152868,0.00011285717726396529
-0.18997453166302875,-0.18997453166302875,0.9999515003515629,0.0001133930829692998
-0.18747988059112686,-0.18747988059112686,1.0000586605730792,0.00011527164945118581
-0.18254991363573936,-0.18254991363573936,0.9999410199568775,0.0001126386965888215
-0.1795336645183852,-0.1795336645183852,1.0001056402414652,0.00011280182018866277
-0.17782762776550953,-0.17782762776550953,0.9999268866469879,0.00011277760299762261
-0.17663422217156038,-0.17663422217156038,0.9999670371699892,0.00011269224478949592
-0.17572605791065143,-0.17572605791065143,0.9999601735773966,0.00011282753527900254
-0.174594157840329,-0.174594157840329,0.9999465132600049,0.0001128537443485257
-0.17355688576426473,-0.17355688576426473,0.9999621363193552,0.00012364316851297072
-0.17241931677635874,-0.17241931677635874,0.9999203037380081,0.00011284402392054928
-0.17048771134723212,-0.17048771134723212,1.0000687504402226,0.00011470017943816903
-0.16771114289294928,-0.16771114289294928,1.0000365375857303,0.00011335106643687466
-0.16390350389774538,-0.16390350389774538,0.9999048133972728,0.000112695437580856
-0.16042795093380846,-0.16042795093380846,0.9998878914632574,0.00011272882180969244
-0.1586925024377706,-0.1586925024377706,0.9999154918128568,0.00011274571240238102
-0.1575173913712206,-0.1575173913712206,0.9999232855644606,0.00011276507384592026
-0.15678187007215455,-0.15678187007215455,1.0000390883572685,0.0001127530033385577
-0.15557020761916646,-0.15557020761916646,0.9999779755115114,0.00011289722815121122
-0.15447654802774197,-0.15447654802774197,0.9998699323997048,0.00011250996942228977
-0.15341121739111258,-0.15341121739111258,1.0002640573410848,0.00011116372531651019
-0.1520712550256576,-0.1520712550256576,0.99980349428982,0.00011410853903267369
-0.1501269131353183,-0.1501269131353183,0.999926918462938,0.00011302124334790385
-0.1463937875239935,-0.1463937875239935,1.0002666501242903,0.0001130470673446213
-0.14252928984205937,-0.14252928984205937,1.0001418533744075,0.0001128577703508082
-0.14042324633628595,-0.14042324633628595,0.9997168500370124,0.0001127255896150434
-0.13912069585348946,-0.13912069585348946,1.0000068623747063,0.00011272051894842558
-0.13816739725371008,-0.13816739725371008,1.0000541510354848,0.00011276148867176486
-0.13713926893105963,-0.13713926893105963,0.9999706292209731,0.00011289622909565306
-0.1360929693262733,-0.1360929693262733,0.9999333608063192,0.00011250372923358499
-0.13507682558629314,-0.13507682558629314,0.9999761036545957,0.00011154027444508786
-0.1336700619554904,-0.1336700619554904,0.9999978948799203,0.00011281719905314278
-0.13220790252526057,-0.13220790252526057,1.000071049588168,0.00011987025454240097
-0.1295453918821295,-0.1295453918821295,0.9998882979831196,0.00011315503529629036
-0.1250600370396569,-0.1250600370396569,0.9999204228129367,0.00011269933934436232
-0.122581769284443,-0.122581769284443,1.0001509667716142,0.00011280757655040481
-0.12100924942060373,-0.12100924942060373,1.000065813091407,0.0001126871781397288
-0.1199272827769164,-0.1199272827769164,0.9999907090306344,0.00011279458886828693
-0.11880324064768502,-0.11880324064768502,0.9999886175947816,0.00011274727809770914
-0.11797215438637068,-0.11797215438637068,0.9999670051962914,0.00011260570502333673
-0.11682468241342576,-0.11682468241342576,1.000099923240196,0.00011288452776358987
-0.1156154758464254,-0.1156154758464254,1.0001280087751165,0.00011183193986011315
-0.11422857232682873,-0.11422857232682873,1.0000645565029889,0.00011346332283675223
-0.11240687900717602,-0.11240687900717602,0.9999456262609996,0.0001172102626921102
-0.10768211188042187,-0.10768211188042187,0.9998914652860723,0.00011269299809792906
-0.10397537041280884,-0.10397537041280884,0.9999913868641066,0.00011278499145545162
-0.10238956194370985,-0.10238956194370985,1.00017604704079,0.0001126876258634557
-0.1013103437864629,-0.1013103437864629,1.0001611677096869,0.00011278451853244866
-0.10018664802773855,-0.10018664802773855,1.0000397811465802,0.00011276419434211554
-0.09935917966649868,-0.09935917966649868,0.9998926172201061,0.00011263898294422801
-0.09821617376292124,-0.09821617376292124,0.9998552255687987,0.00011287359561086277
-0.0970124404935632,-0.0970124404935632,1.0001249664238663,0.00011208892758461787
-0.09544540782808326,-0.09544540782808326,0.999955783900733,0.0001128340102001199
-0.09314931327462546,-0.09314931327462546,0.9999895641770642,0.00011598074713307649
-0.08798089303818415,-0.08798089303818415,1.0000734381439709,0.00011263600883236078
-0.08496064109567669,-0.08496064109567669,1.0000105087582771,0.000112788486367524
-0.08326588576746871,-0.08326588576746871,0.9998707596835821,0.00011278069393806944
-0.08226555203073076,-0.08226555203073076,1.00017359952261,0.00011272692305284404
-0.08123978658768465,-0.08123978658768465,0.9999284123378015,0.00011285247062859948
-0.08024697724977159,-0.08024697724977159,0.9999004731275656,0.00011267401020494661
-0.07925607290526386,-0.07925607290526386,1.000140178764751,0.00011224979641088493
-0.07784786035335856,-0.07784786035335856,1.0001584773676613,0.00011286983241361282
-0.07591807510907529,-0.07591807510907529,1.0001105564659465,0.00011514344506335025
-0.07313707914363476,-0.07313707914363476,1.0000508402389732,0.00011343000911686917
-0.06852419573697262,-0.06852419573697262,0.9999678988748958,0.00011271354605231251
-0.06597477410177817,-0.06597477410177817,0.9999211126209818,0.00011271922191261403
-0.0643500260921428,-0.0643500260921428,0.9998693676526565,0.00011274274349877635
-0.06318648001833935,-0.06318648001833935,0.9999737760686893,0.00011272549326529023
-0.0624203512990789,-0.0624203512990789,0.9998996492647418,0.00011282880139770605
-0.06120633081518463,-0.06120633081518463,0.9999622747917385,0.00011290481356012673
-0.06005681174428901,-0.06005681174428901,1.0000663894780264,0.00011237163949982046
-0.05879640005150577,-0.05879640005150577,0.9999076072254305,0.00011123507760569188
-0.05695898633493925,-0.05695898633493925,0.9998498212406062,0.00011460505229300743
-0.05398276588966837,-0.05398276588966837,1.0000400168601267,0.00011332905249773484
