time,time,flux,flux_err
-0.4999781763156837,-0.4999781763156837,1.0000022828799862,6.032099066091406e-05
-0.4999132224650869,-0.4999132224650869,1.0000014429307378,5.8814098452901054e-05
-0.4998447955447773,-0.4998447955447773,0.9999434185998265,5.324840557351634e-05
-0.4997679106025316,-0.4997679106025316,0.9999359145674731,5.608687092611476e-05
-0.49964586387359305,-0.49964586387359305,1.0000194984849389,5.350118914782323e-05
-0.49957137214805697,-0.49957137214805697,1.0000137743132285,5.438426276648203e-05
-0.4994440228474559,-0.4994440228474559,1.0000206146248982,5.356636188563417e-05
-0.49933632824904634,-0.49933632824904634,0.9999898306843911,5.609778120048947e-05
-0.49924390739615776,-0.49924390739615776,0.9999609859783339,5.429829755896565e-05
-0.4990512806303741,-0.4990512806303741,1.0000854254035139,5.4655043772611666e-05
-0.4988803665008163,-0.4988803665008163,0.9999620327358908,5.440335874289881e-05
-0.49876111112898797,-0.49876111112898797,0.9999944017720923,5.731818220217189e-05
-0.49861742054490604,-0.49861742054490604,0.9999875433509822,5.5130461397423295e-05
-0.4984316769317957,-0.4984316769317957,1.000052170531307,5.375609251216559e-05
-0.49832888020027893,-0.49832888020027893,0.999897042825407,5.493741336505242e-05
-0.498255958496884,-0.498255958496884,0.9999852690422916,5.638127726539648e-05
-0.4981723153308849,-0.4981723153308849,0.9999976497702152,5.312410532457867e-05
-0.49799949751686656,-0.49799949751686656,0.9999831449923786,5.625818437597452e-05
-0.49789808044224626,-0.49789808044224626,1.0000117653100928,5.448261626027123e-05
-0.4976385831039806,-0.4976385831039806,1.0001121940007462,5.477001087102545e-05
-0.4975151868216926,-0.4975151868216926,1.0000602030686951,5.360883704503029e-05
-0.4973262828425504,-0.4973262828425504,1.0000470830950001,5.3259770427937646e-05
-0.4971028496744111,-0.4971028496744111,1.0000590857497973,5.631384359171623e-05
-0.4970331048949447,-0.4970331048949447,1.000182199176955,5.464220129823123e-05
-0.49690842598720336,-0.49690842598720336,1.0000420368265157,5.3094864108739624e-05
-0.4968341215877444,-0.4968341215877444,0.9999530961539271,5.332042291171426e-05
-0.49680041037208866,-0.49680041037208866,0.9999210909735361,5.407539108836136e-05
-0.4966839562919631,-0.4966839562919631,0.9999785989667098,5.327018152257537e-05
-0.49648533804938777,-0.49648533804938777,1.000030230881451,5.3531116133757e-05
-0.4962942219011893,-0.4962942219011893,1.000029623658437,5.3975415308979295e-05
-0.49602331151327234,-0.49602331151327234,0.9999858404280679,5.423126677041486e-05
-0.4959174927782442,-0.4959174927782442,0.9998994666603144,5.416520334475904e-05
-0.49577246388507773,-0.49577246388507773,0.9999678853601459,5.381107394813264e-05
-0.49570421076568894,-0.49570421076568894,0.9999817155863365,5.4629791063582276e-05
-0.4956472116013174,-0.4956472116013174,1.0000803596630303,5.336527095721298e-05
-0.4955807256395929,-0.4955807256395929,1.0000971475571752,5.521232995816916e-05
-0.49550655905040913,-0.49550655905040913,0.9999975585779242,5.3795805625018894e-05
-0.495436085559777,-0.495436085559777,1.0000540251023713,5.3328023731462774e-05
-0.49536329108887,-0.49536329108887,1.000032624056046,5.33014870165416e-05
-0.495248634753807,-0.495248634753807,1.000034344383873,5.585058849739052e-05
-0.49515732815634694,-0.49515732815634694,1.00007122033808,5.4255077233489354e-05
-0.495013769983052,-0.495013769983052,0.999880448190629,5.406550901191651e-05
-0.49493931515462464,-0.49493931515462464,0.9999354608002895,5.475973209367729e-05
-0.4948655781292473,-0.4948655781292473,0.9999955534898414,5.4198192206953694e-05
-0.49472663401757017,-0.49472663401757017,1.0000267283555955,5.594197368745969e-05
-0.49453144849758246,-0.49453144849758246,1.0000306277126025,5.31340075486189e-05
-0.49442900960930275,-0.49442900960930275,1.0000263237395839,5.7316850651776935e-05
-0.49421441504891844,-0.49421441504891844,1.0000061912061973,5.641035022009796e-05
-0.4940601783542661,-0.4940601783542661,1.0000433558142678,5.375373205607441e-05
-0.49394111606816293,-0.49394111606816293,0.999977474162363,5.497495821300115e-05
-0.49386729756297426,-0.49386729756297426,0.9999872895045894,5.494389122112367e-05
-0.4937989957172249,-0.4937989957172249,1.000068664638762,5.482917920400079e-05
-0.4936435933566827,-0.4936435933566827,0.9999830255088353,5.461073135343456e-05
-0.49354367151318,-0.49354367151318,1.0000128077069843,5.57860740902282e-05
-0.4933867501764325,-0.4933867501764325,1.0000086631783351,5.508480815734895e-05
-0.4932299657375552,-0.4932299657375552,0.9999314455211836,5.329027431414153e-05
-0.4931209164344182,-0.4931209164344182,0.9999819017611026,5.470212902183986e-05
-0.4927676482591778,-0.4927676482591778,1.0000762262862355,5.351686693623833e-05
-0.49265319908809035,-0.49265319908809035,1.0000140975375953,5.450630700286095e-05
-0.49251214275645905,-0.49251214275645905,1.0000144085414269,5.4495007005586716e-05
-0.49243906790507025,-0.49243906790507025,1.0000444798992407,5.34410626336811e-05
-0.4924077796800702,-0.4924077796800702,1.000034237879246,5.3574478985595753e-05
-0.4922291157075961,-0.4922291157075961,1.000051501002662,5.3222091454335315e-05
-0.49202085565630116,-0.49202085565630116,0.9999800529594962,5.374964067084182e-05
-0.49176546230883106,-0.49176546230883106,0.9999895048889919,5.4303231521923186e-05
-0.4915692469032365,-0.4915692469032365,0.9998719237334447,5.3859218865098476e-05
-0.4913826770934975,-0.4913826770934975,0.999973352552814,5.386351498983429e-05
-0.49130449890435557,-0.49130449890435557,1.0000560352489662,5.459883679275001e-05
-0.4912464341185114,-0.4912464341185114,1.0000203918722796,5.340221157099124e-05
-0.49114193808927664,-0.49114193808927664,1.000034671159056,5.522572972966503e-05
-0.4910782971026492,-0.4910782971026492,1.0000148434586422,5.3510356409146277e-05
-0.4910113564947096,-0.4910113564947096,1.0000289303399363,5.324559790850545e-05
-0.4909449385719199,-0.4909449385719199,1.000078849715733,5.321826620218377e-05
-0.49085360163808217,-0.49085360163808217,0.9999992802771805,5.357770995134488e-05
-0.49077383106559863,-0.49077383106559863,1.0000391277141865,5.328555549967947e-05
-0.4906381395172502,-0.4906381395172502,1.0000381098051903,5.347485301181005e-05
-0.49049635892224613,-0.49049635892224613,1.0000681339385398,5.479008418058503e-05
-0.4904059213884466,-0.4904059213884466,0.9999806499192999,5.6406536594877115e-05
-0.49022172066761416,-0.49022172066761416,0.999979942905852,5.4731604975331104e-05
-0.49002873102508604,-0.49002873102508604,1.0000609692237963,5.6083126394091474e-05
-0.4898062429994752,-0.4898062429994752,1.000045366486153,5.493335015068363e-05
-0.48969646597106475,-0.48969646597106475,1.0001144418687424,5.4427502234052895e-05
-0.48963878714639575,-0.48963878714639575,1.0000102510358237,5.528049238268757e-05
-0.4895631247003621,-0.4895631247003621,1.0000840860701805,5.402380064110163e-05
-0.48946274316476773,-0.48946274316476773,1.0000544586531182,5.465540956467118e-05
-0.4893764111729979,-0.4893764111729979,1.0000633848101805,5.719342702169065e-05
-0.4891607260913588,-0.4891607260913588,1.0000095825979234,5.568454484789313e-05
-0.4891019308059185,-0.4891019308059185,1.0000271139291663,5.5417253018646645e-05
-0.48894179211420125,-0.48894179211420125,1.0000327521268138,5.4717088022009106e-05
-0.48883633283985545,-0.48883633283985545,0.9999473319645599,5.3484850914190676e-05
-0.48870158011995957,-0.48870158011995957,0.9999410704139127,5.45462949588531e-05
-0.48839479470043445,-0.48839479470043445,1.0000484538588101,5.5554638669322225e-05
-0.4882510938172345,-0.4882510938172345,0.9998728266947886,5.61370758751788e-05
-0.48808632103318816,-0.48808632103318816,0.9999782304794049,5.4098691918385146e-05
-0.4880239994941803,-0.4880239994941803,1.0000041334217808,5.358726646346609e-05
-0.48796075337158984,-0.48796075337158984,0.9999279126279802,5.30165131674715e-05
-0.48779195697497924,-0.48779195697497924,1.0000596254318264,5.3707162812158875e-05
-0.48761445357231425,-0.48761445357231425,0.9999290519137531,5.300539480183466e-05
-0.4874215033392829,-0.4874215033392829,1.0000329354325637,5.296127142792206e-05
-0.48716835241284573,-0.48716835241284573,0.9999688193627531,5.368538217281803e-05
-0.4870108494920714,-0.4870108494920714,1.0000587754587456,5.3737467616917495e-05
-0.48692241540629766,-0.48692241540629766,0.9999834925865919,5.322849074683968e-05
-0.4868324025934271,-0.4868324025934271,1.000097472346512,5.5301056485842755e-05
-0.48673281103547195,-0.48673281103547195,1.000040074049859,5.4862222469141434e-05
-0.4866706149936363,-0.4866706149936363,1.000083917518715,5.347849303679698e-05
-0.4865982684212213,-0.4865982684212213,1.0000331129501696,5.3486861654313956e-05
-0.4865289886314713,-0.4865289886314713,0.9999727760114515,5.2817252187993645e-05
-0.4864348718416295,-0.4864348718416295,1.0000111764573065,5.352024405318558e-05
-0.48629154016816756,-0.48629154016816756,0.9999707309561788,5.353687606844019e-05
-0.4861477625760017,-0.4861477625760017,1.0000383867374394,5.3865633821718905e-05
-0.4860515624801337,-0.4860515624801337,1.0000503470395725,5.586619287292854e-05
-0.48586088509400727,-0.48586088509400727,0.9999596684086374,5.623459510695777e-05
-0.48568473223858744,-0.48568473223858744,1.0000488981725684,5.5843700363378526e-05
-0.4855278724418895,-0.4855278724418895,1.000024414170611,5.6366153356226686e-05
-0.4853829565574415,-0.4853829565574415,1.0000414793548864,5.352474935813997e-05
-0.48528129627738964,-0.48528129627738964,0.9999639987537898,5.50202407209449e-05
-0.4851797546391026,-0.4851797546391026,1.0000368356886902,5.525308188089221e-05
-0.485067133497796,-0.485067133497796,1.000042447922014,5.42789315138775e-05
-0.4849341517685389,-0.4849341517685389,1.0001010045113694,5.723066570349855e-05
-0.4847972134950396,-0.4847972134950396,0.9999957209174563,5.437978687379321e-05
-0.4846971304505132,-0.4846971304505132,1.0000381833862446,5.699823495727091e-05
-0.4846064528464922,-0.4846064528464922,1.000039953065609,5.4889153089456045e-05
-0.48449460881893175,-0.48449460881893175,1.00002275946657,5.579166754424054e-05
-0.4843459570038249,-0.4843459570038249,0.9999204339318192,5.49884193453957e-05
-0.4840411848461372,-0.4840411848461372,0.9999745728551582,5.527901855066943e-05
-0.48388170768594135,-0.48388170768594135,1.0000165864658632,5.645205560352159e-05
-0.4836927475516859,-0.4836927475516859,1.0000874067491385,5.452500983033267e-05
-0.4836222847661702,-0.4836222847661702,1.00003950579291,5.344323439901617e-05
-0.4835538145765895,-0.4835538145765895,0.9999370611095703,5.322487982032426e-05
-0.48335541565975293,-0.48335541565975293,0.9999668107433616,5.431610811714942e-05
-0.48322931865841384,-0.48322931865841384,0.9999339476965534,5.273727362157509e-05
-0.4830321660847403,-0.4830321660847403,1.0000986961955953,5.317060976841732e-05
-0.4829115621076198,-0.4829115621076198,0.9999629002061073,5.358962188250239e-05
-0.4826376257347874,-0.4826376257347874,1.00006274762392,5.4032019398290815e-05
-0.48253318586721433,-0.48253318586721433,1.0000130519364308,5.336403259054081e-05
-0.4824706969659019,-0.4824706969659019,1.0000018938950128,5.4883834570055367e-05
-0.4823629051330499,-0.4823629051330499,1.0000014061832723,5.482881397075652e-05
-0.4822934057148814,-0.4822934057148814,1.0000234771952585,5.344865314045444e-05
-0.4822064398969815,-0.4822064398969815,0.9999679157383253,5.3499557716812495e-05
-0.48215373268176337,-0.48215373268176337,0.9999796486944987,5.279437655064937e-05
-0.48209247855411375,-0.48209247855411375,1.0000871082774707,5.4603919667800504e-05
-0.48195209529585553,-0.48195209529585553,1.0000248524158561,5.360640542429821e-05
-0.48174182180664504,-0.48174182180664504,0.9999947807253724,5.279292084358932e-05
-0.4816300175676588,-0.4816300175676588,1.0000934502800345,5.665653982035481e-05
-0.48149355190325877,-0.48149355190325877,1.0000524705235703,5.6224253808026295e-05
-0.4812450446675939,-0.4812450446675939,1.0001026159273074,5.6655185194162725e-05
-0.4810805461434938,-0.4810805461434938,1.0000918012859592,5.4676190021406104e-05
-0.4809583418908005,-0.4809583418908005,1.0000295691914143,5.524333759019912e-05
-0.48084810729851596,-0.48084810729851596,0.9999634575635697,5.563229953333595e-05
-0.48075619236624334,-0.48075619236624334,0.9999343333147799,5.4778078771128505e-05
-0.4806627060941537,-0.4806627060941537,1.0001546157517436,5.472292868304407e-05
-0.4805505790936877,-0.4805505790936877,1.0000545946457993,5.62050407415007e-05
-0.48039301841199633,-0.48039301841199633,0.9999512247414023,5.5140474891991675e-05
-0.4802869604282023,-0.4802869604282023,0.9999888067830682,5.773723673467467e-05
-0.4802115064674581,-0.4802115064674581,1.0000732552147293,5.477530638438887e-05
-0.4800915968648042,-0.4800915968648042,1.0000298154846152,5.597823285806324e-05
-0.47999508919601797,-0.47999508919601797,0.9999566868587564,5.406643905041116e-05
-0.47984982255729847,-0.47984982255729847,0.9999938521514121,5.587160723516375e-05
-0.47967690573714206,-0.47967690573714206,1.0000234716155088,5.459712111452019e-05
-0.47954566865810194,-0.47954566865810194,1.0000047166740602,5.6365571715425605e-05
-0.4793984237992845,-0.4793984237992845,0.9999776173451103,5.480065764396447e-05
-0.4792767200000526,-0.4792767200000526,1.0000554250491505,5.5854397559046065e-05
-0.479205489323067,-0.479205489323067,1.000102881544755,5.383811341332388e-05
-0.47914580265496626,-0.47914580265496626,0.9999425460005048,5.52158324052802e-05
-0.4789666260112426,-0.4789666260112426,1.0000041322760507,5.571516894329817e-05
-0.478847835821216,-0.478847835821216,1.0000012204663613,5.245375511187945e-05
-0.47866603983275124,-0.47866603983275124,0.9999501079946507,5.311483383757235e-05
-0.47858840161788974,-0.47858840161788974,1.0000112051876098,5.357193264219101e-05
-0.4784138047551096,-0.4784138047551096,0.9999697106634082,5.39265637581231e-05
-0.47824287583716796,-0.47824287583716796,1.0000462445493017,5.420438274548164e-05
-0.47813447105072554,-0.47813447105072554,1.0001303729484081,5.4651130024222165e-05
-0.47802317493333246,-0.47802317493333246,1.0000608292027402,5.49731512929831e-05
-0.4779273646963702,-0.4779273646963702,0.9999501013151544,5.485542856166882e-05
-0.47783835260925117,-0.47783835260925117,0.9999830074750079,5.3310621274502285e-05
-0.4777929044466873,-0.4777929044466873,1.0000514589263971,5.308780562932409e-05
-0.4777486761282489,-0.4777486761282489,1.0000263869607298,5.294607214840121e-05
-0.4776478602012503,-0.4776478602012503,1.0000223265535921,5.724444814512868e-05
-0.47748673407841125,-0.47748673407841125,0.9999828421555603,5.367618523530769e-05
-0.4773381068145682,-0.4773381068145682,0.9999866952784986,5.32569700790806e-05
-0.47722513958287893,-0.47722513958287893,0.999904622018188,5.671778126096924e-05
-0.47708652827495823,-0.47708652827495823,1.0000188505927727,5.30998398409072e-05
-0.4768853773071896,-0.4768853773071896,1.0001227837417763,5.59659615059876e-05
-0.47671263783122414,-0.47671263783122414,1.0000382469349391,5.493981432028756e-05
-0.4765726240191725,-0.4765726240191725,0.9999861762212922,5.480374708070557e-05
-0.47648027581963104,-0.47648027581963104,0.9999922865148427,5.6513400163841976e-05
-0.47642020587591105,-0.47642020587591105,1.0001060691546058,5.374369384177763e-05
-0.47635701946783227,-0.47635701946783227,1.0000092839477794,5.4752868706137725e-05
-0.4762598999295733,-0.4762598999295733,0.9999421596706333,5.5135614777911826e-05
-0.47613922770979117,-0.47613922770979117,0.9999635585334611,5.6080088394848555e-05
-0.4760256051311444,-0.4760256051311444,1.0000676395816206,5.4667739407169746e-05
-0.47593000467459207,-0.47593000467459207,1.0000716912096825,5.528978860734005e-05
-0.47584715274788325,-0.47584715274788325,0.9999980615009939,5.613016022012815e-05
-0.47571641339091003,-0.47571641339091003,1.0000189420917196,5.6122936597820055e-05
-0.4756028223120666,-0.4756028223120666,1.0000134712060516,5.488671730880492e-05
-0.47546321619374793,-0.47546321619374793,0.999982555121964,5.6122972230354955e-05
-0.4752839793894964,-0.4752839793894964,0.9999843175059852,5.455735078017469e-05
-0.4751804355808417,-0.4751804355808417,1.000025674926651,5.383745809772717e-05
-0.47499616344284734,-0.47499616344284734,1.0000997288544782,5.608719208921298e-05
-0.47484250989582505,-0.47484250989582505,1.0000371468080838,5.6594116546209546e-05
-0.47475578871089963,-0.47475578871089963,0.9999734074568011,5.360352667700492e-05
-0.47463709708536045,-0.47463709708536045,0.9999465340332329,5.544461275494774e-05
-0.47455651257841963,-0.47455651257841963,1.0000194297746892,5.6217055815731744e-05
-0.47449484604803727,-0.47449484604803727,1.0000333649393771,5.2936679258457616e-05
-0.4743510761327343,-0.4743510761327343,1.000031460826984,5.255804099334883e-05
-0.47424827899230876,-0.47424827899230876,1.000050863026541,5.316462977137313e-05
-0.4741606760442664,-0.4741606760442664,1.000039728704292,5.374048239185378e-05
-0.47392098905620517,-0.47392098905620517,1.0000709535275305,5.4145309816167984e-05
-0.47381259320973185,-0.47381259320973185,1.0000961285780243,5.342099828196461e-05
-0.47370290885664873,-0.47370290885664873,0.9999666628216552,5.6657312743059995e-05
-0.4735793181142071,-0.4735793181142071,0.999980508794386,5.4520309706632274e-05
-0.47346287380496505,-0.47346287380496505,0.9999488987224998,5.369399422214049e-05
-0.4734186126923305,-0.4734186126923305,1.000001814167207,5.26958707985541e-05
-0.4733630146649375,-0.4733630146649375,0.9999852549558401,5.3627967787063535e-05
-0.4733134718910151,-0.4733134718910151,1.000013483122354,5.376022377686919e-05
-0.47318215448467527,-0.47318215448467527,0.9999814047309595,5.365910083445116e-05
-0.4729826142815,-0.4729826142815,1.000045967242554,5.362810888968509e-05
-0.47279208950931206,-0.47279208950931206,1.0000292012060215,5.5301150837638805e-05
-0.4725724844371143,-0.4725724844371143,1.0000778625455982,5.4546358141592394e-05
-0.4724387789261527,-0.4724387789261527,0.99996655481531,5.480697148213102e-05
-0.47234590366861084,-0.47234590366861084,0.9999854379435081,5.361334614150457e-05
-0.472214779832575,-0.472214779832575,0.9999256496800889,5.484569546473123e-05
-0.472088423956302,-0.472088423956302,0.9999798808507142,5.52051751492489e-05
-0.4720316744977026,-0.4720316744977026,0.9999215587467354,5.519852423842512e-05
-0.4719709745419095,-0.4719709745419095,1.0000342256157473,5.303392699444431e-05
-0.47187679444541575,-0.47187679444541575,0.9999632163950254,5.374988457180334e-05
-0.47174926668885747,-0.47174926668885747,0.9999498254426115,5.7050902259008796e-05
-0.47162293519359083,-0.47162293519359083,0.9999596423144383,5.503710485935991e-05
-0.4715041113253392,-0.4715041113253392,1.0000819291296534,5.618588388526638e-05
-0.4714027955968049,-0.4714027955968049,0.9999737949818716,5.5999936550587276e-05
-0.47128723098139746,-0.47128723098139746,0.9999600538896916,5.6363437517181185e-05
-0.471137479054596,-0.471137479054596,1.0000522869401833,5.511546772800854e-05
-0.47096103776129894,-0.47096103776129894,0.9999861997930439,5.453919248746564e-05
-0.47084871120750904,-0.47084871120750904,1.0000514859377199,5.485513712990307e-05
-0.4706966389421723,-0.4706966389421723,0.9999605828980715,5.517740025750164e-05
-0.47051447074336467,-0.47051447074336467,1.0000731165811088,5.585420942130251e-05
-0.47040065683031573,-0.47040065683031573,0.9999598283478918,5.5133682526961126e-05
-0.4703347374779696,-0.4703347374779696,1.0001346205020625,5.3952988178574126e-05
-0.4702052458007529,-0.4702052458007529,1.0000455693738575,5.517269106725174e-05
-0.4701476790702145,-0.4701476790702145,0.9999888891572966,5.566583998429117e-05
-0.469972762947873,-0.469972762947873,0.9999927390174363,5.2622980112829945e-05
-0.469872654050414,-0.469872654050414,0.9999236535755525,5.369454240647674e-05
-0.4697124076927139,-0.4697124076927139,0.9999937641699146,5.48175041837752e-05
-0.4695174620974285,-0.4695174620974285,1.0000551886840001,5.375155358348945e-05
-0.4693387795297895,-0.4693387795297895,0.9999354545020003,5.564081014717099e-05
