time,time,flux,flux_err
-0.49877664321563014,-0.49877664321563014,0.9998437728755131,0.0001315589491377131
-0.497406965504221,-0.497406965504221,0.9999663936229471,0.00013226323438891464
-0.4965482401297777,-0.4965482401297777,0.9999411760457623,0.00012052095992190258
-0.49525843463488856,-0.49525843463488856,1.000096947778137,0.00012202921246313398
-0.4939429796686454,-0.4939429796686454,0.9998608609555338,0.00011859608392236121
-0.4929311408697686,-0.4929311408697686,0.9999618521228306,0.00011915563488736983
-0.49182746268852495,-0.49182746268852495,1.0001612388866987,0.00011902279328862102
-0.4906690610194346,-0.4906690610194346,1.0000631390098011,0.0001197723078898911
-0.48977860928498557,-0.48977860928498557,1.0000220921392282,0.00012089278720509543
-0.4893917498433439,-0.4893917498433439,0.999907270226425,0.00011990218426510177
-0.4889995072691818,-0.4889995072691818,0.9998185430704687,0.00012080937346919969
-0.48841642556726583,-0.48841642556726583,1.000012573348791,0.00012133577081769097
-0.48784997285183634,-0.48784997285183634,1.0000502500003678,0.00011857184787127369
-0.48711024249787443,-0.48711024249787443,1.000102499885804,0.0001184932998647058
-0.48658537982410055,-0.48658537982410055,0.9999231712521952,0.00011846660895071257
-0.48570662372221707,-0.48570662372221707,0.999862869862463,0.00011842105520138494
-0.4851747281274584,-0.4851747281274584,0.9999924360856285,0.00011845095484005745
-0.4842864952268428,-0.4842864952268428,0.9999858555503451,0.00012187767131180912
-0.4831155964624486,-0.4831155964624486,0.9999883183944064,0.00012320352953756975
-0.4817364029710006,-0.4817364029710006,1.0000538041612388,0.00011847227645587395
-0.481252615966514,-0.481252615966514,0.9999976891709966,0.00012248995645786128
-0.4808475973266468,-0.4808475973266468,0.999814988321585,0.00012000489570778111
-0.48033467784698586,-0.48033467784698586,1.0000766037939257,0.00012222485091758947
-0.47935657854468444,-0.47935657854468444,0.9999572850305617,0.00012366999420693311
-0.47870376749924615,-0.47870376749924615,0.9998171330608434,0.0001269761443684327
-0.47846089366066735,-0.47846089366066735,0.9998483909860445,0.00012377014166222477
-0.47826617372993496,-0.47826617372993496,0.999946456775435,0.00012376609843696695
-0.4779660315725778,-0.4779660315725778,1.000000086808235,0.000124406892526039
-0.47756374017626513,-0.47756374017626513,1.0000173576253064,0.0001256141180206653
-0.47712919328405407,-0.47712919328405407,0.9998828354703491,0.000123960586436662
-0.47682255368927146,-0.47682255368927146,1.0002472714784347,0.00012423648437380968
-0.4765165594559221,-0.4765165594559221,1.0000001665513976,0.00012575959986035198
-0.47620963725348703,-0.47620963725348703,1.000091294625881,0.00012630903404832196
-0.47590647661927504,-0.47590647661927504,0.9998152748351414,0.0001241531086179886
-0.47567559268136395,-0.47567559268136395,0.9999639899305676,0.00012456065899282988
-0.4753957025546697,-0.4753957025546697,1.0003437015462768,0.00012550256820776008
-0.475119526276103,-0.475119526276103,0.9998759953276988,0.00012427971998440213
-0.47484011200867826,-0.47484011200867826,0.9998764494748651,0.00012553338322507016
-0.47455284780371587,-0.47455284780371587,1.0000413767904472,0.00012425649218518827
-0.47431756470832626,-0.47431756470832626,1.0000449064347134,0.00012418185028155186
-0.4740892728070321,-0.4740892728070321,1.0001035482118175,0.00012385430830681314
-0.4738638373397407,-0.4738638373397407,1.0000256087014467,0.0001240465629583487
-0.4735703914448095,-0.4735703914448095,0.9998867573191603,0.00012416382729957034
-0.47332818734139437,-0.47332818734139437,0.9998727196020682,0.000125158037243135
-0.47301907558357925,-0.47301907558357925,0.9997320971164397,0.0001251637174064459
-0.4726317685308459,-0.4726317685308459,0.999938468679419,0.00012374137773862152
-0.4722919878702669,-0.4722919878702669,0.999946524996829,0.00012505528646319878
-0.4720504992641509,-0.4720504992641509,0.9998344627850895,0.00012349093311395007
-0.4715821970028628,-0.4715821970028628,0.9997959346905653,0.00012357179541803886
-0.47099394562101227,-0.47099394562101227,1.0000288048837844,0.0001245771308887162
-0.47043029549968196,-0.47043029549968196,1.0000003526580903,0.0001236250491213084
-0.46989587803545874,-0.46989587803545874,1.0002202889801761,0.0001245711890757269
-0.46930121144614534,-0.46930121144614534,0.999954125260295,0.00012223773225702688
-0.468858305078902,-0.468858305078902,0.9997365874087422,0.00012223446080967675
-0.46830070913856614,-0.46830070913856614,1.0000565514595061,0.00012073786711348535
-0.46776780508007504,-0.46776780508007504,0.9998902139634847,0.00012211036960701078
-0.4662182708743785,-0.4662182708743785,1.0000280842313827,0.00011882804172184196
-0.4650921245891368,-0.4650921245891368,0.9999171230977488,0.00011874356489477158
-0.4642412987042917,-0.4642412987042917,1.0000322489703688,0.00011879920678050599
-0.4633928936556913,-0.4633928936556913,0.999849659699097,0.00011999465549140674
-0.4622008756217838,-0.4622008756217838,0.9999946021731191,0.0001209855150422679
-0.46181936555876746,-0.46181936555876746,1.0001450118894124,0.00012021733949114279
-0.46044572129685546,-0.46044572129685546,0.999944673824625,0.00012233713529158173
-0.4596063697121281,-0.4596063697121281,1.0000036239988472,0.00012251451585453164
-0.4592722910012526,-0.4592722910012526,0.9999719424111833,0.00012071469566987073
-0.4586541834934906,-0.4586541834934906,0.9999434020700007,0.00011855908719202513
-0.4574739445168234,-0.4574739445168234,0.9999853774566592,0.00012221014499476658
-0.45669052736193405,-0.45669052736193405,1.0000491771729083,0.00012078970709808843
-0.45627462929842294,-0.45627462929842294,0.9999834845323555,0.00012081039978170233
-0.4559653565927874,-0.4559653565927874,1.000081913931736,0.0001212057829272439
-0.4555487749581516,-0.4555487749581516,0.9999880583934978,0.0001205089007096606
-0.45463719509207295,-0.45463719509207295,1.0001518653059425,0.00012126703218398026
-0.4532450603444886,-0.4532450603444886,1.0001507288770988,0.00012420622747188635
-0.45169073701472373,-0.45169073701472373,0.9998315904399362,0.000125045005783774
-0.45123484073483267,-0.45123484073483267,0.999674100678703,0.0001251604557571545
-0.4507057234055537,-0.4507057234055537,0.9999455226604592,0.0001240360207157214
-0.4499993263365468,-0.4499993263365468,0.9999327628103554,0.00012516230314225615
-0.44923216885872536,-0.44923216885872536,1.0000188136666166,0.00012381719863259027
-0.4485989761997189,-0.4485989761997189,1.0000460296175395,0.00012258679554736724
-0.4478593385385466,-0.4478593385385466,1.0000899114490545,0.00012510354503879502
-0.4470751740351261,-0.4470751740351261,0.9999374009829165,0.00012285216279319235
-0.4452564146820805,-0.4452564146820805,0.99992293382725,0.00011986556774024467
-0.44385066422401,-0.44385066422401,1.000092423622117,0.00012248284254533375
-0.44329660978910396,-0.44329660978910396,0.9998498543864315,0.00012027613890559349
-0.44289811302005544,-0.44289811302005544,0.9997294160056758,0.00012179470357737905
-0.44189247452959535,-0.44189247452959535,0.9998771592728499,0.000122190280635668
-0.439967472745775,-0.439967472745775,1.000162079293381,0.00011895158144708997
-0.43905358206829986,-0.43905358206829986,1.0000818393084467,0.00011835256336626234
-0.4375268275012786,-0.4375268275012786,0.9999640536909343,0.00011828084836641888
-0.43694450190887435,-0.43694450190887435,1.000182646941661,0.00011839680225900243
-0.4359459238839918,-0.4359459238839918,1.0000729019018355,0.0001214497566381779
-0.43548369454292696,-0.43548369454292696,1.0000103045697615,0.00012117570790671684
-0.43514539938405505,-0.43514539938405505,0.9997363347648646,0.00012131985805286
-0.43467104102528537,-0.43467104102528537,0.9999419688770764,0.0001198120264441207
-0.43389531403081494,-0.43389531403081494,0.9999990543590108,0.00012264339660433173
-0.4322608383852639,-0.4322608383852639,0.9998790724215567,0.00012288116400579213
-0.43176873993506887,-0.43176873993506887,1.0001012795724888,0.0001227551886634582
-0.4312946233883849,-0.4312946233883849,1.000136217122676,0.00012368342729751183
-0.43071935063780986,-0.43071935063780986,0.999991347604686,0.0001224908714692723
-0.4301131589229044,-0.4301131589229044,1.0000442910316807,0.00012126995746712392
-0.4281863554591837,-0.4281863554591837,1.000169837155736,0.00012374332935506825
-0.42731251781151514,-0.42731251781151514,1.0000400071964768,0.00012380550647701793
-0.42680389469314833,-0.42680389469314833,0.9999451756020008,0.00012367766128153928
-0.42622651043566295,-0.42622651043566295,1.0000384036467609,0.0001224983090994868
-0.4258555062158848,-0.4258555062158848,0.999999555180576,0.0001242259052883236
-0.42547465336538154,-0.42547465336538154,0.9999962135115416,0.0001236329875586677
-0.42500833478334243,-0.42500833478334243,1.0000005847690507,0.0001259011923181468
-0.42448419718202784,-0.42448419718202784,0.9999830155703895,0.00012550154132770519
-0.42399846416083165,-0.42399846416083165,0.9998676283572877,0.00012096370488561087
-0.42362428295746213,-0.42362428295746213,1.0002001584862201,0.00012088321271378742
-0.4232117269762966,-0.4232117269762966,1.000116732453683,0.00012088828834755151
-0.42269807415796096,-0.42269807415796096,0.999960695857073,0.0001235246415603574
-0.422135909107601,-0.422135909107601,0.9999115485847689,0.00012114064727195199
-0.42176573874457973,-0.42176573874457973,0.9998689843865503,0.00012110539840916803
-0.42148862230897066,-0.42148862230897066,1.0001246156509995,0.00012113907532899245
-0.4212540994412848,-0.4212540994412848,1.0000124643583623,0.00012006759067643904
-0.4209865609263943,-0.4209865609263943,1.000006595524092,0.00012012916243556434
-0.42069519027063507,-0.42069519027063507,0.99978605476529,0.00012019035995815326
-0.4203292471742316,-0.4203292471742316,0.9999775755224516,0.00011882173067891845
-0.4198183897176932,-0.4198183897176932,0.9999808915279298,0.00011871697232648309
-0.4191469726385549,-0.4191469726385549,0.9999066631761068,0.00011980380354754383
-0.41851718821781103,-0.41851718821781103,0.9999008875011229,0.00012137215587827387
-0.41815443317900647,-0.41815443317900647,1.0002517113840301,0.00012034102158868683
-0.4172157694272755,-0.4172157694272755,1.0000034309929295,0.0001225431681876945
-0.4161711617191031,-0.4161711617191031,1.0000201532453652,0.00012267821308230715
-0.4157208442855335,-0.4157208442855335,1.0000729458423563,0.00011984894564263175
-0.4154327582800761,-0.4154327582800761,1.0000197303851648,0.00012098316321677353
-0.4151545813168923,-0.4151545813168923,1.0001114892996754,0.00011979240939539318
-0.41484861472054035,-0.41484861472054035,1.000121912312237,0.00012069909988128092
-0.4144252936166595,-0.4144252936166595,0.9998588711226699,0.00012185146746756726
-0.4137251227337401,-0.4137251227337401,0.9999628458600105,0.00012313331164329747
-0.4130883930789423,-0.4130883930789423,0.9999345855139798,0.00012306069810952508
-0.41246996087720617,-0.41246996087720617,0.9997673761075232,0.00012192965386119471
-0.4118800888267288,-0.4118800888267288,1.0000854816403586,0.00012345520930506941
-0.4114757896895753,-0.4114757896895753,1.000176771374465,0.00012374963218301694
-0.4107025013043312,-0.4107025013043312,1.0000084323781704,0.00012377269517722646
-0.40983630409828037,-0.40983630409828037,0.9999010965175303,0.00012498323591040417
-0.4084078254476481,-0.4084078254476481,1.000031111229267,0.00011996401871696287
-0.4067426268273266,-0.4067426268273266,0.9998709814685546,0.00012062034518748048
-0.40599466707426474,-0.40599466707426474,0.9998484207695034,0.00012269373687328564
-0.4043217525286309,-0.4043217525286309,1.000083752143873,0.00012005340518064366
-0.4030146223230986,-0.4030146223230986,0.9999657482716943,0.0001198282016531663
-0.4020072650753718,-0.4020072650753718,1.0001721468157458,0.00011917092093004479
-0.4009038962562045,-0.4009038962562045,0.9999877472125618,0.0001190227458264611
-0.39985424097394573,-0.39985424097394573,0.9999398339001152,0.00011991197133113495
-0.3990747232557624,-0.3990747232557624,1.0000635360963885,0.0001197884871350627
-0.3985977124655619,-0.3985977124655619,0.9999532864540663,0.0001198939881893974
-0.3982569167557813,-0.3982569167557813,1.00016939986134,0.0001219515382483779
-0.3978111751697725,-0.3978111751697725,0.9999423800840734,0.00011993272978857812
-0.3973066049220506,-0.3973066049220506,0.9998375667434125,0.0001213576793600252
-0.39661816391162574,-0.39661816391162574,0.9996487283008129,0.00011852946492476487
-0.3959711309908016,-0.3959711309908016,0.9999744316171821,0.0001184354551400969
-0.39528785415241147,-0.39528785415241147,0.9998711622131117,0.00011848128327786854
-0.39460223486821633,-0.39460223486821633,0.9998732758061297,0.00011849658896673492
-0.39388875258373446,-0.39388875258373446,0.9999064311527736,0.00011951698919855003
-0.39306154491569034,-0.39306154491569034,1.0001224731894003,0.00012372540719830842
-0.3919474571484898,-0.3919474571484898,0.9998615779249764,0.00012216107042879618
-0.3908589079321246,-0.3908589079321246,0.9999394493494626,0.0001184663821181862
-0.39032763937138953,-0.39032763937138953,1.0000510505871052,0.00012249012567886548
-0.38987276269472204,-0.38987276269472204,1.00008336959646,0.00012014941457540857
-0.3892241454588657,-0.3892241454588657,1.0000720040006388,0.0001221545519183287
-0.3884579076933733,-0.3884579076933733,0.9999368840510456,0.00012238734473588616
-0.3878556928015314,-0.3878556928015314,1.00005007308139,0.00012654710434931176
-0.3875730956970074,-0.3875730956970074,0.9998975467908053,0.00012336553225369238
-0.387386255380261,-0.387386255380261,1.0000836958161412,0.00012569896427760765
-0.3871049300687446,-0.3871049300687446,1.0000478413242857,0.0001233374974962781
-0.386744686243037,-0.386744686243037,1.0000606861584476,0.0001253044640509061
-0.38630561515892625,-0.38630561515892625,1.0000187483528689,0.000124054443939926
-0.38595230219725635,-0.38595230219725635,1.0002026695468973,0.00012393542351067085
-0.38565530441046575,-0.38565530441046575,0.9997465736443407,0.00012625244555959512
-0.3853445276232378,-0.3853445276232378,1.0001257326711794,0.0001260525762922542
-0.3850357837502088,-0.3850357837502088,1.000246641806671,0.00012569526527748102
-0.3847988228837494,-0.3847988228837494,1.0000051241203383,0.0001228502041188487
-0.38449223279894795,-0.38449223279894795,1.000188740377625,0.00012595858858730158
-0.3841603984910762,-0.3841603984910762,1.000182421441107,0.00012576319416711545
-0.38384340442426035,-0.38384340442426035,0.9999851914454254,0.00012535755696853942
-0.38354988712599153,-0.38354988712599153,1.000043925003195,0.00012532499373809285
-0.3832978240592638,-0.3832978240592638,0.9999966519749254,0.0001226915607382286
-0.3830837587309361,-0.3830837587309361,1.0001882513628666,0.00012403413727782265
-0.3828212993008492,-0.3828212993008492,0.9999963804236696,0.0001253291281933858
-0.38255350160907253,-0.38255350160907253,0.9999987765924201,0.00012404266268468346
-0.3823316644236911,-0.3823316644236911,0.9999652100041135,0.00012371136177629385
-0.38202365923280013,-0.38202365923280013,1.0000380737374392,0.00012518830344453857
-0.38163680899524477,-0.38163680899524477,0.9999860872190547,0.00012372661892875647
-0.3813070864081965,-0.3813070864081965,0.9999558604778157,0.00012524966249774155
-0.38107438488659684,-0.38107438488659684,1.000163899275725,0.00012233327453533562
-0.38048587038065307,-0.38048587038065307,1.0000779392309913,0.00012458373287529417
-0.37979268233902985,-0.37979268233902985,1.000159864898946,0.00012452444687711326
-0.37921233950037275,-0.37921233950037275,1.0000138844269408,0.00012470834377879258
-0.378691930531204,-0.378691930531204,0.9999270228940251,0.0001221488545318265
-0.37820701966193154,-0.37820701966193154,1.0001566329709684,0.00012224589925475542
-0.3777038999134675,-0.3777038999134675,1.0001748376111692,0.00012210527102114247
-0.377220973095973,-0.377220973095973,1.0000397745392287,0.00012316653815557324
-0.3763007110450417,-0.3763007110450417,1.0000368504855284,0.00011996136347609373
-0.3748957393836463,-0.3748957393836463,1.0000335442909123,0.00011878233418029279
-0.37382768499155644,-0.37382768499155644,0.9999355194537003,0.0001187121820072732
-0.373151577112003,-0.373151577112003,0.9998528474407363,0.0001187707262899854
-0.37160562706776545,-0.37160562706776545,1.000062970879877,0.00012097406251946765
-0.3709185465508199,-0.3709185465508199,0.9999700875584026,0.0001202871271230033
-0.3696854233581689,-0.3696854233581689,0.9999121490687273,0.00012232350787984444
-0.3687005598876567,-0.3687005598876567,1.0000286795483686,0.00012257109558378587
-0.3683813561729039,-0.3683813561729039,0.9998631912914091,0.00011882260841743486
-0.36773106507898773,-0.36773106507898773,0.9999472995152733,0.00011855172992370942
-0.3667799104710866,-0.3667799104710866,0.9998697785682612,0.00011952587468078116
-0.36584099209212584,-0.36584099209212584,1.0000448302990734,0.00012077240149257733
-0.3654576835440821,-0.3654576835440821,0.9997373762971165,0.00012088838352200895
-0.3651235327917675,-0.3651235327917675,0.9999336461107383,0.00012117511850021816
-0.36471403171308336,-0.36471403171308336,0.9998976176403465,0.00012142320229342808
-0.3637054490398441,-0.3637054490398441,0.9998049679927942,0.00011990050904785877
-0.3623387054889463,-0.3623387054889463,0.9999888545053073,0.0001240782300132178
-0.3609726080016117,-0.3609726080016117,0.9998614145676136,0.00012528230424118937
-0.3603090993783553,-0.3603090993783553,0.999928902335175,0.00012516563661573254
-0.35968330541654725,-0.35968330541654725,0.9999901428814182,0.00012402962001986314
-0.3589154867666366,-0.3589154867666366,0.9999790004706837,0.0001252043823002848
-0.3583070771273924,-0.3583070771273924,1.0000210672114598,0.0001238211379441739
-0.3576366851288185,-0.3576366851288185,0.9998203635831366,0.00012390764298404397
-0.35687109423597574,-0.35687109423597574,0.999978623062356,0.00012404703180774986
-0.3560351004824042,-0.3560351004824042,1.000119444478146,0.0001224478686549141
-0.3536785273208807,-0.3536785273208807,0.9998201559032933,0.00012304917043321764
-0.35280134436980004,-0.35280134436980004,0.9999836636676308,0.00012118828361503743
-0.35222847918848854,-0.35222847918848854,0.9999281082182762,0.00012185591559767966
-0.3517738912254572,-0.3517738912254572,1.0002122860540208,0.00012012291621774779
-0.34929338976508006,-0.34929338976508006,0.999800045639291,0.00011893263956441252
-0.34818538638428437,-0.34818538638428437,0.999876257534468,0.00011991126285795972
-0.34659114002715796,-0.34659114002715796,0.9998961127580017,0.00011821985731204004
-0.3459753259405261,-0.3459753259405261,0.9998356973567921,0.00011847743978790166
-0.34491310142693693,-0.34491310142693693,1.0000780780013827,0.00012239736656164416
-0.3444432525000593,-0.3444432525000593,0.9998853989824115,0.00012029560179470313
-0.3441025739404722,-0.3441025739404722,0.9998333161531873,0.00011994371192725318
-0.34341824817020095,-0.34341824817020095,0.9999949233818632,0.00011979453288049689
-0.34214750438113695,-0.34214750438113695,1.0001152297747997,0.0001258554430501361
-0.34112131549918556,-0.34112131549918556,0.9998867964705418,0.00012158381292142105
-0.34069731432100525,-0.34069731432100525,1.0000188342769394,0.0001213440575922174
-0.3402593265491305,-0.3402593265491305,0.9999981373364321,0.00012485135688598573
-0.3396505282835278,-0.3396505282835278,1.0002414081866877,0.00012256634435188127
-0.3384687268844573,-0.3384687268844573,0.9999594175710144,0.00012123678405054025
-0.3368736637174152,-0.3368736637174152,0.9999098461127212,0.0001250763035361158
-0.33616246310266434,-0.33616246310266434,1.000085851929363,0.00012374419813239297
-0.33548521066695686,-0.33548521066695686,1.0002815943338357,0.000123806201477075
-0.33507222383268526,-0.33507222383268526,1.0003193889709023,0.00012387430776829642
-0.3345184944519133,-0.3345184944519133,1.0000180675771762,0.00012487106853382472
-0.3340768267211388,-0.3340768267211388,0.9998444319997868,0.00012621253553399346
