time,time,flux,flux_err
-0.49870576906832864,-0.49870576906832864,0.9999512681148277,0.00010841300603804079
-0.49731953685404734,-0.49731953685404734,0.9999892922083641,0.00012957433749238712
-0.49573365654796364,-0.49573365654796364,0.9998934273736207,0.00010843058314783843
-0.49346162270521743,-0.49346162270521743,0.9998536788754958,0.00010840759326014139
-0.4921461511956295,-0.4921461511956295,0.9999900104642082,0.00010843865058092947
-0.49087050317320974,-0.49087050317320974,1.0001046651803538,0.00013829057214116542
-0.48927843786950687,-0.48927843786950687,0.9999079766803692,0.00010840920154712931
-0.4879564656148432,-0.4879564656148432,1.0002455627254112,0.00010841931503381764
-0.4863810530136107,-0.4863810530136107,0.9999069270017994,0.00010857963921341614
-0.48481468545796813,-0.48481468545796813,0.9998599360885569,0.00010839562333433404
-0.48307896469777917,-0.48307896469777917,1.0000330432761242,0.00010845349941090072
-0.4815196473879041,-0.4815196473879041,0.9998828414273454,0.00010898801809379932
-0.4798025200638222,-0.4798025200638222,0.9997547786361878,0.00011029158543245348
-0.4783863022486912,-0.4783863022486912,0.9998528102524828,0.00011679692135094854
-0.47660523479862604,-0.47660523479862604,1.0000343900292485,0.0001136230290221564
-0.47488915450230706,-0.47488915450230706,0.9998548065820515,0.00010841357553341884
-0.4739036390994443,-0.4739036390994443,1.0000388132294968,0.00010842694170046287
-0.47215478657744825,-0.47215478657744825,0.9999862217965265,0.00010850681927778835
-0.4705211775144562,-0.4705211775144562,0.9999077328711439,0.00010842675069616359
-0.4688065647991607,-0.4688065647991607,0.9999902775371495,0.00010834634924425715
-0.46741372313990726,-0.46741372313990726,0.9999962771275095,0.000128018821323141
-0.46522729761200027,-0.46522729761200027,0.9999150256027329,0.00010842979368565835
-0.46368230155203494,-0.46368230155203494,1.000075966125368,0.00010842961673869981
-0.4623555093043251,-0.4623555093043251,1.0000518828764995,0.0001404152524531886
-0.46106516870786435,-0.46106516870786435,1.0002000099432728,0.00010839695825850431
-0.459226433627191,-0.459226433627191,0.9999550097457119,0.00010845957701315519
-0.458213836804498,-0.458213836804498,1.0002040889678179,0.00010851289925713067
-0.45631166505045256,-0.45631166505045256,0.9999566794627324,0.00010837836972347997
-0.4546247220423538,-0.4546247220423538,1.0000837978557129,0.00010843941238849646
-0.45293838559882715,-0.45293838559882715,1.0001205759167577,0.00010908774133360413
-0.4509798262675758,-0.4509798262675758,1.0000976037926592,0.00010839123339363725
-0.44984494409291076,-0.44984494409291076,1.000056344127349,0.00011821065025338462
-0.44843003481510096,-0.44843003481510096,0.9998927753103259,0.00010840863359504879
-0.4463242596684722,-0.4463242596684722,1.0001120949690576,0.00011489174736191963
-0.4452874865557533,-0.4452874865557533,0.9999001224724875,0.00010829613562579953
-0.44341419863631015,-0.44341419863631015,0.9997278596533936,0.00010842893229568305
-0.44150136994721834,-0.44150136994721834,0.9999079752050977,0.00010851364897057722
-0.4397654406988295,-0.4397654406988295,0.9999787495264554,0.00010834584633136212
-0.43837954533810264,-0.43837954533810264,1.0000569817108373,0.00012661811307247423
-0.43619200578541495,-0.43619200578541495,0.9998933896249051,0.00010842947013112553
-0.4346518690668745,-0.4346518690668745,0.9997188076736683,0.00010841356834766748
-0.4331233358156169,-0.4331233358156169,0.999877831827267,0.00010879448296450609
-0.4314624788064975,-0.4314624788064975,0.9999685353497713,0.0001084135566235451
-0.4298973527183989,-0.4298973527183989,1.0000459084929196,0.00010840411521758097
-0.4283883985772263,-0.4283883985772263,1.0000026877447286,0.00010856780551311208
-0.426810339934309,-0.426810339934309,0.9999769027554779,0.00010840133866271916
-0.425015230893041,-0.425015230893041,1.0000765262603637,0.00010844729300659184
-0.42297885949956254,-0.42297885949956254,0.999892754905885,0.00010922528190377749
-0.42160949094104583,-0.42160949094104583,1.000198119690475,0.00010823179820562757
-0.41999985594302414,-0.41999985594302414,1.0000096596149943,0.000120178938304651
-0.41842589791922363,-0.41842589791922363,0.999944264944918,0.00011627065294749742
-0.41682271076424515,-0.41682271076424515,1.0000344577783127,0.00010838421691155237
-0.4155436110391747,-0.4155436110391747,0.9997693931874686,0.00010838195762374399
-0.41379021772299895,-0.41379021772299895,0.999989351416195,0.00010847370542799747
-0.4116134839656297,-0.4116134839656297,0.9999230185658841,0.00010840470817574054
-0.4101791640452575,-0.4101791640452575,0.9998476825844833,0.00012509757607310164
-0.4088660674635321,-0.4088660674635321,1.000022820027311,0.00010842264442057937
-0.4068257701961556,-0.4068257701961556,0.999853397954203,0.00010846420469311329
-0.4056166598951677,-0.4056166598951677,1.0001759914357855,0.0001084376620689305
-0.40408763534214814,-0.40408763534214814,1.0000540075447986,0.00010888610015741
-0.4024201172636822,-0.4024201172636822,1.0000448902003973,0.00010841054380978866
-0.40086785331950525,-0.40086785331950525,0.999948916720426,0.00010839556641607234
-0.39934671509836334,-0.39934671509836334,0.9999186880621455,0.00010859160877510925
-0.3976924448041245,-0.3976924448041245,1.0000891944300487,0.00010840250116905983
-0.3955788868741365,-0.3955788868741365,0.9999524395826601,0.00010842529816829328
-0.3934639490180416,-0.3934639490180416,1.000114440463086,0.0001093746465397167
-0.39232079787761903,-0.39232079787761903,0.9999898655966277,0.00010825213612625944
-0.3906670018506702,-0.3906670018506702,0.9999102106102467,0.00012211998742757773
-0.38920962253469044,-0.38920962253469044,1.0000143821161873,0.00011765326405819722
-0.38778757242835127,-0.38778757242835127,1.000047232667559,0.00010839083707315954
-0.38656447109533476,-0.38656447109533476,0.9992919840671028,0.00015841037265123663
-0.3850615345174447,-0.3850615345174447,1.0000965763851872,0.00010851570215181267
-0.3829725945455721,-0.3829725945455721,1.0001107333005739,0.00010843278166583137
-0.3814754481980344,-0.3814754481980344,1.0000537330976496,0.0001084066379247542
-0.38001436851336623,-0.38001436851336623,0.9999913539487434,0.0001235856954212866
-0.378216009636526,-0.378216009636526,1.0000697096055349,0.00010843759801351137
-0.3769715860282304,-0.3769715860282304,0.9999021643308845,0.00010844197538509588
-0.3756518044800032,-0.3756518044800032,1.0001273724027244,0.00010905085061112076
-0.37425545361766127,-0.37425545361766127,1.0000415860315455,0.00010837322563145857
-0.3725318240409251,-0.3725318240409251,0.9999022728079779,0.00010846194801104136
-0.3713910149235744,-0.3713910149235744,0.9999333764997328,0.00010856504211991013
-0.36951409880130087,-0.36951409880130087,1.000073132517196,0.00010840483095355233
-0.3679414336889749,-0.3679414336889749,0.9998201900712719,0.00010996073488801139
-0.36619810640113426,-0.36619810640113426,1.0001088379452678,0.00010951570074547426
-0.36434592482692096,-0.36434592482692096,1.0000320721236826,0.00014274165798394684
-0.3632846410793718,-0.3632846410793718,0.9998706776729971,0.00010825476957228734
-0.3613949271704769,-0.3613949271704769,0.9999899181771408,0.00010850660182321674
-0.35961449142196217,-0.35961449142196217,1.0001839981268517,0.00011900876828559036
-0.35838986897142605,-0.35838986897142605,0.99996822067985,0.00010828115240123126
-0.35682124566228596,-0.35682124566228596,1.0001931629456036,0.0001486712142926907
-0.3552724157896591,-0.3552724157896591,0.9999353180903503,0.0001084983314171311
-0.3532495245803148,-0.3532495245803148,1.0000785918318364,0.00010835489117154782
-0.3519351608934812,-0.3519351608934812,1.0000663512111534,0.0001264869356285536
-0.35042510681669226,-0.35042510681669226,1.0001071148399616,0.00010838188299304801
-0.3486327635706402,-0.3486327635706402,1.0000739419524294,0.00010845185621781209
-0.3476919868728146,-0.3476919868728146,1.0000990007192683,0.00010847602621815662
-0.34627015320584176,-0.34627015320584176,0.9998129418702033,0.00010914762957070377
-0.3450878202740569,-0.3450878202740569,0.9999568355977415,0.00010841007606873021
-0.34307783826661764,-0.34307783826661764,1.0001762539860795,0.00010847475977919566
-0.34172916347451976,-0.34172916347451976,1.0001116244838388,0.00010864688695632005
-0.33998852377990263,-0.33998852377990263,0.9998876194914541,0.00010810282132996383
-0.3385089199902723,-0.3385089199902723,1.0001183763275525,0.00011031501997544933
-0.3367775334743783,-0.3367775334743783,1.0000291420826455,0.0001097336702454026
-0.3350902944919653,-0.3350902944919653,0.9999746469726253,0.0001486232842135473
-0.3338565786019899,-0.3338565786019899,1.0001227835605406,0.00010829430064423825
-0.33210821021639275,-0.33210821021639275,1.0001402433933948,0.00010853271368457897
-0.3301762173505267,-0.3301762173505267,1.0001647180921664,0.00012045816362497494
-0.32915389966219666,-0.32915389966219666,1.0001184494711859,0.000108377267621554
-0.32728444375679827,-0.32728444375679827,1.0001413380389685,0.00014427590503983946
-0.3253482580825221,-0.3253482580825221,0.999936023634515,0.00010851033348065961
-0.3237422272301046,-0.3237422272301046,1.0000920025038278,0.00010834472583513648
-0.32259558628720697,-0.32259558628720697,1.0000475005477023,0.000128006473756523
-0.3214211996702943,-0.3214211996702943,1.0000498178034707,0.00010844153265691196
-0.31980677978426686,-0.31980677978426686,0.9999409577643628,0.00010844240456926138
-0.31890844794979784,-0.31890844794979784,0.9999168613841516,0.00010844515490956437
-0.3175695130368695,-0.3175695130368695,0.9998248815160633,0.00010932744387981167
-0.3161885682377033,-0.3161885682377033,1.0001036389304523,0.00010838816194392998
-0.3144544732058421,-0.3144544732058421,0.9998317872930095,0.00010846930304305275
-0.31305403690203093,-0.31305403690203093,0.9999612366425875,0.00010866175775825363
-0.31117894760973286,-0.31117894760973286,1.0000078154312617,0.00010809505648837981
-0.3095346881891601,-0.3095346881891601,1.0000507632226772,0.00011072188719633896
-0.30773740392760374,-0.30773740392760374,0.9998624010871318,0.00010998680281882412
-0.3060569253982976,-0.3060569253982976,0.9999623577592033,0.000162380225674424
-0.3048153247742448,-0.3048153247742448,0.9999754273111184,0.00010828853412006825
-0.3030763058253797,-0.3030763058253797,1.0000166585686858,0.00010852140869415656
-0.3011270936200162,-0.3011270936200162,1.0001647563043268,0.0001220242730841628
-0.299952423828654,-0.299952423828654,0.9998966134945491,0.00010837067221881969
-0.2982533563539619,-0.2982533563539619,1.0000757850885786,0.00014168944754001006
-0.295866484940052,-0.295866484940052,1.0000109600632308,0.00010842329311648584
-0.29434623546840155,-0.29434623546840155,0.9998267172051525,0.00010840719078044343
-0.293011395787471,-0.293011395787471,0.9999849329252484,0.00012950136159835162
-0.2917490931344219,-0.2917490931344219,1.0001032452608305,0.00010846703909257098
-0.29043817037600095,-0.29043817037600095,1.000128970493611,0.00010847402160890892
-0.28931214709591585,-0.28931214709591585,1.0000366600458288,0.00010850880726611471
-0.28792347793641965,-0.28792347793641965,1.000034874396008,0.00010945843727302341
-0.286585258753621,-0.286585258753621,0.9998051476156723,0.00010841114058059866
-0.2848475026577944,-0.2848475026577944,0.9998630895871266,0.0001084259085512105
-0.28274154900864235,-0.28274154900864235,0.999984874820391,0.00010870002728811429
-0.28099398655467667,-0.28099398655467667,1.0001120363558886,0.00011094895604021162
-0.27924201322603037,-0.27924201322603037,1.0001034620132756,0.00010842832171410529
-0.27732150398369415,-0.27732150398369415,1.0000096892233339,0.00011030692599120447
-0.27617494711012114,-0.27617494711012114,1.000084192137456,0.00010831217773704511
-0.27460504983901046,-0.27460504983901046,0.999901594176278,0.0001083983061589687
-0.2727197263855487,-0.2727197263855487,0.9998640579722435,0.00010851979931351399
-0.27110107931366656,-0.27110107931366656,1.0000421097022734,0.00010833731781882249
-0.269750237397966,-0.269750237397966,1.0000193199459027,0.000139090833899604
-0.26796210242027885,-0.26796210242027885,0.9998768654361292,0.00010838897903165922
-0.26615444257331544,-0.26615444257331544,1.0000142222187616,0.00010838007459228408
-0.2648099834565073,-0.2648099834565073,0.9998185679435585,0.00013118202295789668
-0.2635168352891924,-0.2635168352891924,0.9999833263970629,0.00010838334252026892
-0.2616404273401713,-0.2616404273401713,1.000147145362553,0.00010847445057163303
-0.260584517440293,-0.260584517440293,0.9999793066014636,0.00010848324033352816
-0.25914242838334756,-0.25914242838334756,1.000018935873632,0.00010846022483260735
-0.25796465498860927,-0.25796465498860927,1.000080763563629,0.00010840481539169538
-0.25596685796626845,-0.25596685796626845,1.0000912359519831,0.00010846694665527968
-0.2541949105274398,-0.2541949105274398,1.00003521271903,0.00010873211994679847
-0.25238323892117476,-0.25238323892117476,0.9999630221436673,0.00011168911585392283
-0.2504049874929478,-0.2504049874929478,0.9999893405728209,0.00010843146531831476
-0.24828700877260418,-0.24828700877260418,0.9999540447044362,0.00011071771696082264
-0.24713757491845173,-0.24713757491845173,1.000060579278011,0.00010831730835711964
-0.2455725308682304,-0.2455725308682304,1.0000122312591377,0.00010841202175211539
-0.24368106889305635,-0.24368106889305635,1.0000030464696184,0.00010852049733991965
-0.24210673668712843,-0.24210673668712843,1.0000366227008741,0.00010832590542265786
-0.2408435570425354,-0.2408435570425354,0.9999155757006072,0.00013614098076822229
-0.23881203011842445,-0.23881203011842445,1.000092255831228,0.00010842645337714081
-0.23680092893482652,-0.23680092893482652,1.0000689848679858,0.00010838352128549067
-0.23548920344619545,-0.23548920344619545,1.00010385870809,0.00013298336788099876
-0.2342059084068751,-0.2342059084068751,0.9999267070117975,0.00010837843050931766
-0.23236327512713614,-0.23236327512713614,1.0001272691743242,0.000108474718100788
-0.23124622222967445,-0.23124622222967445,0.9999056757975637,0.00010851363181159277
-0.22966237138898576,-0.22966237138898576,0.9999959104739364,0.00010837563997267885
-0.2280876197939506,-0.2280876197939506,0.9999603199364671,0.00010845500810672015
-0.22646087605389767,-0.22646087605389767,0.9999402628639069,0.00010876892608302109
-0.22435068691847845,-0.22435068691847845,1.000088722018975,0.00010840883415853986
-0.2224781439319486,-0.2224781439319486,1.0000456749926219,0.00011281412424112976
-0.22063024364470038,-0.22063024364470038,1.000033792857765,0.00011123334260826776
-0.21909056591102855,-0.21909056591102855,1.000040329895446,0.00010843788725328719
-0.21810075963439884,-0.21810075963439884,1.0000592029029227,0.00010829894996608211
-0.21653953779896257,-0.21653953779896257,1.0001470482592258,0.00010843769695498663
-0.215029481833335,-0.215029481833335,0.9999920075668591,0.00010852493919230638
-0.21326288602140267,-0.21326288602140267,1.0000305652109454,0.00010832737689616596
-0.21212892717448995,-0.21212892717448995,1.0001183936789564,0.0001333566885860675
-0.2102730043028714,-0.2102730043028714,0.9999609091473983,0.00010841766796160346
-0.20835656409617515,-0.20835656409617515,0.9998957539464899,0.00010839816654095945
-0.20694296242727434,-0.20694296242727434,0.9999588405542014,0.00013476600765633813
-0.2056806782638887,-0.2056806782638887,0.9998739494985832,0.000108577066297156
-0.20393879604525864,-0.20393879604525864,1.0001194626988714,0.00010847706843963539
-0.20278273672156502,-0.20278273672156502,1.0000464870999748,0.00010845894677801041
-0.2012304507981753,-0.2012304507981753,1.0000239162485174,0.00010847670777678076
-0.19988277295778972,-0.19988277295778972,1.0001365548053598,0.00010841237440036036
-0.19789308333420194,-0.19789308333420194,1.0000037604085965,0.000108466870254936
-0.19633935567981098,-0.19633935567981098,1.000220464989741,0.00010885438081730205
-0.19478053115017246,-0.19478053115017246,1.0000896020408194,0.00010817178011267962
-0.19312298517616,-0.19312298517616,0.9999617996926131,0.00011432111142397156
-0.19158684336289297,-0.19158684336289297,1.000089562624575,0.00011195414903978878
-0.1899423051829217,-0.1899423051829217,0.9999494786509464,0.00010840979561572633
-0.18867232215707191,-0.18867232215707191,1.000159731098209,0.0001083781298128663
-0.18698555674927775,-0.18698555674927775,1.0002664126700338,0.00010849605821638261
-0.18513842207030393,-0.18513842207030393,1.0001026007956,0.00010843210024831348
-0.18367737715889235,-0.18367737715889235,0.9999223202813307,0.00010839543802797851
-0.1821290555439191,-0.1821290555439191,1.000067732975401,0.0001309080120743178
-0.17972559767076746,-0.17972559767076746,1.0001775392132704,0.00010844278967159595
-0.1781746685563121,-0.1781746685563121,1.0001352164075334,0.00010843903506895568
-0.17689062425342855,-0.17689062425342855,0.9999214935183696,0.00013692500726950643
-0.17530708311824128,-0.17530708311824128,0.9999409782012847,0.00010842796391979886
-0.1739762057957705,-0.1739762057957705,1.0001383082054356,0.00010840722193565546
-0.17256432823196519,-0.17256432823196519,1.0000841460715937,0.00010857215571496707
-0.17102206136332826,-0.17102206136332826,0.9998627674963755,0.00010836847228774884
-0.16926193656690885,-0.16926193656690885,0.9999493043494162,0.00010848000056449998
-0.16767633683921304,-0.16767633683921304,1.000244094568766,0.0001089198422980097
-0.16601156945689582,-0.16601156945689582,1.0000528697194402,0.00010814416084632686
-0.16440989646944218,-0.16440989646944218,1.0000945151855287,0.00011580200388631168
-0.16263097272021695,-0.16263097272021695,1.0001101728022732,0.0001128878829680053
-0.16091039710736368,-0.16091039710736368,1.0003267147969717,0.00010843191387171414
-0.15963716725527774,-0.15963716725527774,0.9997937406464306,0.00010837204416001684
-0.15811087385227438,-0.15811087385227438,1.0002179336096344,0.0001084974989719562
-0.1565484592516441,-0.1565484592516441,1.000032852717998,0.00010843540831217354
-0.15483400939265266,-0.15483400939265266,1.0000669105745215,0.00010834065335022721
-0.15343651049479376,-0.15343651049479376,0.9999588096532026,0.0001290714061711659
-0.15121355728188063,-0.15121355728188063,1.000017657953485,0.00010842859393864958
-0.14938184916682076,-0.14938184916682076,0.9999698156000572,0.00010841414137799467
-0.14811498983763158,-0.14811498983763158,0.9999846611639798,0.00013898376069386035
-0.14683517292432952,-0.14683517292432952,1.0001435471124474,0.00010839848679455736
-0.14525127081433312,-0.14525127081433312,0.9999270846480106,0.00010846030475256414
-0.14414768452988938,-0.14414768452988938,1.000091248152484,0.00010855752024662636
-0.1423348314478062,-0.1423348314478062,1.0000649404728217,0.00010838399103975126
-0.14065206082595977,-0.14065206082595977,1.0000276860861141,0.00010845373605890271
-0.13896524781885092,-0.13896524781885092,1.000114497552889,0.000109018045292733
-0.13697822061076295,-0.13697822061076295,1.000049835621247,0.00010815808730252696
-0.13537451066658832,-0.13537451066658832,1.0000410687107681,0.00011734347780476725
-0.13359237230033613,-0.13359237230033613,1.0000956066968756,0.00011400642945694232
-0.13187853872950656,-0.13187853872950656,0.9998936404123977,0.0001084114745787008
-0.13060205102083272,-0.13060205102083272,0.9999685437827767,0.00010838363295560017
-0.1288525798241608,-0.1288525798241608,0.9999922244928745,0.00010847671027977893
-0.12666470807162114,-0.12666470807162114,1.000089080744739,0.00010841115828252961
-0.12525712267670314,-0.12525712267670314,0.999949878550266,0.00012745714284279706
-0.12369064415397588,-0.12369064415397588,0.9999925210425893,0.00010843383083827566
-0.12145194367622025,-0.12145194367622025,1.000082976040122,0.00010845194402881486
-0.12008918823266868,-0.12008918823266868,1.0000728297622288,0.00010844447042096654
-0.1188302656286396,-0.1188302656286396,1.0002286449436344,0.00014113279573609014
-0.11728089077514596,-0.11728089077514596,0.9999883180949632,0.00010848414843085761
