time,time,flux,flux_err
-0.4990847067485447,-0.4990847067485447,1.0001488176133142,0.00010569539288690286
-0.49742262724830655,-0.49742262724830655,0.9999686921320039,0.00010413739688550823
-0.4957609223209147,-0.4957609223209147,1.0001722755290385,0.00010479871404586373
-0.49331721162452596,-0.49331721162452596,1.0001110930765882,0.00010496770044991115
-0.4900556265230989,-0.4900556265230989,0.9999830228641603,0.00010413694410742864
-0.4869392008513387,-0.4869392008513387,0.9999028609141873,0.00010577239612701334
-0.4856391655819607,-0.4856391655819607,1.0000014650286642,0.00010414999946770876
-0.48420670103369046,-0.48420670103369046,0.999915418328303,0.0001041214758105243
-0.48253193206473954,-0.48253193206473954,0.9997663572386001,0.00010464186043537725
-0.4810794241115218,-0.4810794241115218,1.0000143514106414,0.00010565904151494591
-0.47793139861532835,-0.47793139861532835,0.9999032041746059,0.00010413749833142263
-0.4757607196319441,-0.4757607196319441,0.9999248492812969,0.00010412258042871894
-0.4730793967959471,-0.4730793967959471,0.9999648801500276,0.00010414881840688955
-0.4722207745318883,-0.4722207745318883,1.0001456956107715,0.00010412139447080765
-0.47060192631251996,-0.47060192631251996,1.000098622408434,0.00010453069022577008
-0.46853677835679264,-0.46853677835679264,1.0001539819581677,0.00010414786848617166
-0.4644412384135649,-0.4644412384135649,0.9999912480257303,0.00010409990515112986
-0.4632472279117792,-0.4632472279117792,0.9999865570650666,0.00010413013538583616
-0.4610259652174136,-0.4610259652174136,0.99984549303931,0.00010410768854468855
-0.4599750118359225,-0.4599750118359225,0.9999774378611861,0.0001041540350517308
-0.4587440540803073,-0.4587440540803073,1.0001049145207157,0.00010412012506881534
-0.4572851303943025,-0.4572851303943025,0.9999489882643855,0.0001044617331310444
-0.45464562276465587,-0.45464562276465587,0.9999063295864838,0.00010412162027409946
-0.4514648703800049,-0.4514648703800049,1.000010764387705,0.0001040905225785076
-0.4509477506391704,-0.4509477506391704,1.0000572636419591,0.00010417367901716394
-0.4498364739105455,-0.4498364739105455,1.0000840927439405,0.00010411375455797274
-0.4490407375000359,-0.4490407375000359,0.9999911906331528,0.00010416069579439174
-0.44779927316922113,-0.44779927316922113,1.0001311223447928,0.00010415788113532032
-0.4464955682902655,-0.4464955682902655,1.0000007931380444,0.0001055884332393056
-0.4455337792998762,-0.4455337792998762,1.0000091805401528,0.00010414228182867462
-0.4442475654403097,-0.4442475654403097,1.0000496582607037,0.00010603954079967368
-0.44216442793403987,-0.44216442793403987,0.9998274775431536,0.0001052994292681806
-0.44071265353122724,-0.44071265353122724,0.999987850423123,0.00010410878761585571
-0.43857616829773177,-0.43857616829773177,1.0000743277487587,0.00010521977930857665
-0.43795309219349293,-0.43795309219349293,1.000091352906,0.0001041526476162176
-0.43677731558127564,-0.43677731558127564,1.0000842152107023,0.00010411771353872116
-0.43615364886209135,-0.43615364886209135,1.0000002055366222,0.00010414078795164599
-0.433938862256764,-0.433938862256764,0.9998427478383309,0.00010542485513682153
-0.43180368347020703,-0.43180368347020703,0.9999826186207368,0.00010437298615182766
-0.4294006050578901,-0.4294006050578901,0.9999250060257292,0.00010411384449514284
-0.4272838191107439,-0.4272838191107439,0.9999605127477432,0.00010418482488092262
-0.42531112980796026,-0.42531112980796026,0.9999149291081597,0.00010413541053482583
-0.4238968142068188,-0.4238968142068188,0.9999077534863078,0.00010579127302652675
-0.421863206152193,-0.421863206152193,1.0000059211472272,0.00010412700939376847
-0.41831850123853653,-0.41831850123853653,0.9999715285987463,0.0001042337535730039
-0.4154954575358715,-0.4154954575358715,0.9999142929130066,0.00010412472332121734
-0.41384293367664216,-0.41384293367664216,0.9999723423068527,0.00010480329485578525
-0.4116171889247198,-0.4116171889247198,1.0000724971182786,0.00010413473840981272
-0.4084671261094627,-0.4084671261094627,0.9997447752265124,0.00010498904808627808
-0.40543134703475514,-0.40543134703475514,0.9999463260166822,0.0001072787478446914
-0.40337149677943673,-0.40337149677943673,0.9999112344746441,0.00010414640241717216
-0.401961164939712,-0.401961164939712,1.0001391472329988,0.00010413565224705933
-0.4006262187846005,-0.4006262187846005,0.9999681652423622,0.00010464154544982106
-0.39917044885587527,-0.39917044885587527,0.9998945395141827,0.00010568448398712814
-0.3961732427698735,-0.3961732427698735,0.9999147636283301,0.0001041506572957997
-0.39391267066821456,-0.39391267066821456,1.000010983728321,0.00010413882097668216
-0.3911394967261003,-0.3911394967261003,1.000123560614541,0.0001041466408485325
-0.3902437521079264,-0.3902437521079264,1.0000324263188458,0.00010413047470457652
-0.3886676867121423,-0.3886676867121423,0.9998613652481889,0.00010452747332069928
-0.38648611864991833,-0.38648611864991833,0.9999421504856535,0.00010413115465464945
-0.3825255500843923,-0.3825255500843923,1.000089798084433,0.00010411921632826769
-0.3813278093926783,-0.3813278093926783,0.9999714764064965,0.00010414121914811222
-0.3796905069808417,-0.3796905069808417,1.0000401691827843,0.00010410814354079196
-0.377796752814902,-0.377796752814902,0.9999679614133757,0.00010415539978214609
-0.37674318492136083,-0.37674318492136083,0.999974497196152,0.000104110332440916
-0.37546497562580045,-0.37546497562580045,0.9999932569592375,0.00010447518803920444
-0.3712979062736849,-0.3712979062736849,0.9998754043687328,0.00010410430086349562
-0.3688263802381698,-0.3688263802381698,0.9999066665982717,0.0001041357171105674
-0.3684536067004956,-0.3684536067004956,0.9999646084149963,0.00010415539559987947
-0.36707308423428914,-0.36707308423428914,1.0000105442318614,0.00010412082437748636
-0.36653235285921254,-0.36653235285921254,0.9999251789888582,0.00010414258498578915
-0.36529658600120457,-0.36529658600120457,1.0000005913872476,0.0001043404269691392
-0.364373881949723,-0.364373881949723,0.9998722183330981,0.00010558211611873081
-0.36334063815302214,-0.36334063815302214,1.0000689579013406,0.00010414514973484258
-0.3616541427472839,-0.3616541427472839,1.0001159766003676,0.00010436609608907747
-0.3597153923721635,-0.3597153923721635,0.999943296666628,0.00010529877176077727
-0.3583154981788539,-0.3583154981788539,1.00005953104748,0.00010411168850502272
-0.3563027641212102,-0.3563027641212102,0.9998616533266411,0.00010412086501614378
-0.3556852859233913,-0.3556852859233913,0.999913058605658,0.00010414771739178418
-0.3545092176012986,-0.3545092176012986,1.0000165038885658,0.00010411677524191185
-0.35388580883154647,-0.35388580883154647,0.9999896491756571,0.00010413539370526196
-0.3522476025937067,-0.3522476025937067,0.9998877996870836,0.00010710813469740367
-0.35022792884919907,-0.35022792884919907,0.9997553089189906,0.00010428360513979331
-0.3477731854603917,-0.3477731854603917,1.0000452697315787,0.00010409168052788714
-0.3455541108967736,-0.3455541108967736,0.999931114021053,0.00010414092385435633
-0.3432921207197069,-0.3432921207197069,1.0000114862590443,0.00010420512495225743
-0.3418529047688935,-0.3418529047688935,0.9999422395678437,0.00010578397173375302
-0.34034321194558287,-0.34034321194558287,1.0000006176029317,0.00010423775314443752
-0.33838753948148226,-0.33838753948148226,0.9999223952401748,0.00010411835637752885
-0.3362945959852368,-0.3362945959852368,1.000081041044886,0.00010534915875658321
-0.33370389038391296,-0.33370389038391296,0.9998846144414235,0.00010410036526288467
-0.3319311493738496,-0.3319311493738496,1.00010864593696,0.00010483420389271283
-0.32999865648453125,-0.32999865648453125,0.9999065112508848,0.00010412383266257056
-0.3270917491383443,-0.3270917491383443,0.9999762908831105,0.00010414469762756054
-0.3231843010245939,-0.3231843010245939,1.0001077465344892,0.00010574789385211108
-0.32114192467415703,-0.32114192467415703,0.9999405841720328,0.00010502036155092648
-0.31993208410203805,-0.31993208410203805,1.0000398386755411,0.00010413322880457575
-0.3181811484006175,-0.3181811484006175,1.0000570979575167,0.00010619591649773398
-0.3166844136881991,-0.3166844136881991,0.9999557521114644,0.00010570932113264354
-0.31332452223068685,-0.31332452223068685,0.9999660458055997,0.0001041538484897469
-0.3116449497945723,-0.3116449497945723,0.999842107451598,0.00010412700261034825
-0.3088717487102258,-0.3088717487102258,0.9998755079540242,0.00010413385837826838
-0.3079758657389903,-0.3079758657389903,1.000063637796558,0.00010413603668956407
-0.306614170344983,-0.306614170344983,0.9999015171835864,0.00010414289010610709
-0.3047344321232231,-0.3047344321232231,1.0000531532379948,0.00010453079897869613
-0.3016605647979304,-0.3016605647979304,0.9999822651863555,0.00010413636924227958
-0.2991157803247916,-0.2991157803247916,0.999943839406438,0.0001041262788767621
-0.296837073052302,-0.296837073052302,1.0001249714780056,0.00010412414765452586
-0.29543996220236296,-0.29543996220236296,0.9999414195835122,0.00010414542459837449
-0.294207874013955,-0.294207874013955,0.9999470762238512,0.00010411888265182455
-0.292822920337494,-0.292822920337494,0.9999850924906847,0.00010447918644956335
-0.2876332923566224,-0.2876332923566224,0.9999785564729681,0.00010408687790863166
-0.2864140832076373,-0.2864140832076373,0.9999703539309982,0.0001041677643213798
-0.2855816761570168,-0.2855816761570168,0.9998932415790307,0.00010410944510264157
-0.2846133164406638,-0.2846133164406638,1.0000325194891846,0.00010415582506926162
-0.28356586787485866,-0.28356586787485866,0.9999939587460858,0.00010415195297545847
-0.2823509941197699,-0.2823509941197699,1.000161330035627,0.00010560430332672935
-0.28118721633873067,-0.28118721633873067,0.9998032572046267,0.00010411249346296058
-0.2800572934203956,-0.2800572934203956,0.9998780889170401,0.00010436477838099423
-0.27820392221037765,-0.27820392221037765,1.0000117416783314,0.00010526720555059333
-0.27694109137446504,-0.27694109137446504,0.9998463443856856,0.00010413970977576336
-0.27525040134059964,-0.27525040134059964,1.0000539622258882,0.00010409456937076924
-0.2736934100408689,-0.2736934100408689,0.9999078721089945,0.0001041469708753821
-0.2733879248989979,-0.2733879248989979,1.0000027240995926,0.00010415256367234029
-0.2720207484373532,-0.2720207484373532,1.0001316736824077,0.00010411782153025355
-0.2714015810677665,-0.2714015810677665,1.0000935898645769,0.00010549097060727265
-0.26927035786939085,-0.26927035786939085,0.9999798013631711,0.00010412626321418105
-0.26697116017894584,-0.26697116017894584,0.9999536182929847,0.00010429551511037928
-0.264590504620719,-0.264590504620719,0.999875898522441,0.00010410587586830709
-0.2630739096945035,-0.2630739096945035,1.000151536012486,0.00010581291527469493
-0.2610244964947924,-0.2610244964947924,0.9998923673329007,0.00010420908752465006
-0.2594130120240152,-0.2594130120240152,1.0000289399041258,0.00010581580542431711
-0.25770618568494685,-0.25770618568494685,0.9999968145104052,0.00010423406658627847
-0.2555689359884127,-0.2555689359884127,0.9999799110442416,0.00010425175508078524
-0.2528689804013993,-0.2528689804013993,1.0001244840384989,0.00010408364613666082
-0.2505458970234031,-0.2505458970234031,0.9998925502646412,0.00010413102561014649
-0.24893299254836165,-0.24893299254836165,1.0000985734901495,0.00010483959468383652
-0.2469501582956582,-0.2469501582956582,0.9998223787913261,0.00010411849843140236
-0.2432530830759788,-0.2432530830759788,0.9999332615633933,0.00010413962147800547
-0.24017324046508293,-0.24017324046508293,0.9999571327766181,0.0001068281396795263
-0.23839028398506343,-0.23839028398506343,0.9998243757118759,0.00010412679631837929
-0.23664214542513945,-0.23664214542513945,1.0000029837887936,0.00010620782020633846
-0.23507128417986678,-0.23507128417986678,0.9999799503347298,0.00010414172143848716
-0.23245831791864474,-0.23245831791864474,0.9999402781182415,0.00010574411469670605
-0.22973542665713467,-0.22973542665713467,1.000106151649487,0.00010415189701735079
-0.22754111236645258,-0.22754111236645258,1.000044895084779,0.00010500722679639279
-0.22607279789008317,-0.22607279789008317,1.0000421228271343,0.00010417463908939338
-0.22476222643963412,-0.22476222643963412,1.0000849251969193,0.0001041174716038529
-0.223456906768115,-0.223456906768115,1.0001779467467249,0.00010456619991125555
-0.2215770907139813,-0.2215770907139813,0.9998735219733078,0.00010413867138448534
-0.2186265542935871,-0.2186265542935871,0.9997534003790637,0.00010411391088559042
-0.21649164750633645,-0.21649164750633645,1.0002264072972973,0.00010412779035662387
-0.21412501510931178,-0.21412501510931178,1.0000803398914757,0.00010414305090798925
-0.21305571872653672,-0.21305571872653672,0.9999564281412129,0.00010414009059711686
-0.21169714321003993,-0.21169714321003993,1.0000502427066187,0.00010413139234906476
-0.20870595397718716,-0.20870595397718716,1.000107456074317,0.00010443196059758313
-0.2042917686085275,-0.2042917686085275,1.0000589214651776,0.00010414585936077406
-0.20363709637967986,-0.20363709637967986,0.9999143348204415,0.00010412886023833101
-0.20234578488962143,-0.20234578488962143,1.0000020380980392,0.0001041475768398281
-0.2012796289920516,-0.2012796289920516,0.9999889161829175,0.00010415394006031971
-0.20025712340866447,-0.20025712340866447,1.0000193687963985,0.00010555683996070484
-0.19891930216836046,-0.19891930216836046,1.000021017766358,0.0001041258048352287
-0.19791696837055497,-0.19791696837055497,0.9998815390718832,0.0001043868181676394
-0.19610009314492344,-0.19610009314492344,0.9999521131916651,0.00010523167009925868
-0.19467326127269188,-0.19467326127269188,0.9999822523499076,0.00010414807400813098
-0.19312893157984945,-0.19312893157984945,1.0000446520611717,0.00010411033264216055
-0.19157447331526783,-0.19157447331526783,0.9999379788036528,0.00010412339900682149
-0.19112013363555888,-0.19112013363555888,0.9998973537220811,0.00010414531150263869
-0.18975257587298983,-0.18975257587298983,1.0000086858350503,0.00010411340771196611
-0.18934078211605082,-0.18934078211605082,1.000051608855925,0.00010415039079358973
-0.1875105204497231,-0.1875105204497231,0.9999530596729403,0.00010548333411373233
-0.18529215226881207,-0.18529215226881207,0.9998278904402607,0.00010430251469443289
-0.1830051161472511,-0.1830051161472511,0.9998664794337433,0.00010412826768338085
-0.181588095092593,-0.181588095092593,0.9998758221071187,0.00010581443211944224
-0.17993144368592767,-0.17993144368592767,1.0000704961724454,0.00010420053998629842
-0.17819106157985515,-0.17819106157985515,0.999855857570885,0.0001058145138813634
-0.17652993849478663,-0.17652993849478663,1.0001453229669073,0.0001042531099440556
-0.17444418295126524,-0.17444418295126524,1.000069376209964,0.00010412892602026721
-0.1721475736660068,-0.1721475736660068,0.9999726331641275,0.00010426365025702497
-0.16916757570797927,-0.16916757570797927,1.000011569546841,0.00010409756901099674
-0.1673962970089633,-0.1673962970089633,0.9999993501446474,0.00010486412359397227
-0.16525846054501017,-0.16525846054501017,0.9998135505319492,0.0001041179722350069
-0.1619749224591942,-0.1619749224591942,1.0001166591767408,0.00010412995547487377
-0.1590444195724558,-0.1590444195724558,1.0000017251886892,0.00010686270858604591
-0.15672590175454387,-0.15672590175454387,1.0001649846420166,0.00010414090594633436
-0.15523285172821488,-0.15523285172821488,0.9999061517389096,0.00010412715541497809
-0.15329213371587685,-0.15329213371587685,1.000106192275434,0.00010621673622851664
-0.1514556124639057,-0.1514556124639057,0.9999330203507023,0.00010572310750829041
-0.14800027826422593,-0.14800027826422593,0.9999888282979892,0.00010415690358849233
-0.14599900506800623,-0.14599900506800623,0.9999791427254673,0.00010502921289801003
-0.14396402681595646,-0.14396402681595646,1.000137605068185,0.0001041620431474873
-0.1428133994093514,-0.1428133994093514,0.9998816000692777,0.00010410131678021215
-0.14102829043840756,-0.14102829043840756,0.9999317263801633,0.00010458395409939885
-0.13855664710717974,-0.13855664710717974,0.9998733710512864,0.00010615486445911907
-0.1357353536011942,-0.1357353536011942,1.0000098906468824,0.000104116368432201
-0.13422354819995236,-0.13422354819995236,1.0000370519277235,0.00010411831858821597
-0.1324630055562011,-0.1324630055562011,0.9998859272698241,0.00010414165820866858
-0.13099491039974964,-0.13099491039974964,1.0002539057098094,0.00010416766091901936
-0.13016605894954408,-0.13016605894954408,1.0000484926894146,0.00010411372690741158
-0.12872688677016414,-0.12872688677016414,0.9999792698964871,0.00010448442485472503
-0.12417641022038879,-0.12417641022038879,1.000072424451286,0.00010409513057287711
-0.12190281116854748,-0.12190281116854748,0.9999675235064867,0.00010417037714820308
-0.12069171239709249,-0.12069171239709249,0.9998454777280712,0.00010411489766340362
-0.11983254093283904,-0.11983254093283904,1.000118975416029,0.00010415511708793853
-0.11825457776867551,-0.11825457776867551,0.9999708101382117,0.00010416873472009788
-0.11712790707897511,-0.11712790707897511,0.9998906016795243,0.00010547637977684314
-0.11588959015352884,-0.11588959015352884,0.9999555731403529,0.0001043948204218842
-0.11383201171047404,-0.11383201171047404,1.0000218216371692,0.00010521590616743215
-0.11240805523411837,-0.11240805523411837,0.9999288920473068,0.00010414714052679776
-0.11071368109551258,-0.11071368109551258,1.0000675740219098,0.00010409600078630894
-0.10915151292720111,-0.10915151292720111,0.9999372233595466,0.00010415802926095064
-0.10830192680223263,-0.10830192680223263,0.999954248727342,0.0001041225870294637
-0.10732468397909542,-0.10732468397909542,1.0000150915811004,0.00010414504968652234
-0.10670064623554935,-0.10670064623554935,0.9999908053525697,0.00010414694643503905
-0.10477473493010621,-0.10477473493010621,1.000088394786191,0.0001041314174656464
-0.10302391924633411,-0.10302391924633411,1.0000928580790363,0.00010431954509226764
-0.10116344702764764,-0.10116344702764764,0.9998875441922589,0.00010412591845944303
-0.09982795213945792,-0.09982795213945792,1.0000727461903327,0.00010551683846051627
-0.09853831348518724,-0.09853831348518724,0.9999961871921966,0.00010581045105627748
-0.09648925024812342,-0.09648925024812342,1.0000586228782093,0.00010421841770588489
-0.09487788691694732,-0.09487788691694732,1.0000088641834548,0.00010581501210370824
-0.09314210871016257,-0.09314210871016257,0.9999289493378161,0.00010424691804867005
-0.09181278635296622,-0.09181278635296622,1.0000613732514578,0.00010412393635163737
-0.08951117898250231,-0.08951117898250231,1.000062503142439,0.00010426119159153028
-0.08641954649283434,-0.08641954649283434,0.9999721578189529,0.00010412083392099085
-0.08439784030269948,-0.08439784030269948,0.9999873701373486,0.00010486793012528397
-0.0822676895368204,-0.0822676895368204,1.0000579457274184,0.00010414941130131975
-0.07940155815595062,-0.07940155815595062,0.9999376215894848,0.00010411456476937173
-0.07695955613889964,-0.07695955613889964,1.000204262236767,0.00010573519526769777
-0.07445815638566274,-0.07445815638566274,0.9999350458982965,0.00010413084833055495
-0.07309052705386421,-0.07309052705386421,0.9999432671039825,0.0001052748853496761
-0.07102458009903785,-0.07102458009903785,0.9999389895721688,0.0001062098895007653
-0.06926723428114201,-0.06926723428114201,1.0001127285003304,0.00010574275817254236
-0.06612083303625696,-0.06612083303625696,1.000124707641335,0.00010414642004698874
-0.064170258968079,-0.064170258968079,0.9998567328434858,0.00010506269114134558
-0.06169677748985123,-0.06169677748985123,1.0000322400842694,0.00010415179010464782
-0.06050664588183281,-0.06050664588183281,0.9999315834959954,0.00010410649003065274
-0.058760921076464,-0.058760921076464,0.9997991833802701,0.00010458945878548379
-0.05557000343396794,-0.05557000343396794,1.000087329877258,0.00010412818624910352
-0.05259950697873137,-0.05259950697873137,1.0000141083775893,0.00010411255225475097
-0.050845122469763734,-0.050845122469763734,0.9999511811022662,0.00010413025401298174
