time,time,flux,flux_err
-0.4990443962572802,-0.4990443962572802,1.0004227513146153,0.0004239309236567702
-0.4971751951209929,-0.4971751951209929,1.0005041752873405,0.0003762809678570007
-0.49523269403774367,-0.49523269403774367,0.9997608205306415,0.00039750955917384426
-0.4931524062063545,-0.4931524062063545,1.0003211867985864,0.0003153207990780973
-0.49098730040132066,-0.49098730040132066,0.999697784542638,0.0003141587955734625
-0.4895355399290565,-0.4895355399290565,0.999910436209564,0.000318562982257713
-0.4880566127423663,-0.4880566127423663,0.9998717057053161,0.0003257312404369643
-0.4867287891800515,-0.4867287891800515,1.000638568294303,0.00031356384357135415
-0.485516483898391,-0.485516483898391,0.9996589690627937,0.000338087500132619
-0.48429833455302285,-0.48429833455302285,0.9998191051599308,0.0003236007516058268
-0.4831740842288127,-0.4831740842288127,1.0000424269391393,0.00037347590132031175
-0.48169861891074106,-0.48169861891074106,0.999864599292747,0.0004084628380246813
-0.4799546458030818,-0.4799546458030818,1.0005465774262865,0.00037501030691219136
-0.4784270851436304,-0.4784270851436304,0.9998935377049941,0.0003153504864396669
-0.47670149579353166,-0.47670149579353166,0.9997798836744852,0.00031686746060280354
-0.47505641825846395,-0.47505641825846395,1.0001710848446947,0.0003138892346537473
-0.47360026426031254,-0.47360026426031254,0.999849124777368,0.00031752687474362437
-0.4717913329135627,-0.4717913329135627,0.9998078169962664,0.00032313283607074016
-0.4702336666348856,-0.4702336666348856,1.000239784496809,0.00033543015595921424
-0.46869870921946133,-0.46869870921946133,1.000464337798297,0.0003135256154905762
-0.46739710329275114,-0.46739710329275114,1.0001919594152395,0.0003773040376757824
-0.46519610261602795,-0.46519610261602795,0.9996635795809888,0.0003590010244588382
-0.4634798599843634,-0.4634798599843634,0.9996420505454976,0.00032271497175933596
-0.4621261208143551,-0.4621261208143551,1.0004416294098069,0.00031768075135311463
-0.46035613952553833,-0.46035613952553833,0.999462357480488,0.0003163579747385789
-0.4584607855707873,-0.4584607855707873,0.9999566462073396,0.0003140998529046186
-0.45658646228839644,-0.45658646228839644,0.9998211481940752,0.0003211916208504354
-0.45479150297760496,-0.45479150297760496,0.9995610096179343,0.0003315661076476128
-0.45349345322174484,-0.45349345322174484,0.9998150549753084,0.0003137393631799406
-0.452144998832955,-0.452144998832955,1.000357526743013,0.0003651954756995775
-0.45001059531059584,-0.45001059531059584,0.9998110091199255,0.00034954303805430256
-0.448263742213021,-0.448263742213021,1.0006694140378474,0.00032021270846273824
-0.4466349578811787,-0.4466349578811787,0.9998228174854191,0.00038221393586226486
-0.44475510518532246,-0.44475510518532246,1.0000060496142509,0.0003139298386250933
-0.44271685406856703,-0.44271685406856703,1.0001580397067742,0.0003141517721848064
-0.44131639405095485,-0.44131639405095485,0.9996926068714187,0.0003200372999502711
-0.43954184585018086,-0.43954184585018086,1.0000666783947547,0.00032704017130581574
-0.43837473100284113,-0.43837473100284113,1.0002329781682873,0.0003136270436905458
-0.4373204593197443,-0.4373204593197443,1.0001175395199637,0.0003411568554639703
-0.43584649097174405,-0.43584649097174405,0.9996040579837361,0.0003258233239527515
-0.4343976219766773,-0.4343976219766773,0.9996159777407317,0.0004126493459921246
-0.4326471835956909,-0.4326471835956909,0.9999582322013045,0.0003141764875288441
-0.43071648851037025,-0.43071648851037025,0.9998631722937625,0.0003718042849442257
-0.42873262735956813,-0.42873262735956813,1.0002206659064299,0.00031705558752272844
-0.42695798409404234,-0.42695798409404234,1.0002120374752845,0.00031380556176217276
-0.4258486980193993,-0.4258486980193993,1.0004274018857238,0.00031795148602144354
-0.4240355742542306,-0.4240355742542306,0.9996376957679395,0.00032494987448538926
-0.422979555677739,-0.422979555677739,0.9999262251252716,0.0003139122071446462
-0.4218623198394198,-0.4218623198394198,1.0002383029666384,0.0003459081095464931
-0.42057237253757196,-0.42057237253757196,0.9996193551701842,0.0003135516860696779
-0.41958238047955093,-0.41958238047955093,0.9997445422715074,0.0003862170249999207
-0.41773426519939677,-0.41773426519939677,0.999832619344517,0.00038688818596154786
-0.4159890396287665,-0.4159890396287665,0.9995872785522424,0.0003736072935094193
-0.41435434690793044,-0.41435434690793044,1.000057465322747,0.00031405783725357834
-0.41285048058780377,-0.41285048058780377,1.0000670655769222,0.0003165117158460982
-0.4111899326584535,-0.4111899326584535,0.9996957652026346,0.00031373038331501603
-0.4094481164735043,-0.4094481164735043,0.9995968657921953,0.0003176787500133465
-0.40788404432532843,-0.40788404432532843,1.0002423828271845,0.0003225438662016462
-0.4062881504709367,-0.4062881504709367,1.000314619076542,0.0003343151982643703
-0.4050470875808969,-0.4050470875808969,0.9999227973381627,0.0003590602583154828
-0.4032275896781357,-0.4032275896781357,0.999717137628901,0.00033036856289360726
-0.4011189812881639,-0.4011189812881639,1.000723724574485,0.00036269252946725727
-0.39966544685594274,-0.39966544685594274,0.9994344560581817,0.0003184333016044262
-0.397867308856803,-0.397867308856803,1.0000192881085592,0.0003165186058389341
-0.3960054580529686,-0.3960054580529686,1.0000121208707458,0.00031386751613210825
-0.3940365048998501,-0.3940365048998501,1.000141170825891,0.00031415585093934003
-0.3926731041225139,-0.3926731041225139,0.9998698781704439,0.00032062472360844447
-0.39115646841819396,-0.39115646841819396,1.0000201749701954,0.0003296924828655012
-0.39002144535188565,-0.39002144535188565,1.000214192022254,0.0003165358754614887
-0.3887054303952027,-0.3887054303952027,0.9999774038596152,0.0003590051660640887
-0.3870298732130323,-0.3870298732130323,0.9998750428559451,0.00031367110789230535
-0.38552938735520004,-0.38552938735520004,0.999898594224922,0.000352271264094815
-0.3839924883592175,-0.3839924883592175,1.0005660336104483,0.00037613858511208095
-0.3824053764925338,-0.3824053764925338,1.000021089484047,0.00031577980642644247
-0.3803570089890854,-0.3803570089890854,1.000373305353418,0.00031396849553376937
-0.37833088327315634,-0.37833088327315634,1.0003124631036027,0.00031386233883317244
-0.3770907021156745,-0.3770907021156745,0.9998974432035219,0.00032029415053477886
-0.37547282842569984,-0.37547282842569984,0.9997688878517778,0.0003252727204730256
-0.3744140217459062,-0.3744140217459062,0.9996111485320206,0.0003392046870000208
-0.37317771585949233,-0.37317771585949233,1.0004949180821077,0.00032503431674138044
-0.37198506428685507,-0.37198506428685507,1.0001732216282773,0.00038100899929589035
-0.37023028001131025,-0.37023028001131025,0.9996054578553715,0.00034023497764355625
-0.3681736409431323,-0.3681736409431323,0.9999086619086244,0.0003708305506120058
-0.36625647835608105,-0.36625647835608105,0.9997894027325345,0.0003139967608869014
-0.3647444226022344,-0.3647444226022344,0.9997490246158638,0.0003170638637721408
-0.3631491824256955,-0.3631491824256955,0.9994861328650361,0.00031365775148155657
-0.36183635527268054,-0.36183635527268054,0.9998661563451892,0.0003181834448856715
-0.3602234082383802,-0.3602234082383802,0.9999676184421359,0.00032367530442907363
-0.3588843701320002,-0.3588843701320002,1.0001169748690972,0.00033610956762397155
-0.3578963768843096,-0.3578963768843096,0.9999010293737172,0.0003234349961821354
-0.35698322343232575,-0.35698322343232575,0.9999302055271405,0.0003635389742137259
-0.3551725079189055,-0.3551725079189055,0.9999096974367252,0.0003989217915400415
-0.35338638930697924,-0.35338638930697924,1.000129459573548,0.00036987937155186874
-0.35183570378576406,-0.35183570378576406,1.0000069693115998,0.00031503806340069926
-0.3501128961972427,-0.3501128961972427,1.0000439911368189,0.00031652233407050863
-0.3481643646693556,-0.3481643646693556,1.0002373470789196,0.0003139314163825466
-0.34660107470699586,-0.34660107470699586,0.9999535652549497,0.0003173036258131816
-0.34520006247621493,-0.34520006247621493,1.0000687371976091,0.0003218142752917486
-0.3435974439693382,-0.3435974439693382,0.999999951524039,0.00033371071936203487
-0.34214560220425483,-0.34214560220425483,0.9996942779053868,0.0003136169485201196
-0.3407780937501229,-0.3407780937501229,0.9997639081254313,0.00037024396898740596
-0.3386161763337441,-0.3386161763337441,0.99979877988037,0.00035337528884803453
-0.3368769540800713,-0.3368769540800713,1.0001890043199382,0.0003213271191473134
-0.3350679781899089,-0.3350679781899089,0.9997640495364472,0.00031601852962840927
-0.33298949572781567,-0.33298949572781567,0.999654259314503,0.0003136659862603737
-0.3316035105584888,-0.3316035105584888,1.0004937888515328,0.00031458426352924646
-0.32999600980838295,-0.32999600980838295,1.0001429400368955,0.0003205907565016477
-0.3284311602881644,-0.3284311602881644,1.0000979948101496,0.0003285916396555928
-0.32714595103170724,-0.32714595103170724,0.9999358677615519,0.00031342353921582977
-0.32595948337111624,-0.32595948337111624,0.9997004392178568,0.00034553759082789527
-0.3244422091287561,-0.3244422091287561,0.9997553191777264,0.00032677153835588033
-0.32301771167549304,-0.32301771167549304,0.999496688283591,0.00042041768632082485
-0.32143121357948984,-0.32143121357948984,0.9996029406415395,0.00031436471040645873
-0.3196682274399791,-0.3196682274399791,0.9995374980564875,0.000374583046295513
-0.31755910083302297,-0.31755910083302297,1.0003048361216365,0.0003138962223125458
-0.315306946579949,-0.315306946579949,1.0000730448583195,0.00031384745943917184
-0.31413943877851125,-0.31413943877851125,0.9999098557349944,0.00031904488794467687
-0.31240078288246875,-0.31240078288246875,0.9999194838474047,0.00032550026151081354
-0.3113547691056738,-0.3113547691056738,1.0000436275326652,0.00031563254020162377
-0.31019404305843634,-0.31019404305843634,1.00029327180454,0.00034611481721763396
-0.30889440232422205,-0.30889440232422205,0.9993994651515091,0.00037511901287555255
-0.30733627165900546,-0.30733627165900546,0.9999943857539705,0.0003384992055432063
-0.30565221489814576,-0.30565221489814576,1.0006422560917325,0.00043496422335592363
-0.30374545039376244,-0.30374545039376244,0.9997131779620574,0.00031529974307805623
-0.30201926816662306,-0.30201926816662306,0.9998704142377672,0.00031700244904962576
-0.3003732715325896,-0.3003732715325896,1.000177746438237,0.00031394628684049716
-0.29892007947782984,-0.29892007947782984,1.0000876718916172,0.0003176568445085537
-0.29710964210971724,-0.29710964210971724,1.000156872886512,0.00032342033729714024
-0.29557242037262765,-0.29557242037262765,1.0001855477305315,0.00031552270043584376
-0.2945384096208727,-0.2945384096208727,1.0001856857325968,0.0003424929604182256
-0.2931960555462865,-0.2931960555462865,0.999816253975301,0.00037605376785578693
-0.29088376557047013,-0.29088376557047013,0.9999423554211917,0.0003139118160491546
-0.2891245460516075,-0.2891245460516075,0.999932944187582,0.0003680603187592126
-0.28765301772218665,-0.28765301772218665,0.9999784924969294,0.00031787941923915996
-0.2860762435477227,-0.2860762435477227,0.9999677698568086,0.000316667296275268
-0.28438815846457144,-0.28438815846457144,1.0002496006572903,0.0003174193825573983
-0.282432850409532,-0.282432850409532,0.9998593373441931,0.000321656021859039
-0.28094191939453594,-0.28094191939453594,1.0001905584629278,0.0003149797274144796
-0.2794452973466832,-0.2794452973466832,1.0000063798795202,0.0003310866371883188
-0.2781776007119333,-0.2781776007119333,0.9998743576854429,0.000353786414325708
-0.2761652895249426,-0.2761652895249426,0.999749568214793,0.0003284094974834907
-0.2742247639107518,-0.2742247639107518,0.9997459079036652,0.0003563873663727744
-0.27281489240413065,-0.27281489240413065,0.9998119745418365,0.00041189711356038033
-0.2708652387926122,-0.2708652387926122,1.0000572999380108,0.0003161226606731956
-0.2691879462945508,-0.2691879462945508,0.999943495455291,0.0003140689535468096
-0.26720954840711786,-0.26720954840711786,0.9998047402086419,0.00031399356685971427
-0.26605996944126675,-0.26605996944126675,0.9999110281356165,0.00032021222667097415
-0.2642969463748159,-0.2642969463748159,1.0005378296883385,0.000327119338715413
-0.2631689004658256,-0.2631689004658256,1.0000894801375668,0.00034213928412008346
-0.2617736788408365,-0.2617736788408365,1.0005418978373009,0.00032628759804768096
-0.26039552873990035,-0.26039552873990035,0.9999981025194355,0.0003872731421128796
-0.25868088433053343,-0.25868088433053343,0.9994106541745733,0.00034754106818725395
-0.2567903336894233,-0.2567903336894233,0.9995447357024455,0.0003720133714573084
-0.2548198982491158,-0.2548198982491158,0.9996184658760676,0.0003136592655387606
-0.2529817922768416,-0.2529817922768416,0.9998011224191486,0.00031758025280822876
-0.2515655587107176,-0.2515655587107176,1.0003532023506068,0.0003136735367554929
-0.25006464787875304,-0.25006464787875304,0.9997190037019246,0.00032979764997672137
-0.24876846100669353,-0.24876846100669353,0.999472232712799,0.0003134470257490478
-0.2475252874981379,-0.2475252874981379,0.9998977345829326,0.0003375540726049238
-0.24633395089185797,-0.24633395089185797,1.0001524222438403,0.00032348399265288785
-0.24518314463202842,-0.24518314463202842,1.0004762808710068,0.00037027570163320275
-0.24337442141259089,-0.24337442141259089,0.9995843821948845,0.00040593005790054177
-0.24165015152830166,-0.24165015152830166,0.999694800067078,0.00037395357062496324
-0.24003934091015253,-0.24003934091015253,1.0002106187438309,0.0003149282519965925
-0.23846312300593125,-0.23846312300593125,1.0004333653927038,0.0003166390571335107
-0.23677691525081174,-0.23677691525081174,1.0000794253432834,0.0003140983060628535
-0.23521690829948055,-0.23521690829948055,1.0001981624363003,0.00031780805253330766
-0.2334993386582937,-0.2334993386582937,1.0001086065726952,0.0003225528715966147
-0.2319132599310251,-0.2319132599310251,0.9996373857815464,0.00033455428535737774
-0.23056548639433458,-0.23056548639433458,1.0000264739267388,0.00031700431672548174
-0.22898007845506071,-0.22898007845506071,0.9995657986256532,0.0003724802325449894
-0.22681867734645494,-0.22681867734645494,0.9997403153164944,0.00036369418643675657
-0.22524513376993127,-0.22524513376993127,0.9996662064825985,0.00031479434981805947
-0.22382051038730424,-0.22382051038730424,0.999476125532949,0.00032011380856028233
-0.2219904613593826,-0.2219904613593826,0.9999499439353918,0.00031415071274343314
-0.22004368945490568,-0.22004368945490568,0.9999046715233302,0.00031432181231279104
-0.21831301116617396,-0.21831301116617396,1.0001519773080303,0.0003209189490090688
-0.21676156479807104,-0.21676156479807104,1.0003320723178308,0.00033035131969903265
-0.21552595215907785,-0.21552595215907785,1.0008611156709937,0.0003138731533614258
-0.2143708837858867,-0.2143708837858867,1.0003897122299261,0.0003626940909374828
-0.21241337943065447,-0.21241337943065447,0.9995251485291391,0.00031381498055641714
-0.21084816034999676,-0.21084816034999676,0.9998837888607823,0.0003535085968567997
-0.20930657160060945,-0.20930657160060945,0.9997618083132874,0.00037769748702537486
-0.2075682796537876,-0.2075682796537876,0.9997652006657682,0.000315913927474698
-0.20562267677451018,-0.20562267677451018,1.0001890587584095,0.00031423243278156504
-0.20364648622926323,-0.20364648622926323,1.0004362110496754,0.00031391112290660026
-0.20241484918515198,-0.20241484918515198,0.9998667177518744,0.0003205350285622123
-0.20078464634425472,-0.20078464634425472,1.0002444090980205,0.00032560013427439895
-0.19973887390224263,-0.19973887390224263,0.999804238539755,0.0003396353915565419
-0.19849000860122032,-0.19849000860122032,1.0002858444040732,0.00032536857467321963
-0.19709459735022392,-0.19709459735022392,0.9996928503138681,0.00038275865397889645
-0.19516913706902414,-0.19516913706902414,0.9998939507167275,0.000341463633347667
-0.193072210799437,-0.193072210799437,1.0000238837312518,0.000371278644474497
-0.19124358781264164,-0.19124358781264164,0.999683701184401,0.00031367426345755114
-0.18998340232938063,-0.18998340232938063,1.0000661969640678,0.00031718441979335625
-0.1884645894751884,-0.1884645894751884,1.0001016582973516,0.000313756626481142
-0.1871603119332576,-0.1871603119332576,0.9999031830059412,0.0003183387238844336
-0.18563519910967444,-0.18563519910967444,0.9997054439892175,0.00032387883895589287
-0.18447820246219634,-0.18447820246219634,1.0001325715957443,0.0003363739381563574
-0.183384437955101,-0.183384437955101,1.0003115025929052,0.0003233078216880796
-0.18230168501031585,-0.18230168501031585,0.9997009974307725,0.0003651397883284237
-0.18049161629460286,-0.18049161629460286,1.0001080551465018,0.0004012270010774857
-0.17869999366230332,-0.17869999366230332,1.0003194699249,0.0003709482425751411
-0.17715391411911696,-0.17715391411911696,1.0001792774588156,0.0003151291100871361
-0.17543057562143077,-0.17543057562143077,0.9997480848282697,0.00031664209995550677
-0.1734821986290626,-0.1734821986290626,0.999285184991162,0.0003139553406172144
-0.17192282874602824,-0.17192282874602824,0.9997566034415322,0.0003174078526590045
-0.17051827980903908,-0.17051827980903908,0.9999655668581156,0.00032211983303425285
-0.16892464444681538,-0.16892464444681538,1.0000276131125927,0.00033415569789443174
-0.1674561605177587,-0.1674561605177587,0.999875856574198,0.0003135952352100048
-0.16610187042679173,-0.16610187042679173,0.999860027308055,0.0003716824441784337
-0.16393211245595013,-0.16393211245595013,0.9997844979114101,0.0003545318164391567
-0.16219747880240903,-0.16219747880240903,0.9999783027419449,0.0003215179848252018
-0.16038459723931736,-0.16038459723931736,1.000117748247614,0.00031611771978719077
-0.15830255069886334,-0.15830255069886334,1.000117232859742,0.00031361629408734775
-0.1562995762214996,-0.1562995762214996,1.0002019862994462,0.00031425567473927936
-0.15469881422177423,-0.15469881422177423,0.9997676623192323,0.0003205363212705641
-0.15317813687724993,-0.15317813687724993,1.0001687403123785,0.0003288721037940332
-0.1520435570506379,-0.1520435570506379,1.0001647131179847,0.000316359416213843
-0.15072649279609324,-0.15072649279609324,0.9998835073190417,0.00035672307803756397
-0.1490577095624758,-0.1490577095624758,0.9999556036774578,0.0003137572159833481
-0.1472995625459589,-0.1472995625459589,1.0003974231216939,0.0003510720184893246
-0.1457349453412462,-0.1457349453412462,0.9995915733986921,0.00037401464715671275
-0.14378166403621434,-0.14378166403621434,0.9994643609640473,0.0003153085978978351
-0.14143593554617837,-0.14143593554617837,0.9999793095053624,0.0003141713190575995
-0.14004304875270462,-0.14004304875270462,0.9999557343767943,0.000319099424810623
-0.13824845529161395,-0.13824845529161395,0.999585321128891,0.0003260655419251439
-0.13713296704227104,-0.13713296704227104,1.0004929450106703,0.00031375479746182175
-0.13601898430788423,-0.13601898430788423,1.0000052414968104,0.0003384461312388101
-0.134599625368719,-0.134599625368719,0.9996766425342818,0.0003243422871147763
-0.1334722398343729,-0.1334722398343729,0.999662637005503,0.00039869891472953995
-0.13167382623651064,-0.13167382623651064,0.9999981623017582,0.0003911902088842115
-0.13019511512247844,-0.13019511512247844,0.9998173154404771,0.0003699721315419572
-0.12828083868371323,-0.12828083868371323,1.0002588272195876,0.0003140214761111075
-0.12677085213945247,-0.12677085213945247,1.0000339709085229,0.00031698396569040195
-0.12511180068540853,-0.12511180068540853,0.999903279555349,0.0003138232163857167
-0.12342022451921367,-0.12342022451921367,1.0002812033947965,0.0003279532498254718
-0.12199492246727459,-0.12199492246727459,1.0000922991940313,0.0003135172836502537
-0.12075432487763464,-0.12075432487763464,1.0006378327658616,0.00033573292643184844
-0.11957969976647291,-0.11957969976647291,0.9995312724518856,0.0003228596687747286
-0.11845848569646478,-0.11845848569646478,0.9997499614544074,0.0003779041443622331
-0.11619941279059276,-0.11619941279059276,1.000076493132967,0.00031388495570303706
