time,time,flux,flux_err
-0.4995176242227899,-0.4995176242227899,1.0000575602320896,0.00015711804990785049
-0.49741001823713304,-0.49741001823713304,1.0001935232004993,0.0001571292564173703
-0.4953670140384929,-0.4953670140384929,0.9999005467901213,0.00015713872659556917
-0.49358423457306344,-0.49358423457306344,0.9997475096683747,0.0001440240805029856
-0.49264628660166637,-0.49264628660166637,1.0001177099086282,0.00014341466110792962
-0.49134819255559703,-0.49134819255559703,0.9999113445212275,0.0001435122690634913
-0.48985907337337264,-0.48985907337337264,1.0002463408422393,0.00014342174750843863
-0.488972898805514,-0.488972898805514,0.999970312839511,0.0001435214873682711
-0.4872364570357604,-0.4872364570357604,1.000019667043258,0.00014350747054007164
-0.4856238259962993,-0.4856238259962993,1.0000666946171635,0.000143418301547095
-0.48397831044567285,-0.48397831044567285,0.9999178030908806,0.0001434680398635996
-0.4827168426185381,-0.4827168426185381,0.9999701973895746,0.00014482202929823925
-0.4816109548526583,-0.4816109548526583,1.0001246969791235,0.00014477607236916258
-0.48047990568738896,-0.48047990568738896,0.9999457199350583,0.00014344765702547986
-0.4789503004401922,-0.4789503004401922,1.0000012833571523,0.00014341152925262426
-0.4775626564252889,-0.4775626564252889,0.9998166224061549,0.00014675090967699054
-0.4759454123035539,-0.4759454123035539,0.9999235242354377,0.0001434613179719148
-0.4742761688597966,-0.4742761688597966,1.000049571133321,0.0001434072387485234
-0.4724981753504835,-0.4724981753504835,1.0002508827696184,0.00014350460952655062
-0.4710946497769328,-0.4710946497769328,1.000094828144515,0.00014349727045562792
-0.4700733566103736,-0.4700733566103736,0.9998401016349311,0.00014378163410963654
-0.46841389931505545,-0.46841389931505545,0.9999466966245636,0.00014349043936923888
-0.46716159425268416,-0.46716159425268416,0.9999298229351181,0.0001434416729777533
-0.46591714631940706,-0.46591714631940706,0.9998586589159061,0.0001435262154461832
-0.46410788495559246,-0.46410788495559246,1.000143478644072,0.00014341663632810807
-0.4622904715593904,-0.4622904715593904,1.0001327646472862,0.00014345616787853012
-0.46090039835544305,-0.46090039835544305,0.9998065635019249,0.0001434299907327995
-0.4594322789955186,-0.4594322789955186,0.9999102627417417,0.0001434425100459083
-0.4583416422014125,-0.4583416422014125,1.0003187319675757,0.00014442908710340577
-0.45712083017861005,-0.45712083017861005,1.0001209303306544,0.00014342741472945405
-0.45558772344666065,-0.45558772344666065,1.0000686266672685,0.00014343649237463584
-0.45421148483874274,-0.45421148483874274,1.0000042004610648,0.00014927457822788717
-0.4526187722018221,-0.4526187722018221,1.0001619145598908,0.00014347854953133905
-0.45120981154905165,-0.45120981154905165,1.000002822252697,0.0001434174211595846
-0.44944073985388966,-0.44944073985388966,0.999971149909201,0.00014348867457398615
-0.4480312161962502,-0.4480312161962502,1.000030229609034,0.00014348311621282682
-0.4470015468134079,-0.4470015468134079,1.0000746781255327,0.00014349049375777704
-0.4453470079926774,-0.4453470079926774,1.0000772625344272,0.00014348792764049556
-0.4438888454606058,-0.4438888454606058,0.9999603352176587,0.00014350323862704075
-0.4427056360989809,-0.4427056360989809,1.0000354391786437,0.00014344306953911862
-0.4410436602163827,-0.4410436602163827,1.0000595591333508,0.00014341555378609232
-0.4396031934709754,-0.4396031934709754,0.9998522140264015,0.00014344087284021755
-0.43812507306283804,-0.43812507306283804,1.0002349642087498,0.00014344964474940065
-0.43663277497398667,-0.43663277497398667,1.0000174904538397,0.00014343636164610636
-0.4354464011412347,-0.4354464011412347,1.0000163278357974,0.0001441969819166154
-0.4343744719575625,-0.4343744719575625,1.0001884309103908,0.00014347044769309
-0.43293517165002415,-0.43293517165002415,0.9998588577705168,0.00014348385501071183
-0.4318339627381647,-0.4318339627381647,1.000363999290643,0.00015327701210860405
-0.43025331870885564,-0.43025331870885564,0.9999057607691817,0.00014342704829380272
-0.4285308020422235,-0.4285308020422235,1.0000862462267026,0.00014345829414825196
-0.42732891121704597,-0.42732891121704597,0.9999192067010638,0.00014372792591743128
-0.4259217883984093,-0.4259217883984093,1.0001907829106362,0.00014347974933293453
-0.4244333892449504,-0.4244333892449504,1.0001260399672243,0.00014352434938181077
-0.4232202900428092,-0.4232202900428092,0.9999142424029829,0.0001434342582054308
-0.4219554833834991,-0.4219554833834991,1.0001373596721554,0.00014353027527680857
-0.4201546248310478,-0.4201546248310478,1.0001201764676835,0.00014349371988237435
-0.41870009977719747,-0.41870009977719747,0.9999141775038998,0.0001434198652060309
-0.41719599552452563,-0.41719599552452563,0.9999225433264692,0.0001434342900170223
-0.4155945527221775,-0.4155945527221775,1.0000532991518012,0.00014346579998851725
-0.41443189666897523,-0.41443189666897523,0.9999502204610801,0.00014625953876190958
-0.41307027203729374,-0.41307027203729374,1.0000921060390036,0.00014343812692282765
-0.4119458154658787,-0.4119458154658787,1.0000077011827124,0.00014401724076166495
-0.41073142176028343,-0.41073142176028343,0.9998962151216384,0.0001437500537376898
-0.40946047750185244,-0.40946047750185244,0.9998729985370305,0.00014340550837082272
-0.40803588901180776,-0.40803588901180776,0.9997143190374551,0.00014345208845142755
-0.4064843061263673,-0.4064843061263673,1.0000083865524616,0.0001434778588144236
-0.4051044562453171,-0.4051044562453171,0.9999391672901666,0.00014410073752215105
-0.40369269652874207,-0.40369269652874207,0.9998612242819682,0.00014459356084213325
-0.40258429385139605,-0.40258429385139605,0.9996900596385905,0.0001433804503132582
-0.40119242829969154,-0.40119242829969154,0.9998174428710727,0.00014351136532805912
-0.3997556456393795,-0.3997556456393795,1.000188437892942,0.00014341254192286166
-0.3985496594454162,-0.3985496594454162,1.0001593758820564,0.00014356191137148978
-0.3969467449845979,-0.3969467449845979,0.9999021859529205,0.00014349397827537213
-0.39519616302568467,-0.39519616302568467,1.0002459357432492,0.00014343883159100782
-0.3938565391930752,-0.3938565391930752,1.000085736264011,0.0001434412970574493
-0.3922945132158929,-0.3922945132158929,1.0001450138862156,0.0001434534037181593
-0.3910487436922267,-0.3910487436922267,1.000103722395107,0.00014560000986105264
-0.3896978486329317,-0.3896978486329317,1.0000278583149984,0.00014382605929918758
-0.3882704132178333,-0.3882704132178333,0.9999951413344454,0.000143469418149102
-0.38684857077605556,-0.38684857077605556,0.9998401805164425,0.0001441964741730953
-0.38564509541611186,-0.38564509541611186,0.9999644647143822,0.00014342749642335713
-0.3841358019650215,-0.3841358019650215,0.999794555256375,0.000143430397529554
-0.38234451999596786,-0.38234451999596786,0.9998901971074485,0.0001434862092531568
-0.38087512539641466,-0.38087512539641466,1.0001250033918667,0.00014467306276631558
-0.379953331706929,-0.379953331706929,0.9998217216573494,0.00014424897762999934
-0.3784812062425772,-0.3784812062425772,0.9998173380768938,0.0001434515081998539
-0.37741720673511736,-0.37741720673511736,0.9999392655093196,0.00014340267645797286
-0.376057107525412,-0.376057107525412,0.9998091774884357,0.0001434968130808874
-0.37429284992686007,-0.37429284992686007,0.9999737071800849,0.0001434925596072389
-0.3728596378845396,-0.3728596378845396,0.9999984731270517,0.00014345403011298082
-0.3710649929998908,-0.3710649929998908,0.9997756130327016,0.00014342122810477904
-0.36949978994671256,-0.36949978994671256,0.9997934014351986,0.00014344231093744346
-0.3682556375832064,-0.3682556375832064,0.999878127287438,0.00014510577786331348
-0.366924398849369,-0.366924398849369,1.0001311994910032,0.00014342993934681698
-0.36545113097527065,-0.36545113097527065,0.9999361496446324,0.00014363943191258473
-0.36409608798567206,-0.36409608798567206,1.0001554714545713,0.00014494071209888434
-0.362962971808156,-0.362962971808156,0.9999336067061858,0.00014342056197873433
-0.361221349297557,-0.361221349297557,0.9996966984690381,0.00014343952012703943
-0.35965770329348745,-0.35965770329348745,0.9998370973293638,0.00014346625486381915
-0.357890916231554,-0.357890916231554,1.000026457383715,0.0001434698544532508
-0.35688057784282134,-0.35688057784282134,0.9999329598820641,0.00014402701337827954
-0.35542113544070164,-0.35542113544070164,0.9996097275458432,0.00014344866076079668
-0.35434745654347355,-0.35434745654347355,1.000058587410325,0.00014344507684068656
-0.3530138565169182,-0.3530138565169182,0.9999511787824712,0.00014347555468862343
-0.35165922388550824,-0.35165922388550824,1.0001073271409038,0.00014350651411395137
-0.3502146531071048,-0.3502146531071048,0.9999521437647436,0.00014342978273005065
-0.3482541771343676,-0.3482541771343676,0.9997674651418231,0.00014343367353779872
-0.3467011880304199,-0.3467011880304199,0.9998661032527364,0.0001434526326235838
-0.3455653781304136,-0.3455653781304136,0.9996572968502278,0.00014480217996099405
-0.3444434022414498,-0.3444434022414498,1.0000405929856775,0.00014347240084329693
-0.3429808356828289,-0.3429808356828289,0.9998592072518182,0.0001434297102169538
-0.34162697283318266,-0.34162697283318266,1.0000672678532967,0.00014622942266095279
-0.340103762189392,-0.340103762189392,0.9999861174012701,0.00014345220663167433
-0.338168619107455,-0.338168619107455,0.9996709024654826,0.0001434583222681458
-0.33657798876811285,-0.33657798876811285,0.9998628056936907,0.00014346106130731366
-0.33516687173978427,-0.33516687173978427,0.9997972957593075,0.0001433980639788902
-0.3339462987874867,-0.3339462987874867,0.9998156501841443,0.0001439114623447791
-0.3324468812003033,-0.3324468812003033,1.0002293233680977,0.0001435257104538588
-0.33127811176818794,-0.33127811176818794,0.9998823209674585,0.00014342508554895822
-0.3299061056168284,-0.3299061056168284,0.9999656408645263,0.0001434994810231408
-0.3281063112721313,-0.3281063112721313,0.9999342487844471,0.0001434433876857303
-0.3262936400074977,-0.3262936400074977,1.0001136098660226,0.0001434222487062729
-0.3246369114116533,-0.3246369114116533,0.9999677424794372,0.00014344696649710406
-0.3231583539396524,-0.3231583539396524,1.0000154264839938,0.00014343258453452466
-0.32208781085792,-0.32208781085792,1.0002242981197018,0.0001607957606696883
-0.3211563734250376,-0.3211563734250376,0.9998273584135541,0.00014345710322837376
-0.31962469698046336,-0.31962469698046336,1.0001162059793258,0.0001434213571474434
-0.3182504959171638,-0.3182504959171638,1.000060343217229,0.00014843310710702034
-0.31671093936020045,-0.31671093936020045,1.000109491768472,0.0001434421961550639
-0.3151162063149968,-0.3151162063149968,0.9997667151414145,0.00014346239450113908
-0.3134986101737013,-0.3134986101737013,0.9999664202473401,0.00014348495642087724
-0.31211056910688056,-0.31211056910688056,1.000001272808105,0.00014343135713699222
-0.310884804330999,-0.310884804330999,0.99993347271644,0.00014358706762483117
-0.3093633625656366,-0.3093633625656366,1.0000092432766814,0.0001435028749017374
-0.3080297979176976,-0.3080297979176976,0.9999000087268317,0.000143422407200893
-0.30656771278881934,-0.30656771278881934,1.0000930996397037,0.0001435407202225612
-0.3047762579517439,-0.3047762579517439,0.9998622106856004,0.00014341019451467315
-0.30332918269268705,-0.30332918269268705,0.9999643975385849,0.0001434403824939872
-0.30186093630036337,-0.30186093630036337,0.9997411895521037,0.00014341779531003627
-0.3003601982665714,-0.3003601982665714,0.9998604747870232,0.0001434555745661457
-0.29918409572856036,-0.29918409572856036,0.9998808253988942,0.0001442296740235046
-0.29810372895153703,-0.29810372895153703,0.9999838181701974,0.00014345275898601308
-0.2966619022161467,-0.2966619022161467,1.0002152459517757,0.00014346419562661166
-0.29555806033604315,-0.29555806033604315,0.9996341503709211,0.00015191637685257588
-0.2939845159853576,-0.2939845159853576,0.9999927964667602,0.0001434465416996652
-0.29226309281948487,-0.29226309281948487,1.0001956859550396,0.00014347803321580546
-0.29106164680561053,-0.29106164680561053,0.999799173110605,0.0001436601655176321
-0.28965700522821863,-0.28965700522821863,1.0001819190606231,0.00014348991455174494
-0.28816192341619173,-0.28816192341619173,1.000106501364733,0.00014350782891290158
-0.28695772400242275,-0.28695772400242275,1.0000152742197295,0.0001434134549094497
-0.28569024497119244,-0.28569024497119244,1.0000253373233672,0.00014352258685809536
-0.28388736737251746,-0.28388736737251746,1.0002340782962524,0.00014350841630635837
-0.28243056031642483,-0.28243056031642483,0.9999664140122304,0.0001433950963656367
-0.2809291087498423,-0.2809291087498423,0.9998986885846065,0.00014342710270779716
-0.27932548053213396,-0.27932548053213396,1.0001260874735993,0.0001434656719642062
-0.27788320704421493,-0.27788320704421493,0.9997833950246647,0.00014344051997962332
-0.27656558192393277,-0.27656558192393277,1.0000247574190175,0.000143600177546486
-0.27567865646560674,-0.27567865646560674,0.9999020276842172,0.00014406566163699532
-0.2744557405938394,-0.2744557405938394,0.9997612864098422,0.0001436700122505615
-0.2731928424182115,-0.2731928424182115,1.0000435290634155,0.00014342567792249828
-0.2717676052299794,-0.2717676052299794,1.0000260728280628,0.00014346746927669014
-0.2702177124097943,-0.2702177124097943,0.9998810309653058,0.00014346392115835885
-0.2688333274971228,-0.2688333274971228,1.0000627920282823,0.0001439827285299904
-0.2673729522008216,-0.2673729522008216,0.9997665669985842,0.00014347000830285404
-0.2659667377592996,-0.2659667377592996,0.999973034512936,0.0001434242265223403
-0.2647629320796113,-0.2647629320796113,1.0000402363601888,0.00014352965141600446
-0.2632194258098025,-0.2632194258098025,0.9998058437592163,0.0001434628403765495
-0.2619039314042311,-0.2619039314042311,0.9999354096605128,0.00014344853781974497
-0.2603902292874409,-0.2603902292874409,0.999887659760204,0.00014351386333113505
-0.2586584007483907,-0.2586584007483907,1.0000331943115441,0.00014341596147378932
-0.2573594228597358,-0.2573594228597358,1.0000458114216777,0.0001434432966122931
-0.2560249471163843,-0.2560249471163843,1.0000550949918665,0.00014344202439673997
-0.2547847713925876,-0.2547847713925876,0.9999900842816197,0.0001457719572743335
-0.25342848524742295,-0.25342848524742295,1.0000301642251244,0.00014387034490435688
-0.25199948023364416,-0.25199948023364416,1.000160506050889,0.00014347255617367294
-0.25057517510140315,-0.25057517510140315,0.9999247984556539,0.00014404935809882519
-0.24937545980501455,-0.24937545980501455,0.9998388374112392,0.00014342486757592992
-0.2478667826158926,-0.2478667826158926,0.9999682362992752,0.000143448837049657
-0.24607601380557753,-0.24607601380557753,0.9999657492656466,0.0001434883316349936
-0.2446092232246883,-0.2446092232246883,1.000105090713452,0.00014451575577958893
-0.24368847787554843,-0.24368847787554843,1.0001801200144098,0.00014437199599303928
-0.2422127000638284,-0.2422127000638284,0.9999527804716093,0.00014347767109132006
-0.24115150267025456,-0.24115150267025456,1.000014895591166,0.0001434350864655762
-0.23979308192501775,-0.23979308192501775,0.9999412609797036,0.00014350638483441315
-0.23802645314717666,-0.23802645314717666,0.9997715159065566,0.00014348123446152888
-0.23674350658548066,-0.23674350658548066,0.9999538417829509,0.00014341800001554508
-0.23504341575317084,-0.23504341575317084,0.9998120728611284,0.00014341831948832512
-0.23349750199413394,-0.23349750199413394,0.9999883513837794,0.00014347110692799258
-0.23220953641866798,-0.23220953641866798,1.0000320173214756,0.0001451768913263869
-0.23099229898652993,-0.23099229898652993,0.9997691179928998,0.0001434505292090105
-0.22946731330885087,-0.22946731330885087,1.0003225364218449,0.0001437396469751482
-0.22805509762547443,-0.22805509762547443,0.9999585915617979,0.00014468331441149562
-0.2268955202685902,-0.2268955202685902,0.999954099061183,0.0001434480100369283
-0.22530641764751635,-0.22530641764751635,1.000070123112497,0.00014346481032127793
-0.22374641452624927,-0.22374641452624927,0.9998787892939873,0.00014345929402153772
-0.22207484688551632,-0.22207484688551632,1.0002485455764203,0.0001434064055800794
-0.22088663607719355,-0.22088663607719355,1.0000170644434951,0.00014417359803186274
-0.2197590451280121,-0.2197590451280121,1.0004419748821458,0.00014341988775040277
-0.21864206807804293,-0.21864206807804293,0.9999054959048953,0.0001435164206471137
-0.21707697737729176,-0.21707697737729176,0.9999592809871707,0.0001434758223192709
-0.21613490005256608,-0.21613490005256608,1.000295280163463,0.00014345929242142165
-0.21453456361487042,-0.21453456361487042,1.0002425420929335,0.00014350401486472772
-0.21263584324042312,-0.21263584324042312,0.9999780149030701,0.00014343736917273503
-0.21111208540096413,-0.21111208540096413,0.9999606249453683,0.00014342614710658003
-0.20972689883201384,-0.20972689883201384,1.0000264411227846,0.00014346596069955247
-0.2086331903177779,-0.2086331903177779,1.0000287053665429,0.0001449383240636961
-0.20731470310711303,-0.20731470310711303,0.9997036825051875,0.00014342474090259369
-0.2058965960808564,-0.2058965960808564,1.0001172956880282,0.00014347732988823813
-0.2043997675180435,-0.2043997675180435,0.9998311442168116,0.00014577960391490155
-0.20263084970647469,-0.20263084970647469,0.999999652641373,0.00014347110939872716
-0.20104127943341155,-0.20104127943341155,0.9996810718223067,0.00014339285650324284
-0.19931133752397728,-0.19931133752397728,1.0003216468826512,0.00014347828116639436
-0.1978278730704915,-0.1978278730704915,0.999985931368203,0.0001439634034216525
-0.19668479813553857,-0.19668479813553857,0.9999937322435043,0.00014339538795405323
-0.19556936401640995,-0.19556936401640995,1.0003394904321905,0.00014353539428040853
-0.1940062217123341,-0.1940062217123341,0.9997750116370121,0.00014346291001820062
-0.1927177602687152,-0.1927177602687152,0.999993743922077,0.00014342277589934885
-0.19114737678901292,-0.19114737678901292,0.9997588533289695,0.0001435339320482914
-0.18926950593886432,-0.18926950593886432,0.999997430320348,0.0001434493347837854
-0.1877115950541338,-0.1877115950541338,1.0001448402292379,0.0001434472353186277
-0.18645852588233539,-0.18645852588233539,0.9999702278260877,0.0001446621411938116
-0.18566452650993598,-0.18566452650993598,0.9999507416456271,0.00015757104564273196
-0.18457155409269035,-0.18457155409269035,0.9998605056791805,0.00014342211997678543
-0.1830529490514891,-0.1830529490514891,1.000121717975206,0.00014342430058906543
-0.1816622284357436,-0.1816622284357436,1.000160762902198,0.0001476967460068689
-0.18008602496411186,-0.18008602496411186,0.9999217104265912,0.00014349219099366644
-0.17867625577491708,-0.17867625577491708,0.9999571684599768,0.00014341571579806457
-0.1769020976469619,-0.1769020976469619,0.9999331564054202,0.00014348540894952247
-0.17549600509519223,-0.17549600509519223,1.0000055480323897,0.00014349910008540156
-0.1744711024337448,-0.1744711024337448,0.9998286088713874,0.00014359039853857974
-0.17281376613827887,-0.17281376613827887,1.0000287783109238,0.0001435071415707882
-0.17156080080312677,-0.17156080080312677,1.0002216704987659,0.0001434321205061815
-0.17030746349482798,-0.17030746349482798,1.000034810769661,0.00014352880446487506
-0.16850888582412155,-0.16850888582412155,0.9998420660012686,0.0001433927482003691
-0.16705519390234258,-0.16705519390234258,1.0002197925121408,0.0001434601260273628
-0.16559682844963391,-0.16559682844963391,0.9998073468022077,0.0001434222531068087
-0.1640876481833402,-0.1640876481833402,0.9998753145124664,0.00014344789308321778
-0.16292182970792055,-0.16292182970792055,0.999963211188741,0.00014428904872773845
-0.16183302301506047,-0.16183302301506047,1.000116916384306,0.00014346877069568878
-0.16029930088261607,-0.16029930088261607,0.99977137528495,0.000143404314931866
-0.15893836901232133,-0.15893836901232133,1.0001315868778982,0.00015079319514547658
-0.15737892083707267,-0.15737892083707267,0.999958775856097,0.0001434210221690504
