time,time,flux,flux_err
-0.49990513907032436,-0.49990513907032436,1.0000287835293284,7.463423088098691e-05
-0.49984744116227375,-0.49984744116227375,1.00000566516501,7.327257946919692e-05
-0.4997748262649111,-0.4997748262649111,1.0000534257577784,7.533197548077366e-05
-0.49962371598376193,-0.49962371598376193,1.0001091768703247,7.528409746813868e-05
-0.4994584950400167,-0.4994584950400167,0.9999262785673608,7.37924573544447e-05
-0.4993691072020738,-0.4993691072020738,0.999954224969585,7.310070996939865e-05
-0.49927515628078256,-0.49927515628078256,1.0000651787197161,7.35390873928242e-05
-0.49917367089292386,-0.49917367089292386,1.0001417729336073,7.399751988196107e-05
-0.4990812131509301,-0.4990812131509301,1.0000222283872011,7.306063379827066e-05
-0.49895487658141063,-0.49895487658141063,1.0000353770085773,7.438124016804668e-05
-0.4988470319505723,-0.4988470319505723,0.9998675316402095,7.41316341034829e-05
-0.49874348313896916,-0.49874348313896916,0.9999765254633939,7.364876194916024e-05
-0.4986041087722697,-0.4986041087722697,1.0000168121253004,7.333076694322912e-05
-0.4985128495332901,-0.4985128495332901,1.0000047336261555,7.41621551660494e-05
-0.49840755110853935,-0.49840755110853935,1.000145730111597,7.35882755321359e-05
-0.4983238914748654,-0.4983238914748654,1.0000428674824111,7.414293217402452e-05
-0.49822828215765186,-0.49822828215765186,1.0000614179132916,7.283774253706276e-05
-0.4981363864710147,-0.4981363864710147,1.0000338011770438,7.390739043905135e-05
-0.49804233157556155,-0.49804233157556155,1.0001949487541695,7.335843474668726e-05
-0.4978200320882024,-0.4978200320882024,1.0000157397806029,7.304565862586266e-05
-0.49765790156670847,-0.49765790156670847,1.0000118148399555,7.281993494091295e-05
-0.49757047558377965,-0.49757047558377965,0.9999479893300626,7.369710729033082e-05
-0.49744987423691783,-0.49744987423691783,1.0000383488295617,7.390299800921317e-05
-0.4974243983015185,-0.4974243983015185,0.9999760261722068,7.363796217744274e-05
-0.49736373310515775,-0.49736373310515775,0.9999691595599025,7.311038315528534e-05
-0.497229930532194,-0.497229930532194,0.9998839605202999,7.290361255792228e-05
-0.49718298446459813,-0.49718298446459813,1.0000858074746244,7.384699892306343e-05
-0.497054598928662,-0.497054598928662,0.9999049214892294,7.310884841886035e-05
-0.49693949144057115,-0.49693949144057115,0.9999571817995581,7.408293282226418e-05
-0.49686654239267225,-0.49686654239267225,1.0000450918954131,7.44790057955877e-05
-0.4968091820461268,-0.4968091820461268,1.0001267531037612,7.412907358183047e-05
-0.4966824755807465,-0.4966824755807465,1.0000226288633018,7.296232121493456e-05
-0.49644394516653845,-0.49644394516653845,0.9999859040545773,7.395196780929372e-05
-0.4963042877992848,-0.4963042877992848,1.0000413153698817,7.359132857308892e-05
-0.49624727770424215,-0.49624727770424215,0.9999026502991131,7.323050066712945e-05
-0.49614966217486656,-0.49614966217486656,0.9999944299922102,7.476286069977461e-05
-0.49598062567820306,-0.49598062567820306,1.0000152432041043,7.394779144231075e-05
-0.4958934135844174,-0.4958934135844174,0.9999430758446403,7.403374115642001e-05
-0.4957671402029519,-0.4957671402029519,0.9999383639536576,7.426517365423435e-05
-0.4956291649672494,-0.4956291649672494,0.9999069100540263,7.377095761338261e-05
-0.49553706118094853,-0.49553706118094853,0.9999816698043542,7.319166052686022e-05
-0.49548070153905427,-0.49548070153905427,0.9999267034845307,7.440016787836994e-05
-0.49533947242598514,-0.49533947242598514,0.9999299970266087,7.337221438413194e-05
-0.4952099048612581,-0.4952099048612581,1.0000758529292326,7.466464751241684e-05
-0.49514225769162296,-0.49514225769162296,1.0000176066763173,7.446916106985166e-05
-0.4949689461951493,-0.4949689461951493,1.000053739520991,7.362164252521685e-05
-0.4948018460920139,-0.4948018460920139,0.9999505606029201,7.35031083035474e-05
-0.4947211811711895,-0.4947211811711895,1.0000644184763288,7.3559033802929e-05
-0.4946390418677765,-0.4946390418677765,0.9999409617515198,7.310731083568636e-05
-0.4946021383955667,-0.4946021383955667,1.000020560882524,7.331732737672313e-05
-0.4944327598692325,-0.4944327598692325,1.0001260783669552,7.319552683685659e-05
-0.49427607326579165,-0.49427607326579165,0.9999720059336982,7.317408216871065e-05
-0.4940920746215852,-0.4940920746215852,0.9999378647994647,7.377005573463313e-05
-0.4939350414926594,-0.4939350414926594,1.000091679218825,7.31778859621738e-05
-0.49383050671531237,-0.49383050671531237,1.0000623794326624,7.331196567565724e-05
-0.49371974073001185,-0.49371974073001185,0.9999745790596697,7.33554868205816e-05
-0.4936205946854898,-0.4936205946854898,0.9999182723062516,7.376749245753062e-05
-0.4934926670197456,-0.4934926670197456,0.9999721040703149,7.368464932170165e-05
-0.49341792631312276,-0.49341792631312276,1.0000567655121984,7.332191323178491e-05
-0.49328567916018073,-0.49328567916018073,0.9999179487314944,7.350506450363306e-05
-0.49311057037702993,-0.49311057037702993,0.9998210957836827,7.410930921437754e-05
-0.4929205613625527,-0.4929205613625527,1.0000064114505276,7.311489289889827e-05
-0.49271315552687156,-0.49271315552687156,0.9998423028270655,7.399172614626216e-05
-0.49260040895751445,-0.49260040895751445,1.00010810231217,7.375660640063942e-05
-0.49251137595056205,-0.49251137595056205,0.9999609034861537,7.382695167397324e-05
-0.4924206534444238,-0.4924206534444238,1.0000209889246734,7.351301150663561e-05
-0.49232942236194505,-0.49232942236194505,1.0000497039960032,7.329119693629901e-05
-0.49216956510572346,-0.49216956510572346,0.9998559271279028,7.405769172404375e-05
-0.49201947054752965,-0.49201947054752965,0.999976284067494,7.28516576707995e-05
-0.49190231695756664,-0.49190231695756664,0.9999955051131701,7.428451229270578e-05
-0.4917770314386871,-0.4917770314386871,1.0000763921544524,7.317331815239934e-05
-0.4916482601511234,-0.4916482601511234,1.000053608818445,7.393050140136263e-05
-0.4915708859807637,-0.4915708859807637,1.0000073986742297,7.319421269851633e-05
-0.491422123691882,-0.491422123691882,1.00002359343888,7.393414389456964e-05
-0.4912793282419443,-0.4912793282419443,0.9999869558153724,7.356518502671333e-05
-0.4911679655597254,-0.4911679655597254,0.9999351560167102,7.344498100414852e-05
-0.4910760535662121,-0.4910760535662121,0.999813736292533,7.344093223424778e-05
-0.4910064980831521,-0.4910064980831521,0.9998360765517209,7.295656838607727e-05
-0.49097258227993734,-0.49097258227993734,1.0001082200857148,7.335328330455381e-05
-0.4908773017094063,-0.4908773017094063,0.9998430588056696,7.446217319012052e-05
-0.4907493684135261,-0.4907493684135261,0.999796004924797,7.348117372128402e-05
-0.49054095233295814,-0.49054095233295814,1.0000762174756306,7.382311610108345e-05
-0.4904019538364082,-0.4904019538364082,0.9999572252718526,7.308420303539615e-05
-0.4903429202808184,-0.4903429202808184,1.0000618187892718,7.27668084438545e-05
-0.490222648717463,-0.490222648717463,1.0000681178327342,7.282860773375597e-05
-0.49011702668649376,-0.49011702668649376,0.9997885466048402,7.330455700608679e-05
-0.4899475359248754,-0.4899475359248754,0.9998733560034585,7.385987053703644e-05
-0.4898239338537678,-0.4898239338537678,1.0000995737369947,7.392756951499308e-05
-0.48970385376160264,-0.48970385376160264,0.9998673415808594,7.4425919231845e-05
-0.4895878884010017,-0.4895878884010017,1.0000883108593368,7.636668466157961e-05
-0.4894528076452843,-0.4894528076452843,0.9999882106023945,7.466738387074389e-05
-0.48928957036623616,-0.48928957036623616,0.999985108339563,7.288555850941861e-05
-0.4891731601419451,-0.4891731601419451,0.9999720003028039,7.35731404797636e-05
-0.48907442225681735,-0.48907442225681735,1.0000017822614484,7.348964697635267e-05
-0.4889457724399108,-0.4889457724399108,1.000020880874575,7.432636994608103e-05
-0.48879580599241307,-0.48879580599241307,0.9999229871945872,7.427237501596745e-05
-0.48868545150689896,-0.48868545150689896,0.9999746484088691,7.375641782507364e-05
-0.4885221744298178,-0.4885221744298178,1.0000720154598857,7.387503588741045e-05
-0.48840549680171536,-0.48840549680171536,0.9999096663099236,7.317767531253892e-05
-0.48833578779740494,-0.48833578779740494,1.0000237359799107,7.425476666218331e-05
-0.48823221765633207,-0.48823221765633207,1.000048902567265,7.286615640204015e-05
-0.48814896691037574,-0.48814896691037574,0.9999558160972546,7.420443120489224e-05
-0.48803716175607403,-0.48803716175607403,1.0000939494487389,7.282635617330329e-05
-0.48791602423007135,-0.48791602423007135,1.000210468908833,7.327008215172254e-05
-0.48779641045912286,-0.48779641045912286,0.9999814334719554,7.317013769048737e-05
-0.48768187978712374,-0.48768187978712374,0.9999265705798843,7.332464457616313e-05
-0.48759780927284735,-0.48759780927284735,0.999943769016643,7.371358267415928e-05
-0.48749408320873044,-0.48749408320873044,1.0001007079833681,7.422566096214849e-05
-0.48742645687088954,-0.48742645687088954,0.9999104035668681,7.327097341796016e-05
-0.48737149266380586,-0.48737149266380586,1.000133453677357,7.321511452253558e-05
-0.4872456884062558,-0.4872456884062558,0.9999013062891532,7.275393049631962e-05
-0.4871909719622636,-0.4871909719622636,0.9999590039036731,7.2717386889154e-05
-0.4870691647993226,-0.4870691647993226,1.0000031362000865,7.301530691933803e-05
-0.48693286139387054,-0.48693286139387054,0.9999560070759188,7.486654972694517e-05
-0.4867819286650047,-0.4867819286650047,0.9999452430055579,7.37219901351128e-05
-0.48662809572488186,-0.48662809572488186,1.0002004256625994,7.303165368828412e-05
-0.4864961639912508,-0.4864961639912508,0.9998815016660323,7.321239969481577e-05
-0.4863342393102357,-0.4863342393102357,1.0000502677242489,7.336697354265391e-05
-0.4861964815871033,-0.4861964815871033,0.9999534059138409,7.41363806780242e-05
-0.48609178471378983,-0.48609178471378983,0.9999000294166361,7.440210015075781e-05
-0.4859266119550739,-0.4859266119550739,0.9997787297527176,7.459631792841974e-05
-0.48581195316146475,-0.48581195316146475,0.9999672262651181,7.278241256776086e-05
-0.48574472674226854,-0.48574472674226854,0.9999442427061653,7.423828910300619e-05
-0.485644707231404,-0.485644707231404,1.000139402154914,7.551310106355972e-05
-0.485566950829525,-0.485566950829525,0.9999515708972841,7.336186597560308e-05
-0.48547492126454017,-0.48547492126454017,1.0000283108312125,7.356025673904592e-05
-0.48541056567337365,-0.48541056567337365,0.9999243387011457,7.359197798223673e-05
-0.4852472319442313,-0.4852472319442313,1.0000571036394388,7.45115754625581e-05
-0.48514761153055586,-0.48514761153055586,0.9999782484645017,7.383045121961633e-05
-0.4849896769905172,-0.4849896769905172,0.999870386325448,7.361424875983382e-05
-0.48485896630299974,-0.48485896630299974,0.9999257759003614,7.393033276348925e-05
-0.4847632362980221,-0.4847632362980221,1.0000343267254739,7.31073671900282e-05
-0.4846496925463725,-0.4846496925463725,1.0001589364799703,7.372378550629991e-05
-0.4845904006178898,-0.4845904006178898,0.9999251319537267,7.347774989651957e-05
-0.48445019788196075,-0.48445019788196075,1.0001281840316352,7.312797836611945e-05
-0.48431591978878713,-0.48431591978878713,1.000067285644808,7.51142724170104e-05
-0.48415534192172344,-0.48415534192172344,1.000051282169591,7.335270761121889e-05
-0.4840034812237718,-0.4840034812237718,0.999975014064372,7.259179522424009e-05
-0.48393400511631623,-0.48393400511631623,0.9998657879959796,7.318489234677359e-05
-0.48379950245289366,-0.48379950245289366,1.0001317809717842,7.320614470061358e-05
-0.4837345203442965,-0.4837345203442965,1.0000049299904803,7.282217790178551e-05
-0.4836631704303727,-0.4836631704303727,0.9999931607620771,7.558504650646605e-05
-0.48352280499821065,-0.48352280499821065,0.9998840071971593,7.25428568617793e-05
-0.4834563715361583,-0.4834563715361583,0.9998707628158252,7.396384163678385e-05
-0.4833544640998298,-0.4833544640998298,1.0000570212081994,7.319429405853242e-05
-0.4831788692878035,-0.4831788692878035,0.99994683986626,7.461576207354078e-05
-0.48295797282116837,-0.48295797282116837,0.9999269483069666,7.304424013846232e-05
-0.4827692033439234,-0.4827692033439234,0.999899210556024,7.513286109095728e-05
-0.4826238821777224,-0.4826238821777224,1.000066027814833,7.348559955665448e-05
-0.48255376002416595,-0.48255376002416595,1.0000291226322346,7.346709606661424e-05
-0.48241765614657195,-0.48241765614657195,1.0000710212703459,7.430266745084384e-05
-0.4823350363825739,-0.4823350363825739,0.9999244527818499,7.529955962836763e-05
-0.48223629718922895,-0.48223629718922895,0.9999949387539223,7.387517810463353e-05
-0.4820618577155983,-0.4820618577155983,1.000050882857167,7.359116816668034e-05
-0.48192024284944635,-0.48192024284944635,0.99987520717966,7.432765794780164e-05
-0.48182888834780896,-0.48182888834780896,0.9999423203681896,7.343988609508634e-05
-0.48175117879800383,-0.48175117879800383,0.9999628359639434,7.30808013836674e-05
-0.48161798552173424,-0.48161798552173424,1.0000639298347136,7.501400399582446e-05
-0.48149130275342034,-0.48149130275342034,0.9999444596799263,7.415665658941821e-05
-0.48132916953254606,-0.48132916953254606,0.9999740351621881,7.38397970857509e-05
-0.4811599754990311,-0.4811599754990311,1.0000766823420169,7.364618210190141e-05
-0.4810824166241218,-0.4810824166241218,1.000026022415573,7.270737086308863e-05
-0.4810123509108962,-0.4810123509108962,1.0001003591137558,7.372450948891202e-05
-0.4809731586399721,-0.4809731586399721,1.0000803206298219,7.271933421401353e-05
-0.48090150275893395,-0.48090150275893395,1.0000737260558683,7.322302424764691e-05
-0.48080485641548876,-0.48080485641548876,0.999989626687627,7.340353242482118e-05
-0.4806967307202285,-0.4806967307202285,1.0000240153385362,7.328779941660478e-05
-0.4804880286210391,-0.4804880286210391,1.0000668718133132,7.323876353153365e-05
-0.4803899339014606,-0.4803899339014606,0.9999463679934648,7.273858343839414e-05
-0.4802362474249094,-0.4802362474249094,1.0001241127678029,7.346915101246222e-05
-0.4801544309229939,-0.4801544309229939,0.9999789756627606,7.320829817786395e-05
-0.4800694865472906,-0.4800694865472906,0.9998548200929065,7.408224848310697e-05
-0.47992937190356316,-0.47992937190356316,1.000009550423608,7.383597954613229e-05
-0.4797514163125015,-0.4797514163125015,1.0000158156740457,7.412084296103569e-05
-0.4795758122148982,-0.4795758122148982,0.999938046958837,7.404373871742569e-05
-0.4793986722936097,-0.4793986722936097,1.0000556064959074,7.350288442169615e-05
-0.4792720353216282,-0.4792720353216282,1.000034521564346,7.412922422124255e-05
-0.47910546534039894,-0.47910546534039894,0.9999539761803155,7.387490695495023e-05
-0.47901277528653735,-0.47901277528653735,1.0000458110378785,7.350261059067774e-05
-0.47890438174581507,-0.47890438174581507,0.99995860302952,7.36779894809922e-05
-0.47880153907535716,-0.47880153907535716,0.9998231611120272,7.392280796041743e-05
-0.4787146880538785,-0.4787146880538785,1.0001793829270456,7.406670284978996e-05
-0.47856401795506825,-0.47856401795506825,0.9999690711815375,7.347043685724901e-05
-0.4784236854262417,-0.4784236854262417,1.0000111204708575,7.39360868293601e-05
-0.4783406381488021,-0.4783406381488021,1.0000657327534008,7.28091454731409e-05
-0.4782587634770607,-0.4782587634770607,0.9998813332829893,7.45213265041763e-05
-0.4781606829521479,-0.4781606829521479,1.0000231901501588,7.368566442874421e-05
-0.4780574969321606,-0.4780574969321606,0.9997367009403814,7.377895782885193e-05
-0.4779613079990668,-0.4779613079990668,0.9999212943753628,7.354836258082189e-05
-0.47781967238115614,-0.47781967238115614,0.999931198835173,7.341024436214645e-05
-0.47764372230158186,-0.47764372230158186,1.0000110863086336,7.412156731598483e-05
-0.47750477990266516,-0.47750477990266516,1.0000009708820072,7.337724431349179e-05
-0.4774151732352038,-0.4774151732352038,0.9999174441833993,7.270365409883991e-05
-0.4773377110912406,-0.4773377110912406,1.0000809385547216,7.321522756670949e-05
-0.4772643799704383,-0.4772643799704383,0.9998483846758484,7.2853394787718e-05
-0.4771811717051605,-0.4771811717051605,0.9999593841507697,7.344093363135626e-05
-0.47710315018121036,-0.47710315018121036,0.9999152270228555,7.355377897138095e-05
-0.47697338384532484,-0.47697338384532484,1.0001505555501051,7.497296713897097e-05
-0.47684647343630787,-0.47684647343630787,0.9998704901466825,7.437332916687435e-05
-0.4767385556318914,-0.4767385556318914,1.0000519781265402,7.272904221835041e-05
-0.4766628126046271,-0.4766628126046271,1.0001556505694804,7.370607857165695e-05
-0.47652559640991965,-0.47652559640991965,0.9999761958660047,7.285441580654618e-05
-0.4763594442847534,-0.4763594442847534,0.9999956140792252,7.324028441971534e-05
-0.4762702735431958,-0.4762702735431958,1.000007094970113,7.314520377735082e-05
-0.4761759171371523,-0.4761759171371523,0.9999451871244276,7.436426005325888e-05
-0.476109912298125,-0.476109912298125,1.0001090627379305,7.459196992360076e-05
-0.4759634881396778,-0.4759634881396778,0.9999017685063822,7.543117442628684e-05
-0.4758294358885905,-0.4758294358885905,1.0001762683054884,7.423647130614301e-05
-0.4757361597017734,-0.4757361597017734,0.9999388629181529,7.376625238647768e-05
-0.4756012881480274,-0.4756012881480274,1.0002188623543702,7.4408250383322e-05
-0.47548966329777614,-0.47548966329777614,1.0000525385073114,7.337007340444173e-05
-0.47538050852381275,-0.47538050852381275,1.0001714292868988,7.305979297824313e-05
-0.4752596441539936,-0.4752596441539936,1.000016353667443,7.389309335792749e-05
-0.4751401048459229,-0.4751401048459229,1.0000110309579537,7.359104861338944e-05
-0.47508733024078537,-0.47508733024078537,0.999992573453787,7.378082079655762e-05
-0.47493561580777166,-0.47493561580777166,0.9999431812483064,7.337156987127253e-05
-0.47482294518122214,-0.47482294518122214,1.0001116195084019,7.383276918962476e-05
-0.4747289876744617,-0.4747289876744617,0.9999788178756942,7.341224545963251e-05
-0.47463059535002683,-0.47463059535002683,0.9999275226448908,7.401733795294015e-05
-0.4745211708490388,-0.4745211708490388,0.999995962807791,7.339517903223844e-05
-0.4744318040997314,-0.4744318040997314,0.9998940906158396,7.380562147047746e-05
-0.47435694724845234,-0.47435694724845234,0.9999715345709603,7.316345708982766e-05
-0.4742318300937768,-0.4742318300937768,1.000003632363844,7.323484126911975e-05
-0.4740962191361177,-0.4740962191361177,1.0001020887529755,7.26629282682218e-05
-0.4739854179912072,-0.4739854179912072,1.000194452451162,7.283413694377013e-05
-0.4739188453015231,-0.4739188453015231,1.0001139988743888,7.326035387536656e-05
-0.4738291919828043,-0.4738291919828043,0.9999691883586456,7.37792330857098e-05
-0.4737380839556863,-0.4737380839556863,1.000006652688486,7.314763689436526e-05
-0.47371712942476735,-0.47371712942476735,1.0000121252337715,7.344868055636294e-05
-0.4735907358037366,-0.4735907358037366,0.9999316612625512,7.329286275224302e-05
-0.4735002065091976,-0.4735002065091976,0.999981768433949,7.279047541178147e-05
-0.47335438405061725,-0.47335438405061725,0.9999072613545357,7.310309421552227e-05
-0.47325967091310306,-0.47325967091310306,1.00000109002575,7.453197366109586e-05
-0.4731827376919682,-0.4731827376919682,1.0000910900236342,7.381876060845871e-05
-0.4730828906831448,-0.4730828906831448,1.0000326075966541,7.309956318489976e-05
-0.4729212318532518,-0.4729212318532518,0.9999883095586822,7.344723588720642e-05
-0.47271006663140724,-0.47271006663140724,0.9999507771035375,7.337388259861461e-05
-0.47257690328042373,-0.47257690328042373,0.9999726828676992,7.333693465215084e-05
-0.4725350540429645,-0.4725350540429645,0.9999358202385947,7.365412154932282e-05
-0.47241979164100484,-0.47241979164100484,0.9999351739346588,7.453674721233863e-05
-0.47227144204516663,-0.47227144204516663,1.000105073051116,7.437437069300104e-05
-0.472161276780389,-0.472161276780389,0.9999908644054327,7.384738297979493e-05
-0.47207375356301784,-0.47207375356301784,1.000126498714516,7.370818884920162e-05
-0.4719276353695022,-0.4719276353695022,0.9999256508108104,7.363389030888592e-05
-0.4718119014723925,-0.4718119014723925,1.000056309455237,7.474005124595311e-05
