time,time,flux,flux_err
-0.4990379896565476,-0.4990379896565476,1.0000487267121567,3.685712910863489e-05
-0.49703097244249267,-0.49703097244249267,0.9999577171847857,3.6840616686528686e-05
-0.49515861597562133,-0.49515861597562133,0.9999955689572263,3.6864965396670514e-05
-0.49366837395209584,-0.49366837395209584,1.0000549898287256,3.3640059428055e-05
-0.49240554081916343,-0.49240554081916343,0.9999745579085714,3.3659369016152864e-05
-0.4909539901462267,-0.4909539901462267,0.9999826375415555,3.366045042724839e-05
-0.4893888197882916,-0.4893888197882916,1.0000117385541611,3.368749563111883e-05
-0.48794602341222343,-0.48794602341222343,0.9999931421317318,3.364836387356648e-05
-0.4872071180972853,-0.4872071180972853,0.9999856983033932,3.3690749010239246e-05
-0.4850454387415084,-0.4850454387415084,0.9999902711763508,3.365689963086977e-05
-0.4836831427484867,-0.4836831427484867,0.9999875425052502,3.3632007818038276e-05
-0.4826360464852769,-0.4826360464852769,0.9999958920762365,3.365515563206323e-05
-0.4811379580220091,-0.4811379580220091,0.9999767971188485,3.364506629192742e-05
-0.48005793030461064,-0.48005793030461064,1.0000012200627986,3.371969873259432e-05
-0.4786120034637861,-0.4786120034637861,0.9999554594638622,3.365817179314468e-05
-0.47643765904649626,-0.47643765904649626,0.9998840521825805,3.364349944870733e-05
-0.4746971691638464,-0.4746971691638464,0.9999628630153682,3.3629991328434325e-05
-0.47298704793065555,-0.47298704793065555,0.999992098840823,3.365204671768706e-05
-0.4721519770333543,-0.4721519770333543,0.9999500730043159,3.363477640782795e-05
-0.4706693571963115,-0.4706693571963115,1.0000248724263572,3.3646029540307466e-05
-0.4692616907166666,-0.4692616907166666,0.9999861781044587,3.3635452409928726e-05
-0.4681848607593565,-0.4681848607593565,1.0000397852014342,3.3671138237153464e-05
-0.4667842856229981,-0.4667842856229981,1.0000699705754024,3.370260048745818e-05
-0.4655611827314715,-0.4655611827314715,0.9999731407050533,3.3654189009111984e-05
-0.464716007518291,-0.464716007518291,0.9999436844763668,3.37454461166478e-05
-0.4628646575496532,-0.4628646575496532,1.0000064975180927,3.3634156305047556e-05
-0.4618442379345652,-0.4618442379345652,0.9999852000008579,3.363718739254963e-05
-0.4609862580022309,-0.4609862580022309,0.9999936959769833,3.365076410058949e-05
-0.4598031059606001,-0.4598031059606001,0.9999015770441362,3.366065770230328e-05
-0.45837998846982375,-0.45837998846982375,1.00003267470231,3.3652391874876945e-05
-0.4573106854018988,-0.4573106854018988,1.0000082145020355,3.37068534084598e-05
-0.4551068300017505,-0.4551068300017505,1.0000589558904904,3.365273039058841e-05
-0.4534344569183304,-0.4534344569183304,0.9999838502862326,3.364671288189753e-05
-0.45214985540806085,-0.45214985540806085,1.0000050702647851,3.363999231755398e-05
-0.4506573489066795,-0.4506573489066795,0.9999316184607501,3.363341679978422e-05
-0.44982795366668143,-0.44982795366668143,1.0000676127193675,3.36484799235169e-05
-0.44911818273103565,-0.44911818273103565,0.9999106320739874,3.364871943501506e-05
-0.4477481173104024,-0.4477481173104024,1.0000043699255454,3.364763798837583e-05
-0.4469674459323869,-0.4469674459323869,0.9999864238521337,3.366142903082221e-05
-0.4461117462720722,-0.4461117462720722,1.0000085436135828,3.3662701489055155e-05
-0.4444723048058222,-0.4444723048058222,1.0000174982815098,3.3638492743295465e-05
-0.44327376855508194,-0.44327376855508194,0.9999301544194384,3.369154721342788e-05
-0.44255000567645764,-0.44255000567645764,0.9999941758009712,3.364183222518239e-05
-0.44118290108744984,-0.44118290108744984,1.0000180291817102,3.3807564200835164e-05
-0.43945964624726913,-0.43945964624726913,0.9999842502925927,3.362667252398148e-05
-0.4382927544036647,-0.4382927544036647,1.000039770826838,3.3652500427804077e-05
-0.4368150248119491,-0.4368150248119491,1.0000435199773259,3.367414576370245e-05
-0.43537945578282233,-0.43537945578282233,0.9999749979252582,3.369347516379617e-05
-0.43393928171572044,-0.43393928171572044,1.0000091964153472,3.3637866096994494e-05
-0.43188755975133974,-0.43188755975133974,0.9999363251298069,3.36618870499669e-05
-0.43054949531069725,-0.43054949531069725,1.000032322338164,3.3641952705105045e-05
-0.42954895028378814,-0.42954895028378814,1.0000058084877312,3.3643673180526015e-05
-0.42804947640543106,-0.42804947640543106,0.9999800165891696,3.364905290074255e-05
-0.427303154184483,-0.427303154184483,0.9999863248525969,3.366663205091634e-05
-0.42661195771506755,-0.42661195771506755,1.0000173433357875,3.3649577318562364e-05
-0.4252042355001322,-0.4252042355001322,0.9999773668588222,3.3642233880925214e-05
-0.4242797955084825,-0.4242797955084825,0.9999274503226042,3.366232123768022e-05
-0.42270850421191425,-0.42270850421191425,1.000019164655988,3.3669158765068935e-05
-0.4210843588822172,-0.4210843588822172,0.999948569945634,3.363096790400248e-05
-0.42037197663885306,-0.42037197663885306,0.9999952983275644,3.3682429668185804e-05
-0.4194553846173221,-0.4194553846173221,1.0000603485440918,3.369402002479897e-05
-0.4179756534387707,-0.4179756534387707,1.0000063998552944,3.3740526993734816e-05
-0.4163695200753864,-0.4163695200753864,0.9999892815625305,3.363242978427878e-05
-0.414171274540422,-0.414171274540422,1.0000886196889072,3.36226079282559e-05
-0.4121919250319479,-0.4121919250319479,0.9999890210631885,3.366809178417059e-05
-0.4104360032302793,-0.4104360032302793,0.9999948490179593,3.3621746137133167e-05
-0.4092219301950536,-0.4092219301950536,0.9999648141144462,3.3667066191127816e-05
-0.40782522291410717,-0.40782522291410717,1.0000196487250326,3.364091830107487e-05
-0.40642725826910464,-0.40642725826910464,0.9999923858942061,3.36358877102426e-05
-0.40512747465254506,-0.40512747465254506,1.0000100333105906,3.3670302914954216e-05
-0.40381500552321087,-0.40381500552321087,0.9999632834026848,3.3633704391181635e-05
-0.4023321472006501,-0.4023321472006501,1.0000244182612872,3.364684262641432e-05
-0.40093298289139057,-0.40093298289139057,1.0000424708911895,3.369934277029275e-05
-0.3993895960898953,-0.3993895960898953,0.9999008475959471,3.361571910388444e-05
-0.3980558504743385,-0.3980558504743385,0.9999616006317392,3.3644707923268514e-05
-0.3974948768125614,-0.3974948768125614,1.000035203808888,3.363199363163804e-05
-0.39662416861538075,-0.39662416861538075,0.9999333195758426,3.3698863016138745e-05
-0.3957208908803295,-0.3957208908803295,1.00004083000364,3.373211263599836e-05
-0.3942246898746816,-0.3942246898746816,1.0000209875979915,3.361019973339107e-05
-0.39269974987837486,-0.39269974987837486,0.999957337282439,3.365936636531859e-05
-0.39027570724429095,-0.39027570724429095,1.0000308632831474,3.36285541707758e-05
-0.3884903539219522,-0.3884903539219522,1.000071708388759,3.3642921584637516e-05
-0.3866484074460459,-0.3866484074460459,1.000055880550682,3.364338431515673e-05
-0.3851848262056592,-0.3851848262056592,1.0000353014141579,3.363451094065228e-05
-0.3839193526131567,-0.3839193526131567,1.000008855519569,3.363683876785591e-05
-0.38262323789531366,-0.38262323789531366,1.0000464427600289,3.367012012913032e-05
-0.38087772459402913,-0.38087772459402913,1.0000299936643768,3.366073432561874e-05
-0.3793174702281249,-0.3793174702281249,1.0000394550821512,3.368724057022389e-05
-0.37737216011737473,-0.37737216011737473,0.9999786294495301,3.36592228624425e-05
-0.376222057666746,-0.376222057666746,1.0000014841060303,3.36329336494504e-05
-0.3749959856519126,-0.3749959856519126,1.0000394377997477,3.367950106514631e-05
-0.37335735790838953,-0.37335735790838953,0.9999532745331841,3.374768495056125e-05
-0.37197434122208506,-0.37197434122208506,1.0000002336694802,3.364868836844895e-05
-0.37041969905403677,-0.37041969905403677,0.9999476849650991,3.363055970628204e-05
-0.3687145093965228,-0.3687145093965228,0.9999611266248112,3.3639885217406864e-05
-0.3670589505942189,-0.3670589505942189,0.9999538249578563,3.3624998171928585e-05
-0.36528302182705374,-0.36528302182705374,0.9999665160603264,3.361612642304468e-05
-0.3642127480256022,-0.3642127480256022,1.000109397088083,3.3653755348872776e-05
-0.3628770827664994,-0.3628770827664994,0.999967504588455,3.363772429573518e-05
-0.362410814454779,-0.362410814454779,1.0000565969559934,3.368255103015766e-05
-0.36147126676369223,-0.36147126676369223,0.9999774419723211,3.364551566087665e-05
-0.36011453448736575,-0.36011453448736575,0.9999287189337703,3.3655817939962745e-05
-0.3587061947095208,-0.3587061947095208,0.999956075399927,3.3675253056900195e-05
-0.3577556734046084,-0.3577556734046084,0.9999672855460426,3.3644306097094433e-05
-0.3560062019067118,-0.3560062019067118,1.0000279756784818,3.376664905894686e-05
-0.35417854929546594,-0.35417854929546594,1.0000165975705348,3.362060249610744e-05
-0.35310277395037704,-0.35310277395037704,1.000039416686474,3.362869402870702e-05
-0.3519719605596038,-0.3519719605596038,0.9999841377673702,3.3696037846169535e-05
-0.3508855661319103,-0.3508855661319103,0.9999418392115531,3.369893725215421e-05
-0.35007019500626485,-0.35007019500626485,0.9999541252558091,3.372213351342341e-05
-0.3487671060473076,-0.3487671060473076,0.9999908606877609,3.3642638584244295e-05
-0.34668451466714034,-0.34668451466714034,1.0000516653856153,3.364644404665879e-05
-0.34470796918321867,-0.34470796918321867,1.0000095052471105,3.362904762072145e-05
-0.34289106487703974,-0.34289106487703974,0.9999541223390673,3.366917489145386e-05
-0.3421530940919183,-0.3421530940919183,0.9999848049603104,3.363490622374173e-05
-0.3405014433301403,-0.3405014433301403,1.0000283195385797,3.3638804841608235e-05
-0.3391976358834654,-0.3391976358834654,0.9999880769855451,3.3648546231513546e-05
-0.3378727385730599,-0.3378727385730599,0.9999558152128871,3.3670802188999676e-05
-0.3362781324685784,-0.3362781324685784,0.9999917733627106,3.369851495309957e-05
-0.3353090998993139,-0.3353090998993139,0.9999835717596683,3.362828131595291e-05
-0.3341245667921612,-0.3341245667921612,1.0000279071656668,3.37273874253924e-05
-0.3320227504504146,-0.3320227504504146,0.9999799276836961,3.3636000643802504e-05
-0.33119675365451257,-0.33119675365451257,1.000003860650032,3.363907361876081e-05
-0.33039150593976957,-0.33039150593976957,0.9999972615438265,3.363487605311525e-05
-0.3290902343840571,-0.3290902343840571,0.9999888948708963,3.36906791669151e-05
-0.3279976785226609,-0.3279976785226609,0.9999864150726726,3.3723730826292904e-05
-0.32684657071513357,-0.32684657071513357,0.9999062831876884,3.3621551310280545e-05
-0.3244401377553004,-0.3244401377553004,0.9999262353695656,3.364507329466444e-05
-0.3225013379182201,-0.3225013379182201,1.0000352695828392,3.364445013577728e-05
-0.32095897426479497,-0.32095897426479497,1.000089068077602,3.36262241173666e-05
-0.3199101195539697,-0.3199101195539697,1.000003414431296,3.366062758697909e-05
-0.31917260429327143,-0.31917260429327143,0.9999567941830145,3.364097223097241e-05
-0.31750402207835576,-0.31750402207835576,1.0000072644802516,3.363950331905402e-05
-0.3166800289342063,-0.3166800289342063,0.9999222842797681,3.3654685339556244e-05
-0.3155256729238317,-0.3155256729238317,0.9999825180358858,3.367530387882852e-05
-0.3139282242700574,-0.3139282242700574,0.9999803632713802,3.3649305324319595e-05
-0.31291255454561906,-0.31291255454561906,0.9999840682970434,3.36399471881529e-05
-0.3120510034626932,-0.3120510034626932,1.0000532392820305,3.371464380714923e-05
-0.31005653630709273,-0.31005653630709273,1.0000112815267321,3.372252362210123e-05
-0.30901333212968896,-0.30901333212968896,0.9999610308601579,3.36330586736821e-05
-0.3080457127056434,-0.3080457127056434,1.0000035681920696,3.364091830502807e-05
-0.3063826748475549,-0.3063826748475549,1.0000399414811807,3.3677736509615126e-05
-0.3050274261695449,-0.3050274261695449,1.0000583180012446,3.371126467442642e-05
-0.3033322562230751,-0.3033322562230751,0.9999593774096665,3.363383016117177e-05
-0.30161891278403347,-0.30161891278403347,1.0000346524246446,3.3707275051179926e-05
-0.30067343173141126,-0.30067343173141126,0.9999632522792197,3.364357288206759e-05
-0.2995460904116044,-0.2995460904116044,0.9999451291254923,3.36938619067966e-05
-0.298055563379603,-0.298055563379603,1.0000060033815814,3.365005762244459e-05
-0.2971782033680938,-0.2971782033680938,0.9999637667431036,3.363727231324809e-05
-0.29597209679632214,-0.29597209679632214,0.9999605255328936,3.3647503018442104e-05
-0.29465141766413583,-0.29465141766413583,0.9999966984108601,3.3697165069136575e-05
-0.2934932902542641,-0.2934932902542641,0.9999588078287012,3.367306309640748e-05
-0.2916776534053497,-0.2916776534053497,1.0000284632234238,3.3644878088573944e-05
-0.2905935685703298,-0.2905935685703298,0.9999258645009391,3.36722309881223e-05
-0.2897638041147729,-0.2897638041147729,0.9999811657631129,3.370049475014235e-05
-0.28806711299694143,-0.28806711299694143,0.9999598797059525,3.373628100947638e-05
-0.2867310860354337,-0.2867310860354337,0.999963965882349,3.36249609305739e-05
-0.2852656937669963,-0.2852656937669963,1.0000249365584148,3.3675790122950166e-05
-0.2828889250929933,-0.2828889250929933,0.9999372025435573,3.363445712119607e-05
-0.28116072681877996,-0.28116072681877996,1.000017961541828,3.362751132174807e-05
-0.2794440038647735,-0.2794440038647735,0.9999671400166941,3.366799970842006e-05
-0.27804007462691516,-0.27804007462691516,0.9999652675529844,3.3636985175779566e-05
-0.277195524139097,-0.277195524139097,0.9999593395166487,3.370059663914826e-05
-0.27589581766806076,-0.27589581766806076,0.999994659900558,3.364704273530339e-05
-0.27469791104085745,-0.27469791104085745,1.0000174551399375,3.3672411838018934e-05
-0.2734779049467761,-0.2734779049467761,0.9999511770346794,3.364097733979489e-05
-0.27210088067658944,-0.27210088067658944,0.9998800972818664,3.369605194355123e-05
-0.2711668122574338,-0.2711668122574338,0.9999799579952129,3.3635651161926014e-05
-0.269542612809164,-0.269542612809164,0.9999580123775796,3.362843727564357e-05
-0.26821068030112655,-0.26821068030112655,0.9999810436756315,3.3670661348451705e-05
-0.26762731777271254,-0.26762731777271254,0.999984408401749,3.3631863291684324e-05
-0.2665075047960272,-0.2665075047960272,0.9999383602114118,3.369124191825321e-05
-0.2656166280401521,-0.2656166280401521,0.9999950972163354,3.3724122082078805e-05
-0.26466326198569734,-0.26466326198569734,0.9999645199946045,3.361448297204549e-05
-0.26289139844157033,-0.26289139844157033,1.0000118583905713,3.362671654788188e-05
-0.2600662227050634,-0.2600662227050634,0.9999859972934612,3.36439833475023e-05
-0.25843498868489406,-0.25843498868489406,0.9999710945339672,3.3620825255334426e-05
-0.2567583176234621,-0.2567583176234621,0.9999208608834245,3.367918416906589e-05
-0.25551556345599236,-0.25551556345599236,0.9999315165095407,3.363439128354415e-05
-0.25426018923753874,-0.25426018923753874,0.9999641409857608,3.363996347768917e-05
-0.2528818797974964,-0.2528818797974964,0.9999551198882892,3.3673484772738974e-05
-0.25162607447855406,-0.25162607447855406,0.9999562930897831,3.365225569050747e-05
-0.25032578453974563,-0.25032578453974563,0.9999723862504025,3.364423555593433e-05
-0.2484212600189494,-0.2484212600189494,1.0000079038599243,3.369679994092444e-05
-0.24679608509904938,-0.24679608509904938,1.000058808481647,3.3619811759707594e-05
-0.24562636423506773,-0.24562636423506773,0.9999875383014641,3.431139611062654e-05
-0.24493879856163403,-0.24493879856163403,1.0000027710707544,3.3681023639366816e-05
-0.24384081602474908,-0.24384081602474908,1.000055561865124,3.365796948824501e-05
-0.24245830430008936,-0.24245830430008936,1.000032064091947,3.372884323324122e-05
-0.24060409599042032,-0.24060409599042032,1.0000831788603692,3.3619847418035826e-05
-0.2387512144021457,-0.2387512144021457,0.9999870925091354,3.3634049775572576e-05
-0.23728137342259287,-0.23728137342259287,1.0000085402257877,3.362517692771235e-05
-0.23560354542714776,-0.23560354542714776,0.9999903883224288,3.36323254912712e-05
-0.23414454974263207,-0.23414454974263207,0.9999597539338554,3.36426696843488e-05
-0.23283831577718955,-0.23283831577718955,0.9999776694687691,3.3634087936187984e-05
-0.23199300571723142,-0.23199300571723142,1.0000571388487736,3.365356433777267e-05
-0.2308757146311109,-0.2308757146311109,1.0000358026217555,3.3647865995471945e-05
-0.22952188604249385,-0.22952188604249385,1.000006050689671,3.367373694265095e-05
-0.2282268969764118,-0.2282268969764118,0.9999735069403382,3.365079309216831e-05
-0.2273208298778627,-0.2273208298778627,1.0000381702753578,3.3740345944387996e-05
-0.22517317532619927,-0.22517317532619927,0.9999844103933411,3.366856044810681e-05
-0.22411836430692347,-0.22411836430692347,1.0000047123428464,3.362631845842709e-05
-0.22325128091906662,-0.22325128091906662,1.0001031709538721,3.3627639070907835e-05
-0.22225725018361117,-0.22225725018361117,0.9999854383805266,3.368193448193277e-05
-0.2208503374728025,-0.2208503374728025,0.9999782386594047,3.374787327774154e-05
-0.21936680698709096,-0.21936680698709096,1.0000050115923664,3.362315058110613e-05
-0.217663336469559,-0.217663336469559,0.9999574893529729,3.363305381189841e-05
-0.2160095553670544,-0.2160095553670544,1.000128923108761,3.365073954055741e-05
-0.21393887118902058,-0.21393887118902058,1.0000796659745788,3.363294974251305e-05
-0.21253499758895486,-0.21253499758895486,1.0000711190612581,3.365623581878448e-05
-0.21117007053835551,-0.21117007053835551,0.9999456945292134,3.3639706285066654e-05
-0.21001190168317407,-0.21001190168317407,1.0000171838832221,3.366252119569987e-05
-0.2088245138511411,-0.2088245138511411,1.0000591777600196,3.36602342975156e-05
-0.2072778942005243,-0.2072778942005243,1.0000240977024002,3.3652462180455897e-05
-0.20600358430092455,-0.20600358430092455,1.0000626625201978,3.3676789654819636e-05
-0.2052029445665539,-0.2052029445665539,0.999981791653371,3.3641941763754626e-05
-0.20404208254185505,-0.20404208254185505,1.0000030461661338,3.37108233233079e-05
-0.20222430006688227,-0.20222430006688227,0.999959197710546,3.364974055589692e-05
-0.20089243204420199,-0.20089243204420199,1.0000279154292055,3.3623271254712404e-05
-0.1995529384628753,-0.1995529384628753,0.9999750733773263,3.36779729617713e-05
-0.19821752495336115,-0.19821752495336115,1.0000447630376161,3.372629122017734e-05
-0.19708813186589397,-0.19708813186589397,0.9999777652649705,3.363749309462353e-05
-0.19523688093177044,-0.19523688093177044,0.9999623763894208,3.364532161693448e-05
-0.19301572082767962,-0.19301572082767962,0.999933674239981,3.364116826777524e-05
-0.1910051457482041,-0.1910051457482041,1.0000438912984047,3.3640497586234074e-05
-0.18978173136420082,-0.18978173136420082,1.0000738457966136,3.36545937577088e-05
-0.1884881398291327,-0.1884881398291327,1.0000327001580422,3.364915805803516e-05
-0.187057079198712,-0.187057079198712,1.000000505750382,3.364757785652717e-05
-0.18568510327750118,-0.18568510327750118,0.9999520932246704,3.3669937245786615e-05
-0.1842826359672472,-0.1842826359672472,0.9999555200409468,3.368375218729694e-05
-0.18295236195699544,-0.18295236195699544,1.0000191470788233,3.363918656527519e-05
-0.182221017635311,-0.182221017635311,0.9999829442155882,3.374693252369924e-05
-0.1803681279809098,-0.1803681279809098,1.0000054766766278,3.36325959950672e-05
-0.17918852435977897,-0.17918852435977897,0.9999613308435352,3.363505764992031e-05
-0.17809422979335068,-0.17809422979335068,0.9999273785564678,3.363849644253942e-05
-0.1769842787165544,-0.1769842787165544,0.9999720884046036,3.368807326361214e-05
-0.17569335551961557,-0.17569335551961557,0.9999249520512073,3.371730802971597e-05
-0.17458754582476105,-0.17458754582476105,1.0000093581016094,3.3637822482854505e-05
-0.17231548774871044,-0.17231548774871044,1.0000596655945277,3.363260527245875e-05
-0.1706407069519628,-0.1706407069519628,0.9999933541590471,3.364625593787685e-05
-0.1689448154051206,-0.1689448154051206,1.000012722556357,3.363592250185911e-05
-0.1677398362546228,-0.1677398362546228,1.0000316974648997,3.365432113575461e-05
-0.16714809787517879,-0.16714809787517879,0.9999683715262903,3.362102359879376e-05
