time,time,flux,flux_err
-0.49967370541223016,-0.49967370541223016,1.0000582707322458,5.792323466414702e-05
-0.49867733667876263,-0.49867733667876263,1.0000263693279152,5.7808674320362236e-05
-0.49763933067394345,-0.49763933067394345,1.000021258958837,5.809415138663595e-05
-0.49711369863944127,-0.49711369863944127,1.0000503190561578,5.306052082270532e-05
-0.49661686208855826,-0.49661686208855826,1.0000356820450658,5.299361466233497e-05
-0.4960373587993672,-0.4960373587993672,0.9998901785065175,5.2746868555871146e-05
-0.49531607107201125,-0.49531607107201125,1.0000603438641718,5.2764280751440195e-05
-0.49470463100296913,-0.49470463100296913,1.0000118508613987,5.308058557253249e-05
-0.4934810979233589,-0.4934810979233589,1.0000017965005217,5.27789380660176e-05
-0.4927269820793299,-0.4927269820793299,1.0000164500722346,5.270463293603239e-05
-0.4922336504503619,-0.4922336504503619,0.9999964984959533,5.290179271220221e-05
-0.49144264186907094,-0.49144264186907094,1.0000976195763365,5.2573544398112025e-05
-0.49037718429754024,-0.49037718429754024,0.999879717876696,5.279013125802693e-05
-0.48956246038142126,-0.48956246038142126,0.9999086501434657,5.2926417002407486e-05
-0.4884999393339967,-0.4884999393339967,1.0000015236782152,5.2803419720742444e-05
-0.4874523505422985,-0.4874523505422985,1.000002430408325,5.273460665664915e-05
-0.48683680584072136,-0.48683680584072136,0.9999152552235164,5.2626296487019364e-05
-0.4854523869609693,-0.4854523869609693,0.9999651000820995,5.2891879250090926e-05
-0.484683948601014,-0.484683948601014,1.0000158336935767,5.294041504855662e-05
-0.4840384282666491,-0.4840384282666491,1.0000203507797947,5.273954820952984e-05
-0.4835610032605473,-0.4835610032605473,1.000101823042304,5.299693465534046e-05
-0.48248560198117046,-0.48248560198117046,1.0000400159267893,5.297575457861407e-05
-0.48143051358056255,-0.48143051358056255,1.000030412881213,5.277482807731047e-05
-0.48093910230963954,-0.48093910230963954,1.0000387685220002,5.267536870256342e-05
-0.48046840247989164,-0.48046840247989164,0.9999864364284893,5.287559764092773e-05
-0.4798227341932943,-0.4798227341932943,0.9999832445440646,5.266808231437239e-05
-0.4793188828363782,-0.4793188828363782,1.0000041456764994,5.268524493160774e-05
-0.4789160861226264,-0.4789160861226264,1.0000617047436795,5.2692718992043904e-05
-0.47816663565463385,-0.47816663565463385,0.9999899704292912,5.308143477069546e-05
-0.47741099527920594,-0.47741099527920594,1.000049394935838,5.273828487511185e-05
-0.47669718748365997,-0.47669718748365997,0.999988725952403,5.2779294747023464e-05
-0.47619323497347066,-0.47619323497347066,1.0000034726298666,5.278371576990649e-05
-0.4755663390562404,-0.4755663390562404,1.0000024968690262,5.2851279698841825e-05
-0.4749083880567923,-0.4749083880567923,0.9999708168186053,5.3827304710484565e-05
-0.4734817569638835,-0.4734817569638835,1.0000413310184775,5.2780506412809324e-05
-0.47254357481142506,-0.47254357481142506,1.0000131764185585,5.284716035018929e-05
-0.4720032788987737,-0.4720032788987737,0.9999812484446107,5.2951515992749926e-05
-0.47135313199833034,-0.47135313199833034,1.000051643574278,5.2749742195566574e-05
-0.4709793196612736,-0.4709793196612736,0.9999818413616802,5.318568309516541e-05
-0.4702536629221868,-0.4702536629221868,0.9999854799877739,5.2762986603295826e-05
-0.469557609903859,-0.469557609903859,0.9999896890313422,5.270615048330536e-05
-0.46907021969382184,-0.46907021969382184,0.9999148999960932,5.2840568844946606e-05
-0.4686442148726201,-0.4686442148726201,0.9999623474103002,5.301237828699737e-05
-0.46802423645858654,-0.46802423645858654,1.0000330352200848,5.272479514014054e-05
-0.4672013113100547,-0.4672013113100547,1.0000847992025952,5.272596658594627e-05
-0.46669659970211796,-0.46669659970211796,0.9999828924907064,5.2750073651973566e-05
-0.4661194641783368,-0.4661194641783368,0.9999588407624529,5.301544060970772e-05
-0.4651965039927745,-0.4651965039927745,0.999955031909366,5.2850090915399535e-05
-0.4646366908360505,-0.4646366908360505,0.9999206616410621,5.280052406806565e-05
-0.46416467502131126,-0.46416467502131126,1.0000358534336549,5.296976053462935e-05
-0.4637953560042661,-0.4637953560042661,0.9999225434994967,5.269701031312749e-05
-0.4633282473369036,-0.4633282473369036,1.0000050237349634,5.297681743932439e-05
-0.462675441900501,-0.462675441900501,1.000001569322254,5.2757196093756165e-05
-0.4619006824679673,-0.4619006824679673,0.9998682157909371,5.291740101620979e-05
-0.46154301837377715,-0.46154301837377715,0.9998952672020094,5.300488480356071e-05
-0.46095677351986525,-0.46095677351986525,1.0000210867681236,5.284964849803285e-05
-0.4601245121448301,-0.4601245121448301,0.9999544455012381,5.2934084755994607e-05
-0.4593009004835039,-0.4593009004835039,1.000105819279138,5.288468944652393e-05
-0.4585535304649966,-0.4585535304649966,0.999988081902879,5.269909762735236e-05
-0.45795560141268654,-0.45795560141268654,1.0001238710555918,5.298543822668013e-05
-0.4574430439068237,-0.4574430439068237,1.0000323171890948,5.2966003901583545e-05
-0.45695271514414343,-0.45695271514414343,0.9999341731464874,5.297327487483596e-05
-0.4564430411439389,-0.4564430411439389,1.0000675550897558,5.30703755625503e-05
-0.45553027364367155,-0.45553027364367155,0.9999695853270201,5.2763316198425566e-05
-0.45471360787923915,-0.45471360787923915,0.9999786213090222,5.3072650126041546e-05
-0.4538536904350622,-0.4538536904350622,0.9999301796216399,5.273972921989276e-05
-0.4530892330483766,-0.4530892330483766,1.0000043535540533,5.273101756629197e-05
-0.45266577079310083,-0.45266577079310083,1.0000067026755186,5.2914683813911476e-05
-0.45216659687575883,-0.45216659687575883,1.0000544886595475,5.265257002637826e-05
-0.45131481327698564,-0.45131481327698564,0.9998914786792177,5.267698408470701e-05
-0.4503144290938508,-0.4503144290938508,1.000007626200561,5.286887615236364e-05
-0.44898273883445655,-0.44898273883445655,1.000132834030247,5.302959735859473e-05
-0.44791158924053887,-0.44791158924053887,1.0000636685552078,5.300351142063331e-05
-0.4471510991541436,-0.4471510991541436,1.0000256557365312,5.26232730269384e-05
-0.44635084476612974,-0.44635084476612974,1.000013736461249,5.2680844290028634e-05
-0.4454495170968585,-0.4454495170968585,1.0000322369659815,5.302585930806662e-05
-0.4448535995063139,-0.4448535995063139,1.00004950972033,5.286817782079947e-05
-0.4441168148856377,-0.4441168148856377,1.000040021777241,5.281600919157858e-05
-0.44374909697507975,-0.44374909697507975,0.9999745336267718,5.298354879549992e-05
-0.4430984472390264,-0.4430984472390264,0.9999816280045668,5.2821701428556786e-05
-0.4419667338079307,-0.4419667338079307,1.000045949598674,5.274382232959252e-05
-0.4412842697260203,-0.4412842697260203,1.0000488198215638,5.271012549281456e-05
-0.44077907483151646,-0.44077907483151646,1.0000315137208826,5.287636008288734e-05
-0.44019194836437237,-0.44019194836437237,1.000113774631516,5.2562021051946254e-05
-0.4396161364507861,-0.4396161364507861,0.9999833023476639,5.276839290900071e-05
-0.4389529791602399,-0.4389529791602399,1.000099288420364,5.266069818280548e-05
-0.4385115207202034,-0.4385115207202034,1.000054888000659,5.280769051773692e-05
-0.43790917004225777,-0.43790917004225777,1.0000597928794863,5.300772555178159e-05
-0.43715787742403334,-0.43715787742403334,1.000016367454874,5.27911919235782e-05
-0.43666007813299074,-0.43666007813299074,0.9999379230824385,5.2699826260684836e-05
-0.43607456533936784,-0.43607456533936784,0.9999528978702692,5.29011242467942e-05
-0.43572101415193176,-0.43572101415193176,1.0000324222211305,5.268401566992434e-05
-0.43494559604150707,-0.43494559604150707,1.00001108170304,5.293091944321794e-05
-0.4339650637062732,-0.4339650637062732,0.9999907317225218,5.278858474519131e-05
-0.43317129895149264,-0.43317129895149264,1.000040212667454,5.2833148937684804e-05
-0.43245716813544277,-0.43245716813544277,1.0000483598336456,5.303821059168906e-05
-0.43172457806649617,-0.43172457806649617,0.9999531527437266,5.287163602309409e-05
-0.43107922658091413,-0.43107922658091413,0.9999983534007507,5.297049478040778e-05
-0.4301326609478565,-0.4301326609478565,1.0000976540927948,5.27699476546559e-05
-0.42933125619892964,-0.42933125619892964,0.999968227962713,5.310082372924758e-05
-0.42901477504055946,-0.42901477504055946,1.0000360513498259,5.282803851964088e-05
-0.42866191460052505,-0.42866191460052505,0.9999415886877389,5.2897855740731455e-05
-0.4278451714781113,-0.4278451714781113,0.9999338521152514,5.266250936678887e-05
-0.42716306246293245,-0.42716306246293245,0.9999466595989428,5.275374607027681e-05
-0.4266639481094899,-0.4266639481094899,0.9999069746088823,5.313302786507859e-05
-0.4258526778517989,-0.4258526778517989,1.0000539057278628,5.294738183729063e-05
-0.42531555114255754,-0.42531555114255754,1.0001111042428519,5.285692221915522e-05
-0.42478322617826053,-0.42478322617826053,0.9999798670487191,5.2737764623001416e-05
-0.42421114605094773,-0.42421114605094773,0.9999452659319923,5.291767152397562e-05
-0.4237856518739136,-0.4237856518739136,1.0000444795914396,5.2782600408358526e-05
-0.4229977232665988,-0.4229977232665988,0.9999953774267467,5.2798389019737185e-05
-0.4220869931217749,-0.4220869931217749,1.000017270123211,5.3004584338856486e-05
-0.4214486842625774,-0.4214486842625774,0.9999416443500134,5.284063689878916e-05
-0.4204836208140478,-0.4204836208140478,0.9999266164551125,5.2783490209821926e-05
-0.41962928854627535,-0.41962928854627535,1.000089666732563,5.291455415797928e-05
-0.41883268020465036,-0.41883268020465036,0.9999499111218298,5.265082103917354e-05
-0.4182247959455708,-0.4182247959455708,0.9999409217195113,5.3033740002699165e-05
-0.4176584398024715,-0.4176584398024715,1.0000013435082902,5.297002767085583e-05
-0.4172838196507655,-0.4172838196507655,0.9999583926610773,5.295388454368648e-05
-0.41685418912093153,-0.41685418912093153,0.9999799972170227,5.311403620737668e-05
-0.41639681834494696,-0.41639681834494696,1.0000549168574548,5.273825627510926e-05
-0.4156991384777939,-0.4156991384777939,0.9999558709705199,5.270097126743742e-05
-0.41466825931856877,-0.41466825931856877,0.9999650999068216,5.3135899390221185e-05
-0.41393217210716104,-0.41393217210716104,0.9999912016045156,5.277299065333153e-05
-0.4132247035013279,-0.4132247035013279,0.9999984987877181,5.270068272934897e-05
-0.41271817761880814,-0.41271817761880814,0.9999756790624659,5.292206479470657e-05
-0.4119811205746373,-0.4119811205746373,1.0000095053936262,5.275719128378936e-05
-0.41111812462622765,-0.41111812462622765,0.9999719467319033,5.284599181992237e-05
-0.41029389316390735,-0.41029389316390735,1.0000180261670037,5.293054140608596e-05
-0.4090932369028451,-0.4090932369028451,0.9999993713123981,5.30708368346486e-05
-0.408226062337053,-0.408226062337053,0.9999465873397609,5.2952186211422615e-05
-0.40756790755549444,-0.40756790755549444,0.9999562269133502,5.275677954029418e-05
-0.40680866348266137,-0.40680866348266137,0.9999379325667604,5.279897751748118e-05
-0.4058624114026316,-0.4058624114026316,1.0000118935324507,5.293683485261024e-05
-0.4051410428393865,-0.4051410428393865,0.9999854466565704,5.293952700642649e-05
-0.40463291190972084,-0.40463291190972084,1.0000129906253448,5.274223633942928e-05
-0.40404095317353494,-0.40404095317353494,1.0000387882355728,5.3072897624731125e-05
-0.4033107432536781,-0.4033107432536781,0.9999552095235865,5.273385891739214e-05
-0.4023306808958296,-0.4023306808958296,1.0000504628622313,5.2678935980835514e-05
-0.4017031947849318,-0.4017031947849318,0.9999583973331607,5.275943610141497e-05
-0.4010799283540109,-0.4010799283540109,1.0000331851309965,5.2858248813736664e-05
-0.40063497236697004,-0.40063497236697004,0.9999776011135572,5.280415778311445e-05
-0.40018742461979856,-0.40018742461979856,0.9999989149057662,5.275356153796489e-05
-0.3995523373276228,-0.3995523373276228,0.9999165695242966,5.2775159638726956e-05
-0.3990522081410745,-0.3990522081410745,1.0000815436081907,5.2735720627432194e-05
-0.3987114571064012,-0.3987114571064012,0.9999541514557382,5.2772909844277877e-05
-0.3981416857452132,-0.3981416857452132,0.9999665740594483,5.300727180011581e-05
-0.3972761715966044,-0.3972761715966044,0.9999385965084955,5.278718323198172e-05
-0.3968656492128503,-0.3968656492128503,0.9999988129098794,5.270494167141183e-05
-0.3962496178690344,-0.3962496178690344,1.000029210646919,5.2915492557290986e-05
-0.39587697336974087,-0.39587697336974087,1.00003611256554,5.270527957373264e-05
-0.3950671309255995,-0.3950671309255995,1.0000529247938448,5.277373008148213e-05
-0.3937441993766697,-0.3937441993766697,0.9999938289340135,5.287588222554385e-05
-0.3931062620511511,-0.3931062620511511,0.9999707874780416,5.290775057342769e-05
-0.3926025528489845,-0.3926025528489845,0.9999435677832913,5.323335741970477e-05
-0.39200059331487863,-0.39200059331487863,1.0000466363327394,5.2912607056434395e-05
-0.3914714627666399,-0.3914714627666399,0.9999900752105735,5.2926996379997824e-05
-0.39091085343388843,-0.39091085343388843,1.00001863502509,5.280775712057603e-05
-0.3903973850014154,-0.3903973850014154,1.0000948373360328,5.266710701562801e-05
-0.389607521877042,-0.389607521877042,0.9999128408214768,5.290372240955792e-05
-0.38901241147250404,-0.38901241147250404,1.000078080261169,5.2882108271714287e-05
-0.3884041644196259,-0.3884041644196259,1.000061021688148,5.276937504697922e-05
-0.38776515721692706,-0.38776515721692706,0.9999055870830663,5.269029552352754e-05
-0.38720331534277647,-0.38720331534277647,1.0000028346171643,5.2814852787508314e-05
-0.38658902009192386,-0.38658902009192386,0.9999153913381615,5.310683278459805e-05
-0.38583146254823075,-0.38583146254823075,0.9999699399433567,5.279108733180025e-05
-0.38504513626103287,-0.38504513626103287,1.0000490426584214,5.27366949834673e-05
-0.3845764430210693,-0.3845764430210693,1.0000108849585279,5.2913817881058946e-05
-0.3841558187123155,-0.3841558187123155,1.000029340583031,5.273593469546972e-05
-0.38358287449809725,-0.38358287449809725,0.9999736737540055,5.285940819784446e-05
-0.38262146804481745,-0.38262146804481745,1.0000076558905782,5.288773722247774e-05
-0.3819463375635678,-0.3819463375635678,1.0000531694451915,5.28502421291101e-05
-0.3808933021791745,-0.3808933021791745,1.0000282549396975,5.280320076343631e-05
-0.3799205045535928,-0.3799205045535928,1.0001110907806288,5.28210705956462e-05
-0.3794355834048474,-0.3794355834048474,0.9999859998071192,5.287103813089993e-05
-0.37881055986799766,-0.37881055986799766,0.9999769268707845,5.2799313728643007e-05
-0.3781893846782623,-0.3781893846782623,1.000077855412132,5.298084707091464e-05
-0.37770349548081866,-0.37770349548081866,1.000010418856983,5.304726336579378e-05
-0.37725194460363126,-0.37725194460363126,1.0000177176799434,5.31464340036816e-05
-0.3767582936299732,-0.3767582936299732,1.0000342916306262,5.283762820965899e-05
-0.37583313275536057,-0.37583313275536057,1.000026741004464,5.2668859555387714e-05
-0.3747444902779534,-0.3747444902779534,1.0000024716582865,5.2986374257043254e-05
-0.3738195164623903,-0.3738195164623903,1.000088844409664,5.3151730507217725e-05
-0.3735026136651868,-0.3735026136651868,1.0000547517395109,5.276463281851518e-05
-0.3730742551124422,-0.3730742551124422,0.9999910794567519,5.286315295153953e-05
-0.3724006542208372,-0.3724006542208372,1.000003731324745,5.269439563309446e-05
-0.37153500831336717,-0.37153500831336717,0.9999907138997763,5.277113772561149e-05
-0.3707857492379844,-0.3707857492379844,0.9998839092697356,5.284149733699124e-05
-0.3699486805009656,-0.3699486805009656,0.999962723827716,5.303817579090987e-05
-0.36890751743339933,-0.36890751743339933,1.0000037792635739,5.2887034642596257e-05
-0.3681629142520251,-0.3681629142520251,1.0000055213849117,5.303355978791672e-05
-0.36761119656439406,-0.36761119656439406,1.0000577155643835,5.2652149488825544e-05
-0.3668286601139698,-0.3668286601139698,1.000015118274201,5.291542058582816e-05
-0.36543169946817217,-0.36543169946817217,0.9999775357813142,5.303940886358902e-05
-0.3650478914787527,-0.3650478914787527,1.0001162088262,5.293974311661359e-05
-0.36452424874878486,-0.36452424874878486,0.9999887695739386,5.2808705546881674e-05
-0.36404668767354453,-0.36404668767354453,1.0000865587836465,5.297717404347988e-05
-0.36309645815344993,-0.36309645815344993,1.0000313525992162,5.271287028673972e-05
-0.3622365708986763,-0.3622365708986763,0.9999372549859196,5.271056155374494e-05
-0.3618736069649458,-0.3618736069649458,0.9999585652363809,5.297931051037358e-05
-0.36126081948750655,-0.36126081948750655,0.9999763507768014,5.2956889828125116e-05
-0.36072511262027546,-0.36072511262027546,1.00004884006381,5.296263551878438e-05
-0.3604058472730685,-0.3604058472730685,1.000033831819162,5.2755533601586344e-05
-0.3595368475478608,-0.3595368475478608,1.0000106637973913,5.278930241130607e-05
-0.3590574990812456,-0.3590574990812456,0.9999716819227725,5.2842746964213824e-05
-0.358494007011177,-0.358494007011177,0.9999437724538522,5.297608649006441e-05
-0.35771845903072974,-0.35771845903072974,1.0000137392028632,5.290709213129429e-05
-0.35716609010705724,-0.35716609010705724,0.9999754808730369,5.271848885463316e-05
-0.35642992320354094,-0.35642992320354094,0.9999683022760901,5.2622038223421294e-05
-0.3559809162688907,-0.3559809162688907,0.9999053096333517,5.294148131063434e-05
-0.35521061059844217,-0.35521061059844217,1.000048683856235,5.296454365243698e-05
-0.3543335862428648,-0.3543335862428648,0.9999874128268192,5.2763885960180466e-05
-0.35368470938701646,-0.35368470938701646,1.0000398752977444,5.286735763971454e-05
-0.3530794414575212,-0.3530794414575212,1.000005769636443,5.2987951318739874e-05
-0.3525003594259033,-0.3525003594259033,0.9999488497221509,5.294781608739314e-05
-0.35188811404805165,-0.35188811404805165,1.0000005665919833,5.2663344442006615e-05
-0.3511581088765524,-0.3511581088765524,1.0000373680851782,5.2803371698541584e-05
-0.3505786693684058,-0.3505786693684058,0.9999381725564813,5.289001706950499e-05
-0.3496143823984312,-0.3496143823984312,1.0000380468051815,5.290837551267987e-05
-0.349102051727823,-0.349102051727823,1.0000766065541942,5.2967792201524916e-05
-0.34837400005199015,-0.34837400005199015,1.0000409513409296,5.2678660061202594e-05
-0.34767550710530487,-0.34767550710530487,1.0000721436678155,5.2693732767688695e-05
-0.3473276096570771,-0.3473276096570771,1.000029180518163,5.279933946473732e-05
-0.34649761440814475,-0.34649761440814475,1.000013224329945,5.2966066572788854e-05
-0.34583590929978525,-0.34583590929978525,0.9998716057240822,5.282758297201161e-05
-0.34530683225311803,-0.34530683225311803,0.9999954615185371,5.2731096894299076e-05
-0.3448962354799733,-0.3448962354799733,0.9999741673896991,5.29280888238449e-05
-0.3443316427874379,-0.3443316427874379,1.000037772891988,5.281378138869762e-05
-0.3435668256162899,-0.3435668256162899,1.0000086208294636,5.279967598991144e-05
-0.34266790147230497,-0.34266790147230497,1.0000164661843995,5.2886822329181435e-05
-0.3419845240539871,-0.3419845240539871,1.0000610512570376,5.284552251082225e-05
-0.3410122162720654,-0.3410122162720654,0.9999800195303262,5.2801617761682315e-05
-0.34007622180797625,-0.34007622180797625,0.9999651881468749,5.2909473226032414e-05
-0.33949020311119965,-0.33949020311119965,1.000048492053834,5.26354826029069e-05
-0.33893349320569544,-0.33893349320569544,0.9999914050705261,5.283423964271731e-05
-0.33813912011974023,-0.33813912011974023,0.9999506791194648,5.3069714531400745e-05
-0.33778026700601915,-0.33778026700601915,0.9999778848819514,5.2822196450420625e-05
-0.3373506721050944,-0.3373506721050944,0.999956129217567,5.2932658649374645e-05
-0.336668257767451,-0.336668257767451,1.0000300367164032,5.27266449738061e-05
-0.3355268724146299,-0.3355268724146299,0.9999822106662869,5.3015605703948504e-05
-0.3345773320674198,-0.3345773320674198,1.0000791385804046,5.2718501881508926e-05
-0.33383099128550386,-0.33383099128550386,0.99998063486184,5.300961736314393e-05
-0.3335079935583053,-0.3335079935583053,0.9999610266370471,5.26840177484177e-05
