time,time,flux,flux_err
-0.4989775094976115,-0.4989775094976115,0.9994920896706382,0.0003234136003941092
-0.4973087099955592,-0.4973087099955592,0.999924708172494,0.00037514616792348
-0.49601184971106704,-0.49601184971106704,0.9998668780764882,0.00029514138045072486
-0.4948227196793596,-0.4948227196793596,0.9995403416273334,0.0002955112183906111
-0.49362917002217727,-0.49362917002217727,0.9998837720057863,0.00029884223363439504
-0.4911282229862991,-0.4911282229862991,1.000124673685743,0.00029503239512950955
-0.4893845880709705,-0.4893845880709705,0.9997465608666449,0.0002949836672516873
-0.48784842067907447,-0.48784842067907447,1.0002221167722634,0.00029523194227954114
-0.4869254363969958,-0.4869254363969958,1.0002861623363204,0.0002954817413579701
-0.4855468691675924,-0.4855468691675924,0.9996448033946855,0.00029552865982708634
-0.48228155068936757,-0.48228155068936757,0.9999422288662965,0.0002950065436099562
-0.4808825512496696,-0.4808825512496696,1.000057676529655,0.000295237168709924
-0.4793312947214872,-0.4793312947214872,1.0003195308590747,0.0002956537587301583
-0.47798149476730034,-0.47798149476730034,0.999524010757105,0.00029504646372939346
-0.47643446796864736,-0.47643446796864736,1.0003252380279153,0.0003042310977015205
-0.4740776297629054,-0.4740776297629054,1.0002638757696247,0.00029493808271888227
-0.47198203272128014,-0.47198203272128014,1.0006816494954491,0.00029512111873142483
-0.47069307330821175,-0.47069307330821175,1.000334344519614,0.00040211041940844294
-0.4694046993332449,-0.4694046993332449,1.0002781654414938,0.00029542079371510125
-0.46832225798789295,-0.46832225798789295,1.0001710372709032,0.00031558121575501585
-0.4663412630521634,-0.4663412630521634,1.000076768694384,0.00029585694003428093
-0.46402615326805974,-0.46402615326805974,0.999893231102288,0.00036456557498198175
-0.46258783848243185,-0.46258783848243185,1.0004168568062266,0.0002950960383614347
-0.4612406127504073,-0.4612406127504073,1.0000158349412218,0.0002978423882832752
-0.4602871838797,-0.4602871838797,1.0003989428291988,0.0002952605614653987
-0.458968839069712,-0.458968839069712,0.9999007887232875,0.0002954093308106204
-0.4566950593798538,-0.4566950593798538,0.9999382637435014,0.00031577784358015587
-0.4550264773002709,-0.4550264773002709,1.0000605148104775,0.00029497193887452727
-0.4536888862327032,-0.4536888862327032,1.0003147740567093,0.00029515272205034434
-0.45247120368730975,-0.45247120368730975,1.0004051824533773,0.0003844445912826665
-0.4510622839377902,-0.4510622839377902,0.9994778798717278,0.00029520393874443403
-0.4497099467138469,-0.4497099467138469,1.0000409481103927,0.00029757576067836444
-0.4470017480685783,-0.4470017480685783,1.0001106035882938,0.00029508471026143645
-0.4452648581827816,-0.4452648581827816,0.9995135357346687,0.00029492758553314156
-0.44373253349913283,-0.44373253349913283,1.0001360994622805,0.0002952232456113296
-0.4428079134573636,-0.4428079134573636,0.9997805071641604,0.00029533061184127844
-0.44146054837838167,-0.44146054837838167,1.0000537649138546,0.00029554118317824706
-0.43949317111837444,-0.43949317111837444,0.9997988078265158,0.00033786805331732436
-0.43757034046575427,-0.43757034046575427,1.0002022864273739,0.0002952263233719081
-0.43610968133216377,-0.43610968133216377,0.9998255576818188,0.0002951461562706914
-0.43471435938918146,-0.43471435938918146,0.9997822326451381,0.000295063205274185
-0.43320195356282054,-0.43320195356282054,0.9994773268627991,0.0002954592657894516
-0.43046841101677275,-0.43046841101677275,1.0000275659445208,0.00030078431852054274
-0.42786347681394543,-0.42786347681394543,1.0001470841810807,0.00029509708231411545
-0.4268183191605203,-0.4268183191605203,1.0007976014533029,0.00043234536361925547
-0.4255423814378446,-0.4255423814378446,1.0004961432879231,0.0002951686100971129
-0.4249585975943774,-0.4249585975943774,1.0002467798797194,0.00040462456758819
-0.4240623708581552,-0.4240623708581552,0.9999718926319334,0.0003083836503324836
-0.4222412466420792,-0.4222412466420792,1.0004880529226987,0.0002955162784612684
-0.42027863770563273,-0.42027863770563273,1.0002664970700708,0.00035084654374180596
-0.4193896679702448,-0.4193896679702448,0.9999012423489102,0.0002950567479995004
-0.41814948684186676,-0.41814948684186676,1.0004024459866063,0.0002952200476138351
-0.4167539415589999,-0.4167539415589999,0.9999404224599588,0.0002964309324868052
-0.41521381322090745,-0.41521381322090745,1.000180338003081,0.0002955362572375971
-0.41300404287540005,-0.41300404287540005,0.9998253519437185,0.0003087309310810751
-0.4112063152053452,-0.4112063152053452,1.0004223055535792,0.00029503814806356745
-0.40997376864543184,-0.40997376864543184,1.0001246242689579,0.000295413233405223
-0.4088994618519791,-0.4088994618519791,1.000127486612096,0.0003916650500239382
-0.4074892140168231,-0.4074892140168231,0.9994368860280023,0.00029518214186891983
-0.40649407736345894,-0.40649407736345894,1.000642191924325,0.00032795501429842627
-0.40524940183386204,-0.40524940183386204,1.0002545441908528,0.00029685751870024994
-0.40248476055421634,-0.40248476055421634,1.0007056436140895,0.00038137362260541087
-0.4012378899715259,-0.4012378899715259,1.000043142755906,0.00029501518772120916
-0.3999139315223147,-0.3999139315223147,0.9999836619351081,0.0003001443917207403
-0.39884421667375136,-0.39884421667375136,1.0000178986394987,0.00029543426962293744
-0.3973226459231228,-0.3973226459231228,1.000137962632449,0.000295358022723615
-0.3949441229284275,-0.3949441229284275,0.9998138103960649,0.00032652032804313997
-0.3931580708675028,-0.3931580708675028,1.0004954213589312,0.0002949380019992219
-0.39170987590259754,-0.39170987590259754,1.0002021607336193,0.00029523217019692533
-0.3901070071122376,-0.3901070071122376,1.0001557265793912,0.00029518874322060186
-0.3885182783065829,-0.3885182783065829,1.0003337811514306,0.00029557815220383163
-0.38671319290660905,-0.38671319290660905,0.9998358013206099,0.0002989334642696517
-0.38403797971186576,-0.38403797971186576,1.000048579523745,0.0002951030703266854
-0.3825609926068864,-0.3825609926068864,0.9998893851777464,0.00029496941105366557
-0.3811788065395376,-0.3811788065395376,0.9996673439903445,0.0002953609936670698
-0.38048499184442336,-0.38048499184442336,1.000278179150061,0.0002954153957932695
-0.37907048212291555,-0.37907048212291555,1.0002594432566319,0.00029558836124546817
-0.37607245162071196,-0.37607245162071196,0.9994264032910483,0.00029495585666786193
-0.3746740512753604,-0.3746740512753604,1.000147954454305,0.0002952060595845783
-0.37312295285082653,-0.37312295285082653,1.0000496019351626,0.0002957022255493127
-0.37177180543294525,-0.37177180543294525,0.9996052564490009,0.0002950588869050676
-0.3702249384485185,-0.3702249384485185,0.99987124169126,0.0003046051651746509
-0.3678689651293098,-0.3678689651293098,1.0001028909405292,0.0002949593358555644
-0.36577299176569794,-0.36577299176569794,0.9999140186088924,0.00029506045239921307
-0.3644848716023262,-0.3644848716023262,0.9998707026318238,0.0004013889473789138
-0.36319504446655626,-0.36319504446655626,1.0001710498267822,0.00029542764054217184
-0.36211348253564213,-0.36211348253564213,1.0003468090795202,0.0003166336767758905
-0.3601321021611511,-0.3601321021611511,1.0001352714364788,0.00029591820800065245
-0.35781664483074566,-0.35781664483074566,1.000301044129478,0.0003663374539299898
-0.35637999742975807,-0.35637999742975807,1.0003725273056623,0.00029506474679957074
-0.35503189484588804,-0.35503189484588804,1.000389151103813,0.00029799858353817845
-0.3540619945168146,-0.3540619945168146,1.0003844109785904,0.0002953538647697629
-0.3523961898274138,-0.3523961898274138,1.0001208885027282,0.0003169098375673955
-0.350102426722151,-0.350102426722151,1.0001661729028974,0.0002951163064353685
-0.3485126479426981,-0.3485126479426981,0.9995067558154377,0.0002952397915920082
-0.3471924013014359,-0.3471924013014359,1.0005339569689928,0.00029510453459736987
-0.34597851389553397,-0.34597851389553397,0.9990272467778014,0.0003836701981511335
-0.34455842866882447,-0.34455842866882447,1.0002525222364897,0.00029543471965488263
-0.34315298307992637,-0.34315298307992637,1.0002700672519516,0.0002977849419519531
-0.3403528882023238,-0.3403528882023238,1.0000067862886084,0.00029491062353714017
-0.33875219062829276,-0.33875219062829276,0.9997371879502847,0.0002950953576612729
-0.33723850707683595,-0.33723850707683595,0.9993611268300377,0.0002951066813180271
-0.33644954749324824,-0.33644954749324824,1.000969565297947,0.0002954614357401425
-0.33480534234258813,-0.33480534234258813,0.9999124470243819,0.00029540530805271544
-0.33316613869319556,-0.33316613869319556,0.9998867757139058,0.00033913000096837803
-0.33136126389945275,-0.33136126389945275,0.9995175902758096,0.0002952091715734852
-0.32990123633790064,-0.32990123633790064,0.9998723300187107,0.0002951398114081522
-0.3285059055640886,-0.3285059055640886,1.0001514076743425,0.00029512318614915983
-0.326992037754826,-0.326992037754826,1.0003189757892428,0.00029552418646038985
-0.3242600078985561,-0.3242600078985561,0.9999917949941702,0.00030099619197638617
-0.321654421043786,-0.321654421043786,1.0002910356149979,0.00029512090729921715
-0.32060956365094173,-0.32060956365094173,1.000191849840114,0.0004272850537479477
-0.31933278896176487,-0.31933278896176487,1.0000420719624858,0.000295131104142893
-0.3186538606787508,-0.3186538606787508,0.9999063994563793,0.00040978013408729194
-0.3176592341398646,-0.3176592341398646,0.9998740402584844,0.00030902815159136526
-0.31545208126553914,-0.31545208126553914,0.9999099134547771,0.0002955699136424058
-0.3139483479157207,-0.3139483479157207,0.9998637061440121,0.00035223318730549596
-0.3128135623475828,-0.3128135623475828,0.9996386614349146,0.0002950843395498661
-0.3113982454437064,-0.3113982454437064,1.0004304973540026,0.00029655957334128125
-0.3105028461082838,-0.3105028461082838,1.0002446380040948,0.0002956538031310109
-0.3094395152606012,-0.3094395152606012,0.9998608570178631,0.0002953155811989996
-0.30721619842006476,-0.30721619842006476,0.9999370153149567,0.0003095451025938591
-0.3053135900430789,-0.3053135900430789,0.9996385637639795,0.0002950473306221259
-0.30394512373386534,-0.30394512373386534,0.999823923462847,0.00029522075671428353
-0.3028545681372634,-0.3028545681372634,1.0000029147081633,0.0003905089673931765
-0.3015692456523539,-0.3015692456523539,1.0002254110211646,0.0002951786536507269
-0.300534625522414,-0.300534625522414,1.000355393899812,0.00029537085912325955
-0.2993917307852826,-0.2993917307852826,0.9995113251234595,0.00033082581492765447
-0.29670022948339464,-0.29670022948339464,0.9998827207241708,0.00038285056785158174
-0.2954932007858588,-0.2954932007858588,1.000361176263552,0.00029518510229290765
-0.29427811689965894,-0.29427811689965894,0.9997717998022807,0.0002951444965480565
-0.292944765365246,-0.292944765365246,0.9996415980422206,0.0003004687725494744
-0.29189639919204635,-0.29189639919204635,1.000258399113981,0.0002951621407918278
-0.28985616615973414,-0.28985616615973414,1.000206592554659,0.0003280469694127104
-0.287442696562357,-0.287442696562357,1.0002333413478015,0.00029519639813060635
-0.28607116164130275,-0.28607116164130275,0.9994965101738107,0.0002950636353449904
-0.2846672957748524,-0.2846672957748524,1.0004300835659605,0.0002951491771896011
-0.283301384942024,-0.283301384942024,1.0003566306421274,0.000295331306870207
-0.2815872071827471,-0.2815872071827471,1.0003717700610317,0.0002992593714244058
-0.27928831836761675,-0.27928831836761675,1.0003748666167902,0.00029501386145292354
-0.27725965736899527,-0.27725965736899527,0.9995507976323506,0.00029499897926869525
-0.2757358786111581,-0.2757358786111581,0.9997320958209432,0.000295195762771876
-0.2746572530464618,-0.2746572530464618,0.9999455226684308,0.0002955773497185324
-0.27358363828388976,-0.27358363828388976,0.9997635724469381,0.00029527190483987994
-0.2703883061207307,-0.2703883061207307,1.0000127925324513,0.00029506450568892535
-0.2686934418954479,-0.2686934418954479,1.00030465142436,0.0002951670748235482
-0.26723311245950754,-0.26723311245950754,1.000109776179676,0.00029579551302553184
-0.26583134169413825,-0.26583134169413825,1.0003534692353067,0.0002952619467967314
-0.26437297717202457,-0.26437297717202457,1.0002916083757014,0.00029550696616310304
-0.2622557650225644,-0.2622557650225644,0.999731099456222,0.0003047617563471595
-0.260360030636366,-0.260360030636366,1.0001860454695022,0.0002950414872285227
-0.25899773944402116,-0.25899773944402116,1.0004386808100953,0.0002950029942154542
-0.2577512702242529,-0.2577512702242529,0.9997494125283014,0.000400684027211845
-0.2565896701082238,-0.2565896701082238,0.9997139664984507,0.0002953304316777092
-0.2554848493229656,-0.2554848493229656,1.0001022762718397,0.00031854098409772006
-0.25257474793106666,-0.25257474793106666,1.0001753488032095,0.0003678691086272241
-0.2511139117254061,-0.2511139117254061,1.0002975419381772,0.00029506965125087426
-0.2495811367924034,-0.2495811367924034,1.0004501181884187,0.0002982591216347821
-0.24851922586822184,-0.24851922586822184,0.9996568274295761,0.0002953590179911558
-0.2473462879897852,-0.2473462879897852,1.0001655841789783,0.0002953559649433633
-0.24512730839924188,-0.24512730839924188,0.9996458437591793,0.0003176446977887852
-0.24322140000367654,-0.24322140000367654,0.9998309348956234,0.00029507767871084803
-0.2417314702324802,-0.2417314702324802,0.9998009382125913,0.0002953536360354344
-0.2406089442236407,-0.2406089442236407,0.999887690456036,0.000382933565410611
-0.23918582536789473,-0.23918582536789473,1.0005980776314607,0.0002953513994728001
-0.23771671009308193,-0.23771671009308193,1.0001102613919772,0.00029765884002692857
-0.23591232664548442,-0.23591232664548442,0.9999823753261567,0.0002951667747599023
-0.23341769922335515,-0.23341769922335515,1.0000137948637584,0.00029503512813640955
-0.2318976540234871,-0.2318976540234871,1.0000388538664224,0.00029516740352015277
-0.23070987594983308,-0.23070987594983308,1.0000033850261991,0.0002954521744258467
-0.22969400964502712,-0.22969400964502712,1.000031757098316,0.0002950259938343571
-0.22778959766437765,-0.22778959766437765,1.0002270501397126,0.00034094874613978325
-0.2253444768190093,-0.2253444768190093,1.000080047681732,0.0002952447874631786
-0.22399226396009908,-0.22399226396009908,0.9996015396591791,0.0002950380537161875
-0.22266304418371874,-0.22266304418371874,1.0000488249027957,0.00030448474647531683
-0.22144938250639826,-0.22144938250639826,1.0006480969973737,0.00029513236394792055
-0.21942345025454416,-0.21942345025454416,0.9994866207419246,0.0003018329867784831
-0.21618469198874662,-0.21618469198874662,1.0001835225013025,0.00029495030090200285
-0.21469521718390752,-0.21469521718390752,1.000110893433115,0.0002950806512154524
-0.21365903667756356,-0.21365903667756356,0.9996639604854293,0.00042107867212964716
-0.21275808319624048,-0.21275808319624048,1.00016962792709,0.0004154104497896151
-0.2117837094956485,-0.2117837094956485,0.9995495701593742,0.000309612934925407
-0.2098219349187275,-0.2098219349187275,0.9998987270891074,0.00029560090144748304
-0.20786044298074557,-0.20786044298074557,1.000358923043115,0.00035368379029713224
-0.2068960171600338,-0.2068960171600338,0.9998332599137736,0.000294915942913262
-0.2054568317842495,-0.2054568317842495,1.0005134915659442,0.0002968678143230598
-0.2042464988051506,-0.2042464988051506,0.9998563352707537,0.0002953221379612478
-0.2027940419931838,-0.2027940419931838,1.0003186645433086,0.0002955801469100662
-0.20058572679918144,-0.20058572679918144,0.999970019349095,0.000310064276913724
-0.1987896491336869,-0.1987896491336869,1.0000579095145448,0.0002950042794931989
-0.19755374672095058,-0.19755374672095058,1.0001760440720133,0.00029542739174844403
-0.1964830014621839,-0.1964830014621839,1.0000957004831441,0.0003895403547452299
-0.19507040139651508,-0.19507040139651508,1.0005101684904498,0.0002952764488617787
-0.1940763022612373,-0.1940763022612373,1.0001364751388013,0.0003309078191124873
-0.19283010520302923,-0.19283010520302923,0.9999967225145632,0.0002969969008625625
-0.19006855142652057,-0.19006855142652057,0.999925487068307,0.000384411115131993
-0.18881928303453605,-0.18881928303453605,1.0000987643476607,0.0002949769673862832
-0.18749714124205638,-0.18749714124205638,0.9997193145580179,0.0003007716834411877
-0.18642548467396408,-0.18642548467396408,0.9999226695193467,0.00029543386585592835
-0.1849041090659739,-0.1849041090659739,1.000235870935974,0.00029537798947685244
-0.18258156002993928,-0.18258156002993928,0.9999614248423535,0.0003289027748745221
-0.18103392627745052,-0.18103392627745052,0.9998054417864862,0.00029518682021934076
-0.1795688412938034,-0.1795688412938034,1.0004364099087457,0.0002952740381253287
-0.17828043060580967,-0.17828043060580967,1.0000055065700946,0.0002951960880240339
-0.17676344236242586,-0.17676344236242586,0.9999730612256361,0.00029549642482605765
-0.175094733737933,-0.175094733737933,1.0001345508561266,0.0002994256758363077
-0.17250374292270862,-0.17250374292270862,1.0003327979115908,0.0002951380550543383
-0.17075785776614794,-0.17075785776614794,0.9996020802751288,0.0002949697056145771
-0.1692204206767201,-0.1692204206767201,1.0003214464931887,0.00029519686746080166
-0.16829797879836406,-0.16829797879836406,0.9998315104346318,0.0002954116184278113
-0.16691702971729683,-0.16691702971729683,0.9999755359338582,0.00029550271863260227
-0.16365425860640243,-0.16365425860640243,0.9998885773364469,0.0002950065615651177
-0.16237917888574885,-0.16237917888574885,0.9997153458446155,0.00029500663412322724
-0.16102472329876036,-0.16102472329876036,0.9999029231968775,0.000295853476237733
-0.15962226683477637,-0.15962226683477637,0.9996921263935444,0.00029523563776747563
-0.1581629898530082,-0.1581629898530082,0.999268164891148,0.0002953811277199688
-0.15604630045490922,-0.15604630045490922,0.9998761680255924,0.0003052330061845391
-0.1541521864492097,-0.1541521864492097,0.9999047442516391,0.0002950036036979312
-0.15278885659354274,-0.15278885659354274,0.9997852224538551,0.00029490195047039887
-0.1515416646405356,-0.1515416646405356,0.9998216550392514,0.0003998398969381429
-0.15038082087266957,-0.15038082087266957,1.0000027160307439,0.00029532733584203405
-0.1492755334606045,-0.1492755334606045,1.0000056659650884,0.00031970930849372075
-0.14636646588915028,-0.14636646588915028,0.9995118491493102,0.0003695717738749398
-0.1451370285351004,-0.1451370285351004,0.9997189472161242,0.00029510400877414913
-0.1436485944701417,-0.1436485944701417,0.999775342298436,0.0002951147778009198
-0.14246500689623645,-0.14246500689623645,1.000176963702727,0.0002984656809477758
-0.1413687464540999,-0.1413687464540999,0.999934424254544,0.0002950562031621286
-0.139526376593858,-0.139526376593858,1.0000804066076983,0.00031881539873035566
-0.13701219125796343,-0.13701219125796343,1.000150440160727,0.00029506468627410145
-0.13552232188012567,-0.13552232188012567,1.0000357931538055,0.0002953816584821046
-0.1344007165891526,-0.1344007165891526,0.9999739139421994,0.0003820957693406549
-0.13297643572514062,-0.13297643572514062,1.000030770205791,0.00029530857920832
-0.1315076383696578,-0.1315076383696578,0.9997370216430097,0.00029771691708442734
-0.12970318826191943,-0.12970318826191943,1.0006707147027796,0.0002952249672489786
-0.12720861297420924,-0.12720861297420924,0.9996585501419647,0.00029502205526638287
-0.12568928253094783,-0.12568928253094783,1.0000616575068129,0.0002951480103225816
-0.124500340733357,-0.124500340733357,1.0002826624726875,0.0002954418123159114
-0.12348427671895479,-0.12348427671895479,0.9996954945441072,0.00029502729002138067
-0.12121911125868792,-0.12121911125868792,0.9997919149400911,0.0002954029233868649
-0.11894311533033033,-0.11894311533033033,1.0001142389847275,0.00029525347120489237
-0.11748435090994462,-0.11748435090994462,0.9999429172394063,0.00029518112905726026
-0.11608900019491557,-0.11608900019491557,0.9998170194673518,0.00029518616272762604
-0.11457220897791558,-0.11457220897791558,0.9998171429245126,0.0002954913066684638
