time,time,flux,flux_err
-0.49874558890345116,-0.49874558890345116,0.9999818739156475,0.00011631471071961775
-0.496767437369878,-0.496767437369878,0.9999485901911486,0.00011620290077886438
-0.4945946114479739,-0.4945946114479739,1.0000377896562491,0.00010617592740846957
-0.493031798832817,-0.493031798832817,1.0001073489799688,0.00010606384862627772
-0.4905798102328845,-0.4905798102328845,0.9998960333242254,0.00010614574458426278
-0.48919579865978446,-0.48919579865978446,1.0000259468646677,0.00010609963083403045
-0.4867662405064038,-0.4867662405064038,1.0001470308360654,0.00010615528431236173
-0.48515197070228167,-0.48515197070228167,1.000029493492325,0.00010608458111883649
-0.4829650497624243,-0.4829650497624243,1.0001169435211688,0.00010613694771866138
-0.481608667949331,-0.481608667949331,1.0001327340296786,0.00010699513110313069
-0.4804810049121443,-0.4804810049121443,0.9999471889461814,0.00010607358743466688
-0.4784282719134353,-0.4784282719134353,0.9999254265218094,0.00010614752621530222
-0.47746576838908367,-0.47746576838908367,1.0000095982518473,0.00010675089614225534
-0.47623005420828124,-0.47623005420828124,0.9999308158638447,0.00010610825430647592
-0.47417295003469917,-0.47417295003469917,1.000009691344219,0.00010604358082957374
-0.4733633767507854,-0.4733633767507854,1.000084122148708,0.0001072783358032291
-0.47219306332917765,-0.47219306332917765,0.9999126825214957,0.00010609622696480796
-0.4701007032970665,-0.4701007032970665,1.0001660186569148,0.0001060120084421796
-0.46903215176862434,-0.46903215176862434,0.9999267708869677,0.00010698499065798115
-0.4673296355191269,-0.4673296355191269,0.999959305772116,0.00010612282583473752
-0.46561719690580505,-0.46561719690580505,1.0001268612827343,0.00010687046739531134
-0.4646256393098156,-0.4646256393098156,1.0002220035802183,0.00010598058846801988
-0.46233486353303305,-0.46233486353303305,1.0000412231452007,0.00010613379851314776
-0.461179602672928,-0.461179602672928,1.0002558736304774,0.00010657807068219029
-0.4596425730305782,-0.4596425730305782,1.0000203743504266,0.00010605257752306094
-0.4578181506949477,-0.4578181506949477,1.0002052822510246,0.00010632856369949732
-0.45671325779912875,-0.45671325779912875,1.000036555277495,0.00010613714680007485
-0.4548576159126242,-0.4548576159126242,1.0001206996090617,0.00010612898340285959
-0.45352565067005346,-0.45352565067005346,1.0000982959931755,0.00010619328032749026
-0.45235902466956757,-0.45235902466956757,1.000029467455374,0.00010610294967237902
-0.4505255101088551,-0.4505255101088551,0.999763768944099,0.0001061519292102682
-0.4492927185972803,-0.4492927185972803,0.9998833689040664,0.00010617374950461769
-0.448013287964568,-0.448013287964568,0.9999945528040088,0.0001059754093851673
-0.44615481635264587,-0.44615481635264587,1.000002240741867,0.00010610577126253925
-0.4450632345913618,-0.4450632345913618,1.0000402866868374,0.00010607175349454505
-0.4437932616128819,-0.4437932616128819,1.0001077875006972,0.0001069335812963661
-0.44198264460646897,-0.44198264460646897,1.0001688365361914,0.00010623578831371348
-0.44052510621986585,-0.44052510621986585,0.9999955839871646,0.00010666212364065131
-0.4388042602127825,-0.4388042602127825,1.0002022367285104,0.00010615364679100864
-0.43706702658673746,-0.43706702658673746,0.9998797412412255,0.00010609914644334102
-0.43511593221992373,-0.43511593221992373,0.999945303870442,0.00010612043564907887
-0.43303181935698376,-0.43303181935698376,0.9999366161364325,0.00010608409879476298
-0.43107624007607226,-0.43107624007607226,1.000157954422877,0.00010614496006089663
-0.42899713227307074,-0.42899713227307074,1.0002741035015397,0.0001061125258932586
-0.4274610398046207,-0.4274610398046207,0.9999734793595472,0.00010611684393935716
-0.42496297386242077,-0.42496297386242077,1.0000931036070972,0.00010609756779665304
-0.42343535268955745,-0.42343535268955745,1.0000452956371206,0.00010614838731828572
-0.4212712624874257,-0.4212712624874257,0.9999919584869014,0.00010605279075717072
-0.4203145349136321,-0.4203145349136321,0.9999610048959168,0.00010689939410540293
-0.41849857910929134,-0.41849857910929134,0.9999395829350096,0.00010613464388526653
-0.4167400903534144,-0.4167400903534144,1.0002290717588274,0.00010665925751374034
-0.4159419721530867,-0.4159419721530867,0.9998557446665772,0.0001061344660184003
-0.4139280170384154,-0.4139280170384154,1.000243061531093,0.00010613716946186841
-0.4126363499322906,-0.4126363499322906,1.0000559036670185,0.00010702128279552439
-0.411723648525367,-0.411723648525367,1.0000244928053594,0.00010603231745042793
-0.40946252799549254,-0.40946252799549254,1.0001071159429546,0.00010613306667252209
-0.40828299540226,-0.40828299540226,1.0001175273525456,0.00010685686478020625
-0.40676861699830624,-0.40676861699830624,0.9999181195548139,0.00010608068467325
-0.4049156400935317,-0.4049156400935317,0.9999386552412352,0.00010644433213648085
-0.4038575757505896,-0.4038575757505896,1.000095956813306,0.000106282453185911
-0.4018717975690379,-0.4018717975690379,1.000057789525339,0.0001061760804461787
-0.40042666606241256,-0.40042666606241256,1.0000003709316643,0.00010652425594585138
-0.39912628658494215,-0.39912628658494215,0.9999072986088805,0.00010597934971761013
-0.39713234703885975,-0.39713234703885975,1.0001009601730588,0.00010607554197712463
-0.39595340562955245,-0.39595340562955245,1.0000987512308837,0.00010627072910138712
-0.3942491623907699,-0.3942491623907699,1.000100757018552,0.00010616020850898226
-0.3928382839592814,-0.3928382839592814,1.000135107938198,0.000106234861763853
-0.3917252323088178,-0.3917252323088178,1.0002339764897932,0.00010602601041550215
-0.3898619739178685,-0.3898619739178685,1.0000647474554314,0.00010614975865796622
-0.38854888423593364,-0.38854888423593364,1.0001902363849062,0.0001060942424584544
-0.38743299498964917,-0.38743299498964917,0.999997426539198,0.000107030704002915
-0.3858272561519698,-0.3858272561519698,0.9999806167526337,0.00010613824570309493
-0.38417854488361625,-0.38417854488361625,1.0000841625565369,0.00010612515071242877
-0.38260811240033943,-0.38260811240033943,1.0000160217965202,0.0001068559608584463
-0.3807542189701053,-0.3807542189701053,0.9999204480928323,0.00010616740937076952
-0.37918580464975093,-0.37918580464975093,1.0000074831421562,0.00010606997607603956
-0.37697198147216116,-0.37697198147216116,1.000137694289426,0.00010621336434829376
-0.37547206981107595,-0.37547206981107595,1.000050022292396,0.00010605094922523111
-0.37317468160690626,-0.37317468160690626,1.0000353837853984,0.00010616343498059703
-0.37156286363970137,-0.37156286363970137,0.9999644284001148,0.0001060446049109429
-0.3694352679558506,-0.3694352679558506,1.0002326209077232,0.0001061233412755797
-0.3675256211558008,-0.3675256211558008,1.0001238000430313,0.00010611365539629072
-0.36562486591210475,-0.36562486591210475,0.9999200350327799,0.00010612463532720003
-0.363824454889982,-0.363824454889982,0.9999700167383138,0.00010600566473239509
-0.3629621091669833,-0.3629621091669833,0.9999884746930459,0.00010707290575981008
-0.3608869164716452,-0.3608869164716452,1.0002143718757979,0.00010614972755184141
-0.35969942806914335,-0.35969942806914335,0.9998967899777093,0.00010675526851008511
-0.3588229867025802,-0.3588229867025802,0.9997681514656888,0.00010607079486192898
-0.3564997916284483,-0.3564997916284483,1.0001703799442556,0.000106120993102507
-0.3555890014598845,-0.3555890014598845,1.0002815074266764,0.00010718508374293842
-0.3543085523073387,-0.3543085523073387,1.0002104056940833,0.0001061128796663012
-0.35221656348803665,-0.35221656348803665,1.0000807897921895,0.00010602350123817222
-0.35114747632615034,-0.35114747632615034,1.0002032709974533,0.00010697902121822047
-0.34944471186609005,-0.34944471186609005,0.9998916670150872,0.00010611861616450747
-0.34773273710670766,-0.34773273710670766,1.0000331638953188,0.00010685458590356255
-0.3467417483501777,-0.3467417483501777,0.9999753802804333,0.00010599130878849129
-0.34444978462488507,-0.34444978462488507,1.0001441928484927,0.00010614664964748714
-0.3432954843716288,-0.3432954843716288,0.9999699478944685,0.00010657103990622922
-0.3417575617902912,-0.3417575617902912,1.0001224868387129,0.00010605137088346217
-0.33993427997193065,-0.33993427997193065,1.000173490455059,0.00010631664068751121
-0.33882907594015704,-0.33882907594015704,1.000117774088784,0.00010614169095260774
-0.3369731384125771,-0.3369731384125771,0.9999530623779584,0.0001061150561831807
-0.3356419064228248,-0.3356419064228248,0.9999860922550546,0.00010619625014141878
-0.3344749790827336,-0.3344749790827336,0.9998702403018103,0.00010608747091476754
-0.3326407398097217,-0.3326407398097217,1.0001435514269583,0.00010615979292355857
-0.331408609142818,-0.331408609142818,0.999932906016776,0.00010616650603885108
-0.33013019191566856,-0.33013019191566856,0.999962693035282,0.00010598613500060683
-0.3282698990202334,-0.3282698990202334,1.000067170683171,0.00010610201658696128
-0.3271792256819026,-0.3271792256819026,0.9999388048628814,0.00010607494224253424
-0.32590849352563966,-0.32590849352563966,1.0000312209217412,0.00010692024635069582
-0.3240975881490158,-0.3240975881490158,0.9998282524119115,0.00010623089445608742
-0.32263994763852677,-0.32263994763852677,0.9999848677024108,0.00010664530439642893
-0.3209194029615901,-0.3209194029615901,0.9999612864467771,0.00010615500105645359
-0.3191825886060542,-0.3191825886060542,1.000075160254634,0.00010611160679653458
-0.3172312232600234,-0.3172312232600234,0.9999978835073391,0.00010613318924969253
-0.3151474123667867,-0.3151474123667867,0.9999547882944876,0.00010609933806313206
-0.3131915760146512,-0.3131915760146512,0.9998825826559102,0.00010612576470913589
-0.3111127550015226,-0.3111127550015226,0.9999498955904738,0.00010609720320912185
-0.30957634286751273,-0.30957634286751273,1.000085989032684,0.00010612901349960622
-0.3070786285265058,-0.3070786285265058,0.9998712659186213,0.0001060740124898153
-0.30555061210907297,-0.30555061210907297,1.0001220032611466,0.00010614355606679079
-0.3033872981657623,-0.3033872981657623,1.0001050737175725,0.00010606979567762114
-0.30242994673972134,-0.30242994673972134,0.9999981823589994,0.00010687955151220718
-0.300613557115139,-0.300613557115139,0.9999430083622348,0.00010613199849454503
-0.2988569209439447,-0.2988569209439447,0.9999564125233482,0.00010664630694467026
-0.29805704027603497,-0.29805704027603497,1.000218955323839,0.00010616609928796419
-0.2960434842018003,-0.2960434842018003,1.0000489217097726,0.0001061049027492792
-0.29485790310427545,-0.29485790310427545,1.0001231963501473,0.00010996878071845275
-0.2940294539039314,-0.2940294539039314,1.0000382558209182,0.00010660819958999013
-0.2920846217937651,-0.2920846217937651,1.0000080847587935,0.00010610389179352437
-0.29060520341881785,-0.29060520341881785,1.0000252126429214,0.00010686690068213356
-0.2893120376240404,-0.2893120376240404,0.9998715904489119,0.00010601823109578487
-0.2873130260093603,-0.2873130260093603,1.0000838653135964,0.00010606996403901805
-0.286146401494625,-0.286146401494625,1.000091031404311,0.0001067286659029283
-0.2844375758788374,-0.2844375758788374,1.0000514489229653,0.00010608426348578295
-0.28273732183515676,-0.28273732183515676,1.0002386141405093,0.00010657778362239461
-0.28138188824159444,-0.28138188824159444,1.0000308701960852,0.00010596698801080989
-0.27924812502242274,-0.27924812502242274,0.9999719377013807,0.000106093706390178
-0.2780695086614287,-0.2780695086614287,1.0000710132512367,0.00010628937963171254
-0.27636441928407296,-0.27636441928407296,0.9999898507307263,0.0001061651132997756
-0.274954474576225,-0.274954474576225,0.999992700894796,0.00010622565396997002
-0.2738411073638417,-0.2738411073638417,1.0000893973132932,0.00010601037337425667
-0.27197755933593726,-0.27197755933593726,1.0000158771294807,0.00010615313059613815
-0.2706651874126692,-0.2706651874126692,1.0000935059514249,0.00010608328278491978
-0.2695473529434821,-0.2695473529434821,0.999974804027595,0.00010700741926225363
-0.2679428833114798,-0.2679428833114798,1.0000330528678547,0.00010613829843289346
-0.2662940629546938,-0.2662940629546938,1.0001954795245454,0.00010611841399471697
-0.2647232175215322,-0.2647232175215322,1.0000877630076968,0.00010685121386249759
-0.26286923080915586,-0.26286923080915586,0.9999790099802792,0.00010617323485874815
-0.2613011643057689,-0.2613011643057689,1.0000630855005757,0.000106080998779462
-0.2588473572788644,-0.2588473572788644,1.000006499619905,0.00010618485531801398
-0.257262583913689,-0.257262583913689,0.9999618454576662,0.00010605808123457939
-0.255249622977135,-0.255249622977135,0.9998480500599604,0.00010619070541091871
-0.25367836843797703,-0.25367836843797703,1.000051347622089,0.00010605776630496542
-0.2515507790718402,-0.2515507790718402,1.0001999611491008,0.0001061170245760444
-0.24964104784448865,-0.24964104784448865,0.9999274738514415,0.00010610935774387899
-0.24773978827433893,-0.24773978827433893,1.0000311282465297,0.00010614053303051333
-0.24594075332424836,-0.24594075332424836,1.0001881688182963,0.00010601378696110684
-0.2450778473103128,-0.2450778473103128,1.0000245601196434,0.0001070684900450365
-0.2430019358980644,-0.2430019358980644,1.0001277354335256,0.00010616748316378131
-0.24181560097567853,-0.24181560097567853,1.0000775260820491,0.00010673235753146812
-0.24093898918581544,-0.24093898918581544,1.000240208864208,0.00010608435286446537
-0.23861537578486605,-0.23861537578486605,1.000026599541605,0.00010611459870065671
-0.2377046362060355,-0.2377046362060355,1.0003222794750664,0.00010718545432662149
-0.23642404603306205,-0.23642404603306205,1.0001266321601325,0.00010610736155926494
-0.23433242557875927,-0.23433242557875927,1.0000682468963464,0.00010602231102363635
-0.23326280120381854,-0.23326280120381854,1.0002531243274482,0.00010695657124679935
-0.23155979074290373,-0.23155979074290373,1.0000738417674893,0.00010610823529717556
-0.22984827762847998,-0.22984827762847998,1.0000012779426348,0.00010686449655547415
-0.22885785896796734,-0.22885785896796734,0.9999262536099668,0.00010596093094569321
-0.22656470856600208,-0.22656470856600208,1.0000999902305903,0.00010615145921555349
-0.22541136985310004,-0.22541136985310004,0.999951455263376,0.00010655112846673567
-0.22387255118301255,-0.22387255118301255,0.9998522678040918,0.00010603871473053943
-0.22205041177148815,-0.22205041177148815,1.0000156722796945,0.00010630876373754166
-0.22094489692826755,-0.22094489692826755,1.0000154627051097,0.00010610652363519139
-0.21908866343364936,-0.21908866343364936,1.000113355170182,0.00010613342788626167
-0.21775816343943005,-0.21775816343943005,1.0000164922777823,0.00010619464820233117
-0.21659093698108337,-0.21659093698108337,0.9998940874406518,0.00010608345836020646
-0.21502857409359422,-0.21502857409359422,0.9999169033442012,0.00010613797154999225
-0.21373481445552897,-0.21373481445552897,1.0001782781260324,0.00010613140100576785
-0.21256254184409046,-0.21256254184409046,0.9999808861499571,0.00010601901192045578
-0.21071532656933414,-0.21071532656933414,1.0000267109518628,0.0001061392649714525
-0.20949493559382973,-0.20949493559382973,0.9999525719378937,0.0001061230173905664
-0.2082934591860976,-0.2082934591860976,1.000024107395347,0.00010681900981086927
-0.2066754513522028,-0.2066754513522028,0.9999567278966875,0.00010613660810625497
-0.204968404230749,-0.204968404230749,0.9999550970061295,0.00010674716668614057
-0.2033872636646265,-0.2033872636646265,0.9999591270421118,0.00010613956317623278
-0.2016027733523515,-0.2016027733523515,1.000002956342788,0.00010620159358300967
-0.19985551650315755,-0.19985551650315755,0.9999633110845068,0.00010603998737062175
-0.19756573124905116,-0.19756573124905116,1.0000252853182228,0.00010608063740916622
-0.1958177148917457,-0.1958177148917457,1.0000801388773417,0.00010615800164356383
-0.19353259383133264,-0.19353259383133264,1.000203111335578,0.00010608065311754225
-0.19220086819987045,-0.19220086819987045,1.0000434788837427,0.00010613953214921567
-0.18949999868636952,-0.18949999868636952,0.9998461969875218,0.00010605396949493631
-0.1883731331276067,-0.1883731331276067,1.000034861367819,0.00010726378548546383
-0.18623425925252377,-0.18623425925252377,1.0001568630928461,0.00010612653716002187
-0.184886274307064,-0.184886274307064,0.9999210511396781,0.00010680847571675033
-0.1836256216352922,-0.1836256216352922,1.000126574276699,0.00010612673219930419
-0.18147639478265773,-0.18147639478265773,1.0001587711280755,0.0001060394187730497
-0.1805438098155719,-0.1805438098155719,1.0000841507042235,0.00010676310205703838
-0.17909191474464023,-0.17909191474464023,0.9999178845260591,0.00010614907660634411
-0.17712711720669178,-0.17712711720669178,0.9999677919734513,0.00010651409308356011
-0.17614502446376717,-0.17614502446376717,1.0001040901333949,0.00010659572049680148
-0.174199802801013,-0.174199802801013,0.9998574960974571,0.00010609596643361415
-0.1727209826676699,-0.1727209826676699,0.9999852406414321,0.00010686392117101632
-0.17142758414920536,-0.17142758414920536,0.9999959243483865,0.00010603964358640713
-0.16942872652216465,-0.16942872652216465,0.9999839646839339,0.00010607801094599607
-0.1682617655787908,-0.1682617655787908,0.999960798535802,0.0001067208765671081
-0.16655272020943812,-0.16655272020943812,1.0001240845718695,0.00010609698971798068
-0.16485290472846828,-0.16485290472846828,1.0000007049702526,0.00010655767552299287
-0.1634977762631024,-0.1634977762631024,1.0000246694462338,0.00010596065610884093
-0.16136390426618163,-0.16136390426618163,1.0000394084663662,0.0001060631375585434
-0.16018561200326076,-0.16018561200326076,1.0000451380203081,0.0001062452022545657
-0.15847967775189317,-0.15847967775189317,0.9999280613005082,0.00010617429537606237
-0.15707066866816605,-0.15707066866816605,0.999943701883389,0.00010621586442650535
-0.15595698399920366,-0.15595698399920366,0.9999459650568969,0.00010601196980449178
-0.15409314665739657,-0.15409314665739657,1.0000154421030505,0.00010614240593685489
-0.15301700612399144,-0.15301700612399144,1.000146367098172,0.00010956800231314313
-0.15188414798976738,-0.15188414798976738,0.9999068242792989,0.0001069198608829031
-0.15038547656295123,-0.15038547656295123,0.9999558262460587,0.00010615544219612245
-0.14873015025877975,-0.14873015025877975,0.9999895903770831,0.00010620731497663139
-0.1473143508490466,-0.1473143508490466,1.0001300754359999,0.00010673775351624848
-0.1452471548152971,-0.1452471548152971,1.0000647211636633,0.00010621990072080111
-0.14374572635933874,-0.14374572635933874,1.0000646018670556,0.00010603165700200498
-0.14143795148920618,-0.14143795148920618,1.0000354420935675,0.00010621662230502369
-0.1397022787896276,-0.1397022787896276,0.9999391180686364,0.00010603402326063423
-0.13740629036983593,-0.13740629036983593,1.0001688662172636,0.00010616291077314298
-0.13579387353966013,-0.13579387353966013,1.0000144146845709,0.00010604415800412015
-0.1336662923975382,-0.1336662923975382,0.9998334468089733,0.00010610874767807503
-0.13175647706520976,-0.13175647706520976,1.0002589442847873,0.00010609882951582619
-0.12985471221400074,-0.12985471221400074,1.0000253178251253,0.00010612768405476834
-0.12805705334685627,-0.12805705334685627,1.0000731548607331,0.00010601123795228567
-0.12719358734611888,-0.12719358734611888,1.0000214690589853,0.00010702382410568863
-0.12477329321191064,-0.12477329321191064,1.0000314358272429,0.00010614869510661895
-0.12381437723452109,-0.12381437723452109,0.9999998322115632,0.0001067468137162916
-0.12257642471158761,-0.12257642471158761,1.0001423313126232,0.00010612223271667103
-0.12052126102280454,-0.12052126102280454,1.0000492406058181,0.00010604253856857822
-0.11961891481332713,-0.11961891481332713,1.0002311491176663,0.00010717187225954413
-0.11812576950978837,-0.11812576950978837,1.0000888720560563,0.00010613477103545094
-0.11616844618547476,-0.11616844618547476,1.000992293704611,0.0001065119495621649
-0.11518523537379224,-0.11518523537379224,1.000006534513928,0.00010650520033503434
