time,time,flux,flux_err
-0.4992006227572953,-0.4992006227572953,0.99879387916324,0.007727691230905859
-0.49745610351965297,-0.49745610351965297,0.9973968396263185,0.007045115350426824
-0.4962262326967902,-0.4962262326967902,0.9984439170772952,0.0070106106132424295
-0.49449849826050923,-0.49449849826050923,1.0029209703949635,0.0070292571870283465
-0.4927602953772293,-0.4927602953772293,0.996269443570557,0.007026519044984042
-0.4910316479217727,-0.4910316479217727,1.0002603618242225,0.006993760914935837
-0.4892984752630582,-0.4892984752630582,0.9975534093681009,0.007034276726645007
-0.4875136748451041,-0.4875136748451041,0.9979875823018209,0.007035597083815928
-0.48528546703746545,-0.48528546703746545,1.0003353911265722,0.0070879500994015885
-0.4840606078447308,-0.4840606078447308,1.0030225799674173,0.007016862762141028
-0.48251031461986715,-0.48251031461986715,1.0008410362728863,0.006995827516026755
-0.48006303956208285,-0.48006303956208285,1.0000157987614398,0.007037422087362316
-0.47876136112899986,-0.47876136112899986,0.9993099977541892,0.007041010694801385
-0.4771892510674661,-0.4771892510674661,0.9981039808014283,0.007060574622144294
-0.4760803544544615,-0.4760803544544615,0.9976620609703704,0.007009128721482375
-0.47443665922037326,-0.47443665922037326,0.9947073017060921,0.0070263332981900005
-0.47265626918233467,-0.47265626918233467,1.0005396336279322,0.007020037726510947
-0.47092360373644626,-0.47092360373644626,0.998571128640212,0.00700766375681304
-0.46919191610650157,-0.46919191610650157,0.9971231805084134,0.007034993562229999
-0.467438018482062,-0.467438018482062,0.9949251192968912,0.006984020666417344
-0.46515203515591563,-0.46515203515591563,0.9996141780556597,0.007014775079884766
-0.46363985526841134,-0.46363985526841134,1.0034189849295099,0.007016850962436598
-0.46242985362769107,-0.46242985362769107,1.003491027067911,0.007027157148942068
-0.4608621755905915,-0.4608621755905915,1.001576161878745,0.007014876979520671
-0.4589344891021028,-0.4589344891021028,0.9990592098927191,0.007052366727282185
-0.45708326625754125,-0.45708326625754125,1.0006488095249844,0.007034606040974882
-0.4559651799267158,-0.4559651799267158,0.997303796177334,0.007055152598553832
-0.4543461892229971,-0.4543461892229971,1.0016820899817465,0.007019235430330835
-0.4525531767460052,-0.4525531767460052,0.9977169374049939,0.007025087379702441
-0.4508908553427318,-0.4508908553427318,0.9969329027459224,0.007046468763401277
-0.4492632567154942,-0.4492632567154942,1.001264532214098,0.007039237676662724
-0.44678987915976903,-0.44678987915976903,0.997050388292414,0.006990945021239456
-0.44467904898629057,-0.44467904898629057,0.999418907187534,0.007025026723428422
-0.4431291501794476,-0.4431291501794476,0.9998570953312582,0.007034047487592264
-0.4419406578381313,-0.4419406578381313,0.9999097703605191,0.007034395917967536
-0.4401490104588447,-0.4401490104588447,0.9980053018376136,0.007015861415860196
-0.4384063720266568,-0.4384063720266568,1.0010327555544858,0.007023668883001197
-0.43678870078583715,-0.43678870078583715,0.9987275035921211,0.007031305495478232
-0.4355410451942589,-0.4355410451942589,0.9975712474090785,0.007046015106062895
-0.43412431453180034,-0.43412431453180034,1.001814198894361,0.007006733393531725
-0.4324510144419037,-0.4324510144419037,0.9967702997860084,0.0070508200502503475
-0.4308064528624527,-0.4308064528624527,0.9990256500022836,0.007059980346466581
-0.42912408605916424,-0.42912408605916424,0.9969713479470146,0.007021015844491432
-0.4267169284110423,-0.4267169284110423,1.0027119788533951,0.007018654591042712
-0.42451261973474175,-0.42451261973474175,0.9982932701064101,0.0070195126971972655
-0.4227404221834149,-0.4227404221834149,1.000983533713559,0.0070453097835994445
-0.4214706866623601,-0.4214706866623601,1.0033543892029908,0.007002761188896585
-0.4196937793225516,-0.4196937793225516,0.9986872136373639,0.007021681512622539
-0.41789936580171344,-0.41789936580171344,0.998792978657808,0.0070220823845780905
-0.41655011803959496,-0.41655011803959496,1.0006585418372036,0.006995965849498538
-0.4154524349200074,-0.4154524349200074,1.0004540965277087,0.007064260962047833
-0.4139002765121404,-0.4139002765121404,1.0017884086264726,0.007001466613226763
-0.4121604748885147,-0.4121604748885147,0.9994113668334051,0.007009309680801591
-0.41072296595957597,-0.41072296595957597,0.9992249832819915,0.007071247250273369
-0.40938878169399684,-0.40938878169399684,1.0016618905402201,0.00701065110465298
-0.4076699974364601,-0.4076699974364601,1.0017632915949608,0.0069849712689251525
-0.4052298133698059,-0.4052298133698059,1.0023143755577082,0.007056346607389316
-0.4034025871224003,-0.4034025871224003,0.9973151352745662,0.007051502411444375
-0.4022182883520145,-0.4022182883520145,0.9987038453764912,0.007011757948432927
-0.4007149306096835,-0.4007149306096835,0.9973552998224668,0.0070444195229845945
-0.39901101017021573,-0.39901101017021573,0.9998866705969489,0.007012551999498762
-0.39733736537455117,-0.39733736537455117,0.9963032622397373,0.00700785489575421
-0.3957734522467945,-0.3957734522467945,0.9958818617845144,0.007031216502584
-0.3940112913958728,-0.3940112913958728,1.000765897381633,0.007020338782504867
-0.39142237706109884,-0.39142237706109884,1.0016167610790572,0.007014376824578087
-0.3899652305728523,-0.3899652305728523,0.9976822067928637,0.007083788146351749
-0.38858036960591563,-0.38858036960591563,0.9995901572465797,0.007029088674949969
-0.38657407349091955,-0.38657407349091955,0.999030656482482,0.007019664259475209
-0.3847028461837908,-0.3847028461837908,0.9979595449529122,0.007017823082280468
-0.38309324271394873,-0.38309324271394873,0.9956502320739533,0.0070836096090483485
-0.38209637968393506,-0.38209637968393506,0.9971433201392056,0.007017506173408419
-0.38060365888813974,-0.38060365888813974,1.0033027429133177,0.007020812419137832
-0.378910719032865,-0.378910719032865,1.0020560216960237,0.0070058630828218615
-0.3768570816930151,-0.3768570816930151,0.9994571389529602,0.0070081034259407825
-0.37555661935184614,-0.37555661935184614,0.9961260208971103,0.007058735955650557
-0.3734765086439438,-0.3734765086439438,0.9969220144550208,0.00699841678409272
-0.3709171739901649,-0.3709171739901649,1.0007515529320812,0.007021990945483413
-0.3694089380616788,-0.3694089380616788,1.002528259036876,0.0070610503449882265
-0.36821242965816053,-0.36821242965816053,0.9992110467850897,0.007040705596722818
-0.36712737039488275,-0.36712737039488275,1.0005670506335804,0.007001005767036349
-0.3650694159703562,-0.3650694159703562,0.9994680177278455,0.0070658868119582875
-0.36311949306109453,-0.36311949306109453,0.9972702817931223,0.0070293517069295805
-0.3619754970772192,-0.3619754970772192,1.0024248912510418,0.007016421417478836
-0.36049339499732014,-0.36049339499732014,1.0015764832943943,0.007069101001276
-0.35881143698934465,-0.35881143698934465,0.9953356421930696,0.007007790742691332
-0.3567604200245114,-0.3567604200245114,1.0023733612125156,0.007011244997485781
-0.35545693898748143,-0.35545693898748143,1.0010523900163157,0.007081439939824262
-0.35336008844315075,-0.35336008844315075,1.000402234453888,0.006996274531289949
-0.35083365184837023,-0.35083365184837023,1.0017002128301773,0.007032388110364848
-0.3490319316799287,-0.3490319316799287,0.9977627365997037,0.007030996103731141
-0.3478901328839129,-0.3478901328839129,0.9954550041201816,0.007040142655560117
-0.3465745042572962,-0.3465745042572962,0.9965300007405181,0.007035427233736432
-0.34496873974276243,-0.34496873974276243,1.0017371820596255,0.006994670925415482
-0.34301307354762683,-0.34301307354762683,0.998602099575469,0.007024287595027989
-0.34185564416111447,-0.34185564416111447,0.9970706121385579,0.007027502636745989
-0.3403841413819464,-0.3403841413819464,1.0013583764349197,0.007034951977967901
-0.33897833709197583,-0.33897833709197583,0.9981299546358178,0.007003096990195784
-0.3370593443076359,-0.3370593443076359,1.000443877197375,0.007031433624741945
-0.3356844000460114,-0.3356844000460114,0.9985773832630406,0.007078054302235309
-0.333742258005077,-0.333742258005077,0.9993275525499303,0.007015457946851403
-0.33112859016109725,-0.33112859016109725,0.9998868233249366,0.007039796088400878
-0.32907416206144263,-0.32907416206144263,1.0007075342605243,0.007022033102214961
-0.32777335690625475,-0.32777335690625475,0.9977911887391155,0.007005162144080766
-0.3262612528371392,-0.3262612528371392,0.9993372606151899,0.007037882652283371
-0.3245483517064713,-0.3245483517064713,1.0011545055928452,0.007003371403920697
-0.3224899155815365,-0.3224899155815365,0.9966847912979135,0.007028425094964948
-0.3212791028578067,-0.3212791028578067,0.9974481313666586,0.007023945062158489
-0.3195848847972229,-0.3195848847972229,0.9975547764214341,0.007015710294722488
-0.3177852536726277,-0.3177852536726277,1.000714261814275,0.007012469587593935
-0.3161624254717026,-0.3161624254717026,0.9946281857397311,0.007072433847491838
-0.3148243373405421,-0.3148243373405421,1.005185333911339,0.007018635200046796
-0.31347462237172297,-0.31347462237172297,0.9994875899392334,0.00698478532255675
-0.3110326533933403,-0.3110326533933403,1.0001325235213563,0.007056042874494445
-0.30922829181654377,-0.30922829181654377,1.001578817864887,0.007052467344910884
-0.30786119352269453,-0.30786119352269453,1.0015924209849074,0.00701117522176835
-0.30648434167087546,-0.30648434167087546,0.9976954379440961,0.0070441482632411
-0.30473964431148487,-0.30473964431148487,0.9981736804775985,0.007020560138559661
-0.30280310748203193,-0.30280310748203193,1.0014568216298547,0.0070164425619476545
-0.30120802434685173,-0.30120802434685173,1.0018630509899296,0.007026274167445954
-0.299449304715381,-0.299449304715381,0.9989908418408504,0.0070108400482749526
-0.2968588640622329,-0.2968588640622329,1.0010340547785277,0.00701535874492198
-0.29540764075063636,-0.29540764075063636,0.9979578824122317,0.007083328335029659
-0.29400696155498734,-0.29400696155498734,0.9965646603210729,0.0070205743589306716
-0.2920158316002926,-0.2920158316002926,0.9993681941103233,0.007017422665748158
-0.2899191877106205,-0.2899191877106205,1.0015057131958311,0.007043406009254049
-0.28805969210516197,-0.28805969210516197,1.0024788442233157,0.007052103435011117
-0.2869407703721663,-0.2869407703721663,0.998555448770607,0.0070385513990266465
-0.28531940091052094,-0.28531940091052094,0.9997724445737834,0.007012363862632326
-0.28352776540559715,-0.28352776540559715,1.004034577189176,0.0070287305169497525
-0.2818541574117262,-0.2818541574117262,1.003609629795975,0.007030820146745385
-0.2802614530926803,-0.2802614530926803,1.0080871774015066,0.007026655059570733
-0.2777459260018077,-0.2777459260018077,1.002531285355925,0.007008234945031544
-0.2757486787304515,-0.2757486787304515,0.9995869601699233,0.007010522756427296
-0.2743368663912406,-0.2743368663912406,0.998530699324735,0.00705307002791037
-0.27329434961720833,-0.27329434961720833,0.9994113204710366,0.007037877761635951
-0.27174937590316406,-0.27174937590316406,0.997602349636211,0.007021623009967766
-0.2698005551414099,-0.2698005551414099,1.001660505974507,0.007037623553175283
-0.267954054576694,-0.267954054576694,0.9980310766513221,0.007026311304446739
-0.2668364576034946,-0.2668364576034946,1.0023024712559072,0.007065875865410411
-0.26534293379227164,-0.26534293379227164,0.9980917829958953,0.007016991013322552
-0.26384041260462254,-0.26384041260462254,0.999591557301075,0.007021598781786101
-0.26197611800744197,-0.26197611800744197,1.0038406040753522,0.007011535436779357
-0.2605254151567351,-0.2605254151567351,1.0006937422073192,0.00707722006226941
-0.25826963962754235,-0.25826963962754235,1.0055120573300638,0.007011766129640548
-0.2558628684404539,-0.2558628684404539,0.9979820812349548,0.007017413430529709
-0.2542231503524818,-0.2542231503524818,1.000471580061329,0.007018382498683122
-0.25312555295531636,-0.25312555295531636,0.9987876700045139,0.007024197779024575
-0.25151463299116583,-0.25151463299116583,1.003582296085817,0.007032507263508318
-0.2500863768538693,-0.2500863768538693,0.9983439606767363,0.007006208576997716
-0.24802574901259505,-0.24802574901259505,1.0008106042931597,0.0070256047878473615
-0.24704358059098014,-0.24704358059098014,1.0009468582246268,0.0070212992442043685
-0.24553251034813,-0.24553251034813,1.000206224912532,0.007018928467668967
-0.24414994359831327,-0.24414994359831327,0.9974046919875779,0.007025707455914618
-0.24210202179674525,-0.24210202179674525,0.9992283352860802,0.0070103634794636644
-0.24079486884002108,-0.24079486884002108,1.0000405061488495,0.007087496127803944
-0.23867838121659588,-0.23867838121659588,1.0016466955257786,0.007008266954778658
-0.23619077556068077,-0.23619077556068077,0.9979616552942421,0.007049120848632138
-0.2341102636681171,-0.2341102636681171,0.998199065537632,0.0070309822395932435
-0.23299895237141754,-0.23299895237141754,1.0012522830889676,0.0070040780861371195
-0.23123302226886153,-0.23123302226886153,0.9961331521260813,0.007018924133656401
-0.22956621150660794,-0.22956621150660794,0.9985851327362617,0.007023316351355698
-0.2277050639357185,-0.2277050639357185,1.0014717253035808,0.0070122852076269365
-0.22601058536965865,-0.22601058536965865,1.0017535764256549,0.007048305064758935
-0.22441531618242153,-0.22441531618242153,0.9990123997278397,0.007004143675896591
-0.22239494155510328,-0.22239494155510328,1.0031816907015572,0.00701542582612152
-0.22114259648369625,-0.22114259648369625,0.994193367205115,0.007059559744642436
-0.21967489747330546,-0.21967489747330546,0.9982010095587451,0.007011239115260607
-0.21807904589804822,-0.21807904589804822,0.999255239981401,0.00700912695679153
-0.21583360554650427,-0.21583360554650427,1.0029822011695977,0.0070400175820273135
-0.21460190322541167,-0.21460190322541167,0.9997400006736642,0.007047730564484782
-0.21343376979930326,-0.21343376979930326,1.0002394109874442,0.007008655174144185
-0.21221190984360874,-0.21221190984360874,0.999802327622896,0.007011316349376411
-0.21066078840813135,-0.21066078840813135,0.9987072543210204,0.007006269059747041
-0.20906707162212115,-0.20906707162212115,1.001972377119262,0.007028147630648482
-0.2073362227238249,-0.2073362227238249,0.9987181668270093,0.007009228592089918
-0.2059007564384956,-0.2059007564384956,1.0024774395175378,0.007027284344946849
-0.203901022466016,-0.203901022466016,0.9986143509049249,0.006999931421891277
-0.20184465766360518,-0.20184465766360518,0.9997803794655535,0.007028943908450469
-0.20037177970807535,-0.20037177970807535,0.9980450823201681,0.007006435971161422
-0.19880672225554008,-0.19880672225554008,1.0007484337737147,0.007008889162637146
-0.19637511727923992,-0.19637511727923992,1.0000621719896248,0.00702747732635015
-0.19452384487958624,-0.19452384487958624,1.0005150545843602,0.007086162937010888
-0.19313455245574004,-0.19313455245574004,1.0015145580873783,0.0070091333268567455
-0.19179225733387284,-0.19179225733387284,1.0067257303340795,0.007036073150758324
-0.19010782633558848,-0.19010782633558848,0.9991327569169052,0.007012789594050409
-0.18813541285635438,-0.18813541285635438,0.9994805407489065,0.007010934777906408
-0.18672693668922874,-0.18672693668922874,0.9990251574727689,0.007052416354005021
-0.18486088771023787,-0.18486088771023787,1.0008373440953477,0.007010700721569266
-0.18219681697664783,-0.18219681697664783,1.001801353116566,0.0070102506266044905
-0.1806322828924749,-0.1806322828924749,0.997530446598103,0.007003085044435161
-0.17928348974965047,-0.17928348974965047,0.9992630966319613,0.00706639816746178
-0.17827129789511673,-0.17827129789511673,0.9974843419884394,0.00699401469584042
-0.17628137227729895,-0.17628137227729895,0.9997159786594356,0.007027385475750998
-0.17442596407490782,-0.17442596407490782,1.001475902091518,0.0070472872936672235
-0.17300704362569377,-0.17300704362569377,0.9978237700006437,0.007018441691361786
-0.1716693189664511,-0.1716693189664511,0.9993172068278756,0.007066319513739827
-0.17025554977881258,-0.17025554977881258,0.9968398739423947,0.007010131954395475
-0.168428117185249,-0.168428117185249,1.0020938059059032,0.007035006488455227
-0.16694268231804016,-0.16694268231804016,1.0020753235737527,0.0070540795150436705
-0.1651120881550014,-0.1651120881550014,1.0008381206215806,0.007026623594161728
-0.16260271552891936,-0.16260271552891936,0.9991500992480112,0.007009651370621752
-0.16049758461595048,-0.16049758461595048,1.0003798498949887,0.0070213133604027185
-0.15902419611229562,-0.15902419611229562,1.001447338698398,0.007028880763119233
-0.1578966819739435,-0.1578966819739435,1.0001770532085692,0.007013094105399462
-0.15635145053383895,-0.15635145053383895,1.0001428405405277,0.0070142975935911815
-0.15471222543856128,-0.15471222543856128,1.0035476035644482,0.007019094391266118
-0.15309129024972207,-0.15309129024972207,0.9982388857331355,0.007030235502546671
-0.15184070745890493,-0.15184070745890493,1.0019514785808499,0.007031748593848497
-0.15044459662458393,-0.15044459662458393,1.0021661225011678,0.006985243232783966
-0.14875932429567912,-0.14875932429567912,1.002992231543537,0.007045572736760107
-0.14712444041797426,-0.14712444041797426,0.9995746902526748,0.007076800803274312
-0.14541223913838622,-0.14541223913838622,1.0022021374491694,0.007015226748025497
-0.1430412034067558,-0.1430412034067558,1.0006825972555313,0.007006097845156603
-0.1408175345044583,-0.1408175345044583,0.9987058054025214,0.007038836179803634
-0.13903723176044877,-0.13903723176044877,1.001407352840725,0.007037155916348625
-0.13775978080229834,-0.13775978080229834,0.9983649468862769,0.006998968905371933
-0.13603097287996208,-0.13603097287996208,1.0036786123841828,0.007035903611100461
-0.13420058555784636,-0.13420058555784636,1.003025524578907,0.007030795818527637
-0.13253387430449948,-0.13253387430449948,1.0020276752015698,0.007002947678218988
-0.13075809383299203,-0.13075809383299203,1.0054584133740605,0.007031626416596831
-0.12832638747931924,-0.12832638747931924,1.0015930207670318,0.00701392260444776
-0.1268293759698281,-0.1268293759698281,1.0006025366318567,0.007060594996040334
-0.12559703919978346,-0.12559703919978346,0.9974399302055484,0.007022675129396669
-0.12396422316378448,-0.12396422316378448,1.0003852872014218,0.007006400838874692
-0.12154930660035461,-0.12154930660035461,0.9987194103880176,0.007051012684017602
-0.12023408794193528,-0.12023408794193528,0.9998558623980195,0.007078107862560345
-0.11886627520725597,-0.11886627520725597,0.9988648826742464,0.0070082211744305805
-0.11764580925519112,-0.11764580925519112,1.0034096156325307,0.0070156676062917995
-0.11596139342000242,-0.11596139342000242,1.0025582477986466,0.007026999795858526
-0.11408689867530483,-0.11408689867530483,1.0006178350340478,0.007026712845058923
-0.11252456176734996,-0.11252456176734996,0.9997500277118896,0.007005881935712131
-0.11103905984200538,-0.11103905984200538,0.9965426630299092,0.0070300403256374835
-0.10870237720955629,-0.10870237720955629,1.0003275830267908,0.0069979450321391926
-0.10670225818757899,-0.10670225818757899,1.002347026602497,0.0070078384472513685
-0.10520625461649616,-0.10520625461649616,1.0002864614631064,0.007033480574923134
-0.1034228952776175,-0.1034228952776175,0.9991122052393674,0.0070072082392103495
-0.10116443799633998,-0.10116443799633998,0.9978757892021342,0.0070482329956255
-0.0990993440762395,-0.0990993440762395,1.002748495530399,0.007049614636273398
-0.09817785123887006,-0.09817785123887006,1.0013877016172412,0.007029852260797517
-0.09649521945102606,-0.09649521945102606,0.9995779148810818,0.007040445029557807
-0.09480523494130466,-0.09480523494130466,1.000242931769278,0.007006374625270389
-0.09295132108672988,-0.09295132108672988,1.0034172902018188,0.007001133664135306
-0.0915046714246273,-0.0915046714246273,0.9994671069592546,0.007074313279447469
-0.08924023941508494,-0.08924023941508494,1.0004308382711167,0.0069896588994417756
-0.08682274629245512,-0.08682274629245512,1.0045052851634133,0.007021065343439421
-0.08520451461372432,-0.08520451461372432,1.0015788562966128,0.007035614701007276
