time,time,flux,flux_err
-0.49951021042458404,-0.49951021042458404,0.9999524251515685,0.00011576104915336205
-0.4986048346501775,-0.4986048346501775,1.000029209756581,0.0001057657025596899
-0.49785387969750444,-0.49785387969750444,1.0003466149727323,0.00010578269895049497
-0.4972202676901361,-0.4972202676901361,1.0001328711073871,0.00010565245454316867
-0.496528183992632,-0.496528183992632,1.0000512272391215,0.00010576031198872098
-0.4958915507551865,-0.4958915507551865,0.9998671997857063,0.00010576504593384065
-0.4952542848601297,-0.4952542848601297,0.9999989594832668,0.00010606065764408612
-0.4946188493493537,-0.4946188493493537,1.0000818860846383,0.00010636806842264271
-0.4940018095738196,-0.4940018095738196,1.000025744556257,0.00010594782040716
-0.4933139117420069,-0.4933139117420069,0.9999608707705734,0.00010613515473835425
-0.4926866980124032,-0.4926866980124032,1.0000724635534568,0.0001057233134687856
-0.4918156685758731,-0.4918156685758731,1.0001715380660559,0.00010643610189428547
-0.4911085526829993,-0.4911085526829993,1.0001468338820878,0.00010704696485344464
-0.490424879436614,-0.490424879436614,1.0001275137591152,0.00010780327405789435
-0.4898698418299318,-0.4898698418299318,1.0000515448938185,0.00010582121540683163
-0.48912163852946833,-0.48912163852946833,0.9999980881413133,0.00010616557734376977
-0.48838154833647424,-0.48838154833647424,1.000003678617213,0.00010558711199628009
-0.48739643500593954,-0.48739643500593954,1.0000897847968333,0.00010568764309912635
-0.4864928061644605,-0.4864928061644605,0.9999508627378845,0.00010560611501152779
-0.4856725693825865,-0.4856725693825865,1.0001229429310228,0.00010571782367194954
-0.4848091734580521,-0.4848091734580521,1.000068560206602,0.00010572794421068673
-0.48398942483399876,-0.48398942483399876,0.9999809604613639,0.000105926544690405
-0.4832506992985145,-0.4832506992985145,1.0000267045841666,0.00010584644124139882
-0.482502650909737,-0.482502650909737,1.0002319577096517,0.00010569449112932195
-0.48182651844326757,-0.48182651844326757,0.9999200794248686,0.00010590537764222916
-0.48104905072250403,-0.48104905072250403,0.9998758282570716,0.00010693033351833417
-0.480283534557384,-0.480283534557384,1.000012608283249,0.00010669101687425508
-0.4794889319338836,-0.4794889319338836,0.999906481173037,0.00010561888787359672
-0.4784659504184674,-0.4784659504184674,1.0001289935108015,0.00010564995035475717
-0.47762619196000744,-0.47762619196000744,1.000058204581337,0.00010575036528716263
-0.4768726999136561,-0.4768726999136561,1.000051362374396,0.00010577640068085571
-0.4761217933504668,-0.4761217933504668,1.0001471262870443,0.000105799156156345
-0.47556472611759093,-0.47556472611759093,0.999868084799072,0.00010568583196833591
-0.4748915893098456,-0.4748915893098456,0.9999801308470296,0.00010588582415710804
-0.4743572757761285,-0.4743572757761285,0.999786029078592,0.00010579103374031651
-0.4737060515020858,-0.4737060515020858,0.999912167034332,0.00010587587127539517
-0.47313218396520823,-0.47313218396520823,0.9999351564457273,0.00010610022446732243
-0.4725442749186186,-0.4725442749186186,0.9998984571219921,0.00010625464727920698
-0.4718335214049148,-0.4718335214049148,0.9998797970110458,0.00010607109762238364
-0.4711346441676142,-0.4711346441676142,1.0000966740631916,0.00010613303960591892
-0.4704830720293103,-0.4704830720293103,0.9998895503259421,0.00010646685116539368
-0.469666503231565,-0.469666503231565,0.9998470379037798,0.00010713603217380272
-0.4690848913276568,-0.4690848913276568,1.0000876935467877,0.00010633367761940682
-0.4684962294602883,-0.4684962294602883,0.9999040774451442,0.00010780534960044036
-0.46784594851997097,-0.46784594851997097,1.0000977256583432,0.00010588007381898701
-0.46702412346639904,-0.46702412346639904,1.000011117113321,0.0001056701969537828
-0.46606727893667993,-0.46606727893667993,1.0000663157065621,0.00010568690554396246
-0.46518894271648603,-0.46518894271648603,1.000041587049124,0.00010560287173191752
-0.4642721098360198,-0.4642721098360198,0.9998630095639374,0.0001056201956681294
-0.46340059969006686,-0.46340059969006686,1.0000139082285195,0.0001058269230578026
-0.46268848845284083,-0.46268848845284083,1.000057310964826,0.0001057017159818721
-0.46195253787736873,-0.46195253787736873,1.0002316702296887,0.00010576627452939012
-0.4612268949364079,-0.4612268949364079,0.9999079840464764,0.00010586906192708095
-0.4603904241674172,-0.4603904241674172,1.0000105885261994,0.00010604928310128435
-0.4596341472162749,-0.4596341472162749,0.9999163588125872,0.000105627228655041
-0.45872798134878395,-0.45872798134878395,1.0000832231291856,0.00010770476610593323
-0.4580204243087792,-0.4580204243087792,0.9998298567291467,0.0001075673265258112
-0.4571886169804202,-0.4571886169804202,0.999973311528026,0.00010563398752238221
-0.45603645812007015,-0.45603645812007015,0.9998707254294983,0.00010573108091411052
-0.45528295558397075,-0.45528295558397075,0.9999428218116829,0.00010575679508350328
-0.4545448045610101,-0.4545448045610101,0.9999257146654432,0.0001056997742006746
-0.45380670261511113,-0.45380670261511113,1.0000902757379193,0.00010572879389520904
-0.45330173741822366,-0.45330173741822366,1.0000882932911606,0.00010583110034091099
-0.4525592653109925,-0.4525592653109925,0.9996401838018023,0.00010580826271158641
-0.4519777959212661,-0.4519777959212661,0.9999278059572978,0.00010591698973683603
-0.45139308849174997,-0.45139308849174997,0.9999379172753763,0.00010593488847356067
-0.4506849663121102,-0.4506849663121102,0.9999074271922389,0.00010593681243453308
-0.4498835963517195,-0.4498835963517195,0.9996785820561117,0.00010599111391107341
-0.44904281089038706,-0.44904281089038706,0.9998605847274181,0.000106182808229941
-0.4483370897534769,-0.4483370897534769,0.9999426811810223,0.00010649050967264273
-0.4475649181411427,-0.4475649181411427,0.9998282613231625,0.0001073800490751475
-0.44690548423022847,-0.44690548423022847,1.0000201559172481,0.00010788903769935042
-0.44637477759169997,-0.44637477759169997,0.9998195491932066,0.00010573956085346693
-0.44565097868762676,-0.44565097868762676,1.00010982858278,0.0001059079806192235
-0.4447653394738154,-0.4447653394738154,1.000112443282868,0.00010558222278354776
-0.4438807345024543,-0.4438807345024543,0.999902741928486,0.00010560299657998075
-0.4428943643157254,-0.4428943643157254,0.9998789035894642,0.00010560438203988643
-0.4421138300887833,-0.4421138300887833,0.9999141145250625,0.00010583309905299842
-0.44133591491554397,-0.44133591491554397,0.9999116020594829,0.000105742567155797
-0.44053750844250317,-0.44053750844250317,0.9998405524990593,0.00010580449113472935
-0.4397628557737335,-0.4397628557737335,1.0000462932891505,0.0001058276563811191
-0.43915225288656073,-0.43915225288656073,0.9999251210592355,0.00010590219223340766
-0.4383703911516932,-0.4383703911516932,1.0000853645139738,0.0001060376329063668
-0.4375171008920006,-0.4375171008920006,1.000027978299097,0.0001056104793591851
-0.43654763913073114,-0.43654763913073114,0.9998951867051048,0.00010688244771682413
-0.43584417526144537,-0.43584417526144537,1.0001130300432106,0.00010791213040746414
-0.4349766722145432,-0.4349766722145432,0.9999308821592043,0.00010573150863786934
-0.4340049613514566,-0.4340049613514566,1.000101310283397,0.00010568225042515051
-0.43325981865273205,-0.43325981865273205,1.0000547087873461,0.00010576886302814668
-0.4325095943502674,-0.4325095943502674,1.0001068556805481,0.00010579799393249171
-0.4317695225676289,-0.4317695225676289,0.9999971296225223,0.00010571348522259902
-0.4312559366648202,-0.4312559366648202,0.999940941317109,0.00010574052879376488
-0.43058244982676114,-0.43058244982676114,0.9998876246858162,0.00010579087587281536
-0.42994482921785676,-0.42994482921785676,0.9998885444520915,0.00010592324993622701
-0.42936515545588916,-0.42936515545588916,1.0000204897127736,0.00010623151468746594
-0.42864097426790976,-0.42864097426790976,0.9998393355344654,0.0001057048167361655
-0.427965626760124,-0.427965626760124,1.0000220655909857,0.00010637869598688773
-0.42715742123982636,-0.42715742123982636,0.9999040872160098,0.00010623623026525764
-0.4266306906909449,-0.4266306906909449,0.9998233151058702,0.00010668582945699912
-0.4258241204341175,-0.4258241204341175,0.999760416205478,0.00010734864283349489
-0.425305341303465,-0.425305341303465,0.9999708501397075,0.00010569181650956867
-0.4246390468797472,-0.4246390468797472,1.0001025925479763,0.00010803138797695264
-0.4239705011823389,-0.4239705011823389,1.0001891603027797,0.00010622309748247408
-0.4232487435117946,-0.4232487435117946,0.9999327006112091,0.0001056788751822119
-0.4223022077305359,-0.4223022077305359,0.9999640638032801,0.0001055778354323543
-0.42142333291194517,-0.42142333291194517,1.0001886067134593,0.00010571187088391752
-0.42050862782489273,-0.42050862782489273,0.9999310113369939,0.000105645174837444
-0.41990026331186525,-0.41990026331186525,0.9998051003192835,0.00010571818814225104
-0.4191006957909849,-0.4191006957909849,1.0001602445032545,0.00010577560003072882
-0.4184870908582525,-0.4184870908582525,0.9999149538413086,0.00010578075953895612
-0.41771345393062803,-0.41771345393062803,1.000326337303982,0.00010584876429688378
-0.4169097746605985,-0.4169097746605985,0.9999895565809872,0.00010594415644742785
-0.4162883217635681,-0.4162883217635681,0.9999473144802369,0.00010656823563903529
-0.4157537308477913,-0.4157537308477913,0.9998764354733065,0.00010565633316268149
-0.41513500627261235,-0.41513500627261235,0.9999579981533554,0.00010566974272782578
-0.4141676762163115,-0.4141676762163115,1.0000366049709986,0.0001057015054731093
-0.41346646759848227,-0.41346646759848227,1.0000200285555998,0.00010568077516225596
-0.41274294519389515,-0.41274294519389515,1.0000476375030514,0.00010562317215986608
-0.4120460168858699,-0.4120460168858699,0.9998944990808797,0.00010676492754764405
-0.4113737168576336,-0.4113737168576336,0.9999294940199525,0.00010576515287991594
-0.4106806079638773,-0.4106806079638773,0.9999130664316576,0.00010565895004073663
-0.4099827229169023,-0.4099827229169023,0.9999376267054174,0.00010585945113196576
-0.40937254232994746,-0.40937254232994746,1.000021640242681,0.00010576151629726078
-0.40869519805492016,-0.40869519805492016,1.0000508978623495,0.00010580392751612428
-0.4080643207555113,-0.4080643207555113,0.9998584091472884,0.00010595711205773355
-0.4074817391439865,-0.4074817391439865,1.0000350214848954,0.00010634489785974208
-0.4067562649397587,-0.4067562649397587,1.0001043443929203,0.00010570750210798388
-0.4059128458342457,-0.4059128458342457,1.0000681996833467,0.00010610763483492038
-0.4050213833732414,-0.4050213833732414,1.0000522079000067,0.00010633576697226814
-0.404209716738842,-0.404209716738842,0.9998976743730603,0.00010859239817622376
-0.4035796951582597,-0.4035796951582597,1.000047559628556,0.00010573365911654788
-0.4028346388717182,-0.4028346388717182,1.000093634523682,0.00010823585167422502
-0.4021789586207888,-0.4021789586207888,0.9999685833028013,0.00010606711814536999
-0.40136120446477436,-0.40136120446477436,0.9999097125694479,0.00010567434197690688
-0.400420593025774,-0.400420593025774,1.0001505453086925,0.00010558347112524499
-0.3995398838997062,-0.3995398838997062,1.0000240922622992,0.00010572089338927071
-0.39873979563708417,-0.39873979563708417,1.0000814486063774,0.0001054952945321179
-0.3980149511633499,-0.3980149511633499,0.9998453029018421,0.00010573099847412794
-0.39719137971042073,-0.39719137971042073,0.9999565337047862,0.00010589713410613554
-0.39645537906326356,-0.39645537906326356,1.0000148020229094,0.00010583451229836122
-0.3956868028501049,-0.3956868028501049,1.0001445579560424,0.00010561681380417205
-0.39488716224295783,-0.39488716224295783,1.000004471039633,0.00010596104585028278
-0.39405911676512917,-0.39405911676512917,1.0000137911977551,0.00010687374997249782
-0.3935473716672277,-0.3935473716672277,1.0000377438937424,0.00010641428246044502
-0.3929004416830139,-0.3929004416830139,1.0001043074210614,0.00010794819906009328
-0.3921257533227617,-0.3921257533227617,0.9999610450995606,0.00010556888120509837
-0.3914261742371309,-0.3914261742371309,0.999809717784417,0.00010567892859772161
-0.3905340736077051,-0.3905340736077051,1.0000533753145588,0.0001056933081989633
-0.3897963801762671,-0.3897963801762671,1.0001695960010575,0.00010576411511238834
-0.3890457117791811,-0.3890457117791811,0.9997491976950315,0.0001057659660537938
-0.38839399811258773,-0.38839399811258773,1.0000253680925488,0.00010567042028414438
-0.3877119637436408,-0.3877119637436408,0.9999404996451473,0.00010577894386570958
-0.38705940732179445,-0.38705940732179445,1.0000082951261293,0.00010584025382438687
-0.38647810814072725,-0.38647810814072725,1.0000720658526379,0.00010587144017933794
-0.3858322213010979,-0.3858322213010979,1.0000029920914497,0.0001064125327020147
-0.38517347670640445,-0.38517347670640445,0.9999348049094501,0.00010598350406377148
-0.384340950864862,-0.384340950864862,1.0000652535004502,0.00010612466323371383
-0.3836856993162655,-0.3836856993162655,0.9999731582312463,0.00010639173681361181
-0.3828271252728882,-0.3828271252728882,0.9998094216742137,0.0001069974448882732
-0.3820153313805349,-0.3820153313805349,1.0000305374382354,0.00010774120084949383
-0.38148228201971507,-0.38148228201971507,0.9999793882884986,0.00010574216270129867
-0.3807322367763845,-0.3807322367763845,0.9999000889724676,0.00010580014037796078
-0.38011865337903145,-0.38011865337903145,1.000122951697202,0.00010614441224293814
-0.37927204352163246,-0.37927204352163246,1.000020917823233,0.00010567730605786162
-0.3783904384486959,-0.3783904384486959,0.99996507880266,0.00010559428688366174
-0.3774741797031311,-0.3774741797031311,0.9998864365004575,0.00010562535112681751
-0.3766111563614686,-0.3766111563614686,0.9999518759825069,0.00010581958151521216
-0.37582150449816254,-0.37582150449816254,0.9999979357943506,0.00010576088073621394
-0.3750634838033875,-0.3750634838033875,1.000219459063476,0.00010832981114910607
-0.3744314066469087,-0.3744314066469087,0.9999705743233683,0.00010584761543377082
-0.37368397589380037,-0.37368397589380037,1.0000139908656571,0.00010569726205206614
-0.37300381585082504,-0.37300381585082504,1.0001514728908525,0.00010598735336232218
-0.3722080837644171,-0.3722080837644171,1.0000975752885108,0.00010691812012143414
-0.3715775501470489,-0.3715775501470489,1.0000052508657051,0.00010746293260380987
-0.37080883438466117,-0.37080883438466117,1.0000642850925663,0.00010563983583494781
-0.36978606969641986,-0.36978606969641986,0.9999341621183613,0.00010564305713850854
-0.36894694984439413,-0.36894694984439413,1.0001671229419038,0.0001057579289366229
-0.36819339978974314,-0.36819339978974314,0.9998215957130407,0.00010576997398240227
-0.3674424397337134,-0.3674424397337134,1.0000178036361516,0.00010577724666932151
-0.36688492634348224,-0.36688492634348224,0.9998631293217658,0.00010567984389384183
-0.366212166317564,-0.366212166317564,1.0001012361469874,0.00010589345176559256
-0.36567811265558703,-0.36567811265558703,0.9999315738256364,0.00010579297545437768
-0.3650261278358812,-0.3650261278358812,1.0000114896995336,0.00010587295083555582
-0.3644525820709532,-0.3644525820709532,0.999844880809127,0.00010607710892907927
-0.36386449831115897,-0.36386449831115897,1.0000950371417665,0.0001062478614835625
-0.36315374904006603,-0.36315374904006603,1.0000195704670474,0.00010607825493646739
-0.36245527086794027,-0.36245527086794027,0.9999225911864095,0.00010613801468473912
-0.36180333222582706,-0.36180333222582706,1.0001174481870727,0.00010647746006993764
-0.360987402441242,-0.360987402441242,0.9998535848049516,0.00010713491182602244
-0.3602838067599805,-0.3602838067599805,0.9997652416287414,0.00010784951379956683
-0.3597477441398951,-0.3597477441398951,0.9999275316909347,0.00010573554782548192
-0.35900109488211457,-0.35900109488211457,0.9998963316708078,0.00010586191921126504
-0.3581306840707839,-0.3581306840707839,0.9998895362618526,0.00010567662201262985
-0.3572370849804429,-0.3572370849804429,0.9999719538052261,0.0001055807657514856
-0.35635101838634,-0.35635101838634,1.0000785332751356,0.00010559858039669314
-0.3554054574429756,-0.3554054574429756,1.0000938468020213,0.00010571745310427917
-0.3545416605556966,-0.3545416605556966,1.0001918222996178,0.000105745111157071
-0.35386804881418354,-0.35386804881418354,1.0000012933422684,0.00010571582830770196
-0.353126785785571,-0.353126785785571,0.9999725220482647,0.00010582602461876563
-0.3523740081356664,-0.3523740081356664,0.9999104938924628,0.00010586090470176112
-0.3516899397851375,-0.3516899397851375,0.999829952974453,0.0001060413860132583
-0.3509541683146381,-0.3509541683146381,1.0000307041013512,0.00010562436127650626
-0.35003631525323725,-0.35003631525323725,1.000202919531778,0.00010630654784627127
-0.3491891296092945,-0.3491891296092945,1.0000818550574306,0.00010747754056680521
-0.34827330515981886,-0.34827330515981886,1.000156921369804,0.00010571565817986048
-0.3472075095603941,-0.3472075095603941,1.0000235106108237,0.00010567408796012729
-0.34646671069058355,-0.34646671069058355,1.0000166391166256,0.00010577520644352103
-0.3457159656121803,-0.3457159656121803,0.9998968226976419,0.00010576701426740995
-0.34502067609573717,-0.34502067609573717,0.999995705053152,0.00010576171842491791
-0.3444684619724285,-0.3444684619724285,0.999930689637635,0.0001058099661430233
-0.3438746208761586,-0.3438746208761586,1.0002273898736378,0.00010587966035329792
-0.3432978725497378,-0.3432978725497378,1.0000808899794147,0.0001059155093206897
-0.34271334351651606,-0.34271334351651606,1.0003320147100616,0.00010594681889548638
-0.3420056565657433,-0.3420056565657433,0.9998864005012411,0.00010592091593037832
-0.3412042408337584,-0.3412042408337584,0.9999111280836578,0.00010600272770082762
-0.3403634138383495,-0.3403634138383495,0.9999882307558774,0.00010619132427680037
-0.33965720325431903,-0.33965720325431903,0.9999340505651594,0.00010646055041990462
-0.3388850634248229,-0.3388850634248229,1.0000201556906776,0.000107373645870657
-0.3382255292264745,-0.3382255292264745,0.999920120062197,0.00010788654306787484
-0.33769488934558467,-0.33769488934558467,0.9997392630402112,0.00010572434797875382
-0.3369710343242332,-0.3369710343242332,1.0002705690045919,0.00010591444080303534
-0.33623984169462345,-0.33623984169462345,1.0000090390883476,0.00010700802207731761
-0.3353553026587178,-0.3353553026587178,1.0000258943130844,0.00010559318760871238
-0.33446880113333466,-0.33446880113333466,1.000031384994219,0.0001056005360050167
-0.3335196749518218,-0.3335196749518218,0.9999297900017826,0.00010570282753681209
-0.33282558068749496,-0.33282558068749496,1.0000585444157388,0.00010587344100970622
-0.33212876380785017,-0.33212876380785017,0.999829720583819,0.00010570824618192161
-0.33139247247672754,-0.33139247247672754,0.9998912392016015,0.00010576615188483993
-0.33076177062175705,-0.33076177062175705,1.0000174946501705,0.00010567724381569535
-0.3299744609663321,-0.3299744609663321,1.000080798056253,0.00010592699032163018
-0.329237328410818,-0.329237328410818,0.9999060019439618,0.00010607253342381994
-0.32823945224736234,-0.32823945224736234,1.000087290564041,0.00010683169534049718
-0.32735583689645864,-0.32735583689645864,1.0001653084244841,0.00010561493062539431
-0.3263901657606766,-0.3263901657606766,1.0000591962596506,0.00010572137793847533
-0.32532521011016796,-0.32532521011016796,1.0000963359009034,0.00010567395632074791
-0.32458050263521726,-0.32458050263521726,0.9998011212104878,0.00010575798638001121
-0.3239267900113191,-0.3239267900113191,1.0000090521527716,0.00010575188310937226
-0.32320745132965384,-0.32320745132965384,0.999989463534704,0.0001057452897911154
-0.32271264119408444,-0.32271264119408444,1.0000860990094376,0.00010570176499512692
-0.32199554982726114,-0.32199554982726114,1.000093192074758,0.00010584481195726283
-0.3214172135325498,-0.3214172135325498,0.9998395015303252,0.00010591858941005929
-0.3208310794791032,-0.3208310794791032,1.000108719595072,0.00010598529458094051
