time,time,flux,flux_err
-0.49851460390649055,-0.49851460390649055,0.9999244188933877,0.000114379559739346
-0.4963177262707177,-0.4963177262707177,1.0000749576054002,0.00011451903271948513
-0.4938082392848931,-0.4938082392848931,1.0000109416773801,0.00011405331325740813
-0.491473387287139,-0.491473387287139,0.9998671821554462,0.00011406362489703726
-0.4898504213379056,-0.4898504213379056,1.000102842022462,0.00010430045198520771
-0.4885180075609242,-0.4885180075609242,1.0000517966683673,0.00010440506648130745
-0.48722735247574744,-0.48722735247574744,1.0000783588005848,0.00010411440661380584
-0.4856598266698711,-0.4856598266698711,1.000044331769646,0.00010444846589359939
-0.4843192944637849,-0.4843192944637849,0.9999640653811914,0.00010454281971561791
-0.4821056529246562,-0.4821056529246562,0.9999379213803923,0.00010411585170101852
-0.48040798259171424,-0.48040798259171424,0.9999163798966441,0.00010464040041679083
-0.47892938453223904,-0.47892938453223904,1.000161136639807,0.00010414664972076058
-0.4774017599338549,-0.4774017599338549,0.999964480211942,0.00010425916586384027
-0.47610380385376627,-0.47610380385376627,0.9998559323308198,0.00010434369913792105
-0.4747753243900661,-0.4747753243900661,0.9999612258746418,0.000104106282785936
-0.4733657554934325,-0.4733657554934325,0.9998575020552991,0.0001044485541513479
-0.4723909687534615,-0.4723909687534615,1.0000601251475572,0.00010412267803296607
-0.4708683237018704,-0.4708683237018704,1.0000940133332104,0.00010466182406673101
-0.46892479176749474,-0.46892479176749474,1.0000734010218888,0.00010414638799139092
-0.4674293145762931,-0.4674293145762931,0.9999424520411321,0.00010446607402290174
-0.46587945192004554,-0.46587945192004554,1.0000096400248484,0.00010412285308138982
-0.46442972693912454,-0.46442972693912454,1.0002490463217106,0.00010420885216541797
-0.46281596134431313,-0.46281596134431313,0.9998285510802646,0.00010431293191892719
-0.46144926741471864,-0.46144926741471864,0.9999213811566037,0.00010441936317950934
-0.46006654462689767,-0.46006654462689767,1.0000747302961837,0.00010412058237413211
-0.45871863474385466,-0.45871863474385466,1.000042226876451,0.00010461453034794972
-0.45685812527735836,-0.45685812527735836,0.999928860575537,0.00010413561983153678
-0.45497596751956737,-0.45497596751956737,0.9999698987058604,0.00010433877636744805
-0.4535015094756091,-0.4535015094756091,1.0000550683562495,0.00010413862182776846
-0.45200077801564476,-0.45200077801564476,0.9998822947249304,0.00010421295619649778
-0.450414827199711,-0.450414827199711,0.9999060298867561,0.00010428669994608378
-0.44906294543034164,-0.44906294543034164,0.9999985254947147,0.00010410405706675118
-0.44747025719698286,-0.44747025719698286,0.9998569942146636,0.00010440635982332087
-0.4457391311021638,-0.4457391311021638,0.9999993390104913,0.00010450315786618052
-0.4442417081379972,-0.4442417081379972,1.0000410021802022,0.00010462677944712217
-0.44195756802873803,-0.44195756802873803,0.9999936338594642,0.00010414142070593797
-0.4401086008118,-0.4401086008118,0.999876569724584,0.00010413938402131769
-0.43874793439390486,-0.43874793439390486,0.9998614018159386,0.0001041676107149517
-0.43725683632073925,-0.43725683632073925,1.00012613617427,0.00010430852872571237
-0.43599533919623357,-0.43599533919623357,0.9998464571944334,0.00010438297420794758
-0.43442045537376545,-0.43442045537376545,0.9998577478739039,0.0001040972198788459
-0.43282711509018557,-0.43282711509018557,0.9998955035405709,0.00010449345813753021
-0.4310103847186838,-0.4310103847186838,1.0000991183282781,0.00010459965363540747
-0.42886151082711876,-0.42886151082711876,1.0001018443755711,0.00010414423623570297
-0.4268219041834527,-0.4268219041834527,0.9999076669365164,0.00010414433938260143
-0.4250884373133886,-0.4250884373133886,1.0000676432581153,0.00010429823206535261
-0.42386540392762984,-0.42386540392762984,0.999960604420659,0.00010410493696993428
-0.42256788141166907,-0.42256788141166907,0.9999743720701437,0.00010436569821506089
-0.42134289165696825,-0.42134289165696825,1.000102260129861,0.00010440552104836835
-0.4199495103290246,-0.4199495103290246,1.0000754929140077,0.00010414975904702095
-0.4185906983315363,-0.4185906983315363,0.9999706956945811,0.00010469626079828137
-0.4169112482719356,-0.4169112482719356,1.0001127537441037,0.0001041396012794451
-0.4151411464372359,-0.4151411464372359,1.0000357046732753,0.00010411812851009324
-0.41372889776757804,-0.41372889776757804,1.00004994307669,0.00010456115895265057
-0.4120966822221817,-0.4120966822221817,0.9999011592913891,0.00010423549902936482
-0.410883191931498,-0.410883191931498,0.9999425848018229,0.00010410745488260824
-0.40937822015475833,-0.40937822015475833,0.9999906687846598,0.00010431334782736143
-0.407942510250723,-0.407942510250723,1.0000016867204875,0.00010442106743134189
-0.40683734938284033,-0.40683734938284033,0.9999381793519312,0.0001041436667208687
-0.40530788285614106,-0.40530788285614106,1.0001021789400049,0.00010464624153687118
-0.40302890727616614,-0.40302890727616614,1.0001363499575184,0.00010415719730748625
-0.4016160544597369,-0.4016160544597369,0.9999753292945422,0.00010438985589426842
-0.39998560942476613,-0.39998560942476613,1.0000285077661555,0.00010413179424158667
-0.3986250052432297,-0.3986250052432297,0.9999909063268202,0.00010420785147166246
-0.39693269728450103,-0.39693269728450103,0.9999262554101691,0.00010428681984656001
-0.3955611461264198,-0.3955611461264198,1.0001455848779692,0.00010444206734985626
-0.3942367353629379,-0.3942367353629379,1.0000827584948908,0.00010412383334969819
-0.3925830033498642,-0.3925830033498642,1.0000114001706528,0.00010459103594595348
-0.3904260187890031,-0.3904260187890031,1.0002186854996622,0.0001047027193297983
-0.38890723741715194,-0.38890723741715194,0.9999513802318531,0.00010434238158302838
-0.38726910998666425,-0.38726910998666425,1.000002863418631,0.00010413187016212135
-0.38590845944636387,-0.38590845944636387,0.9999018350307335,0.0001041761974437695
-0.38441070692351786,-0.38441070692351786,1.0000711092995238,0.00010433020797875531
-0.3831608216634777,-0.3831608216634777,1.0000004992576923,0.00010442299373338159
-0.3815853767133376,-0.3815853767133376,1.0000079485223448,0.00010410888859460137
-0.3799944825936109,-0.3799944825936109,0.9998186807241639,0.00010448522476399259
-0.378171013618703,-0.378171013618703,1.0000572744246405,0.00010461832208794974
-0.376014562133787,-0.376014562133787,1.000187887601304,0.00010414284302041649
-0.3739764219717472,-0.3739764219717472,0.9997843226071268,0.00010412757728494884
-0.3722487788145372,-0.3722487788145372,0.9999784707266022,0.00010429046257336516
-0.3710308104986325,-0.3710308104986325,0.9999750127838599,0.00010410423277385681
-0.36950222407103867,-0.36950222407103867,1.0000260146301598,0.00010438302914353317
-0.3681636775894731,-0.3681636775894731,0.9998241668596254,0.00010441805810786173
-0.3669533195788972,-0.3669533195788972,1.0000378238087246,0.00010415384602807044
-0.3649351913561986,-0.3649351913561986,0.9999166593614177,0.00010455313800581318
-0.3629632675088942,-0.3629632675088942,0.9999961569170444,0.00010412503977077325
-0.36148292754005523,-0.36148292754005523,0.999995237783627,0.00010465403751000724
-0.3598638231691439,-0.3598638231691439,1.0001890628573293,0.00010414346626279126
-0.3585033101313456,-0.3585033101313456,1.0001368574665794,0.0001042195339464894
-0.3571198369776539,-0.3571198369776539,0.9997670570195547,0.0001043416582478696
-0.35578108817207976,-0.35578108817207976,1.0001915822801402,0.00010443191683976584
-0.35439148325312997,-0.35439148325312997,0.9998080202384105,0.00010411558428150469
-0.35303661152065613,-0.35303661152065613,0.9999428156709668,0.00010462342995044996
-0.35134945557147146,-0.35134945557147146,0.9999817917427698,0.00010414512483447914
-0.3495947178824281,-0.3495947178824281,1.0001639147651125,0.00010412445447765036
-0.3481729008432012,-0.3481729008432012,1.000240906757512,0.00010447024136808849
-0.34654737404343905,-0.34654737404343905,0.9999596264204289,0.00010421289953200774
-0.34512756933036143,-0.34512756933036143,1.0001649066812257,0.00010433047927606584
-0.34365112783707447,-0.34365112783707447,0.9999304200540242,0.00010408831270498883
-0.34202392442603013,-0.34202392442603013,0.9999936211016385,0.00010438893099749026
-0.3412214896066871,-0.3412214896066871,0.9999887831865937,0.00010420528046478587
-0.3397475861798739,-0.3397475861798739,1.0002642948594975,0.00010463300604867682
-0.3374787181892316,-0.3374787181892316,0.9999445582549328,0.00010411404576953889
-0.33606426011101576,-0.33606426011101576,0.9999321554228235,0.00010436649127240212
-0.3344297471434402,-0.3344297471434402,1.0001432014201563,0.00010414651603146664
-0.33306911470208433,-0.33306911470208433,1.0000744065355351,0.00010420752804581028
-0.33138135926783435,-0.33138135926783435,1.000119951376135,0.00010428229109692177
-0.33000377449352525,-0.33000377449352525,1.000168882386281,0.0001044359539033741
-0.32840376272943106,-0.32840376272943106,0.9998544938398803,0.00010438291506835974
-0.32694081066874786,-0.32694081066874786,1.000165027209313,0.0001042234501884766
-0.3253083822077315,-0.3253083822077315,1.000011159419433,0.00010472051323156307
-0.32316777920495954,-0.32316777920495954,0.9999466725913644,0.00010414279916307244
-0.3213890957689728,-0.3213890957689728,1.0001046242176774,0.00010419781949696756
-0.3200655532775272,-0.3200655532775272,1.0000784844312531,0.00010409368026485829
-0.31861377145251024,-0.31861377145251024,0.999913786850958,0.00010429169470617195
-0.3172846053479589,-0.3172846053479589,1.0001433586587367,0.00010440828149297653
-0.3156752551243699,-0.3156752551243699,0.9998641482866152,0.00010439775861357091
-0.31421133703988746,-0.31421133703988746,0.9998835228648778,0.00010417738180963017
-0.31209774243980065,-0.31209774243980065,0.9998922126510962,0.0001045828521196611
-0.3100836091784004,-0.3100836091784004,1.0000430349742158,0.00010413032282375148
-0.3080460145800316,-0.3080460145800316,0.9999631968827639,0.00010413600135962425
-0.3064069159438077,-0.3064069159438077,1.000231046516556,0.0001042943193338638
-0.30521586438335363,-0.30521586438335363,0.9999967314811933,0.00010410507488450418
-0.30370072073274057,-0.30370072073274057,0.9999016788906182,0.00010435738690148735
-0.30226613067861763,-0.30226613067861763,1.0001176900737576,0.00010441477393041011
-0.3011550676812476,-0.3011550676812476,0.9999743773869719,0.0001041517832665857
-0.2996376547242107,-0.2996376547242107,1.0000109893136064,0.0001046953479158838
-0.29768887957689005,-0.29768887957689005,1.0001932416161465,0.00010413456674140142
-0.29619387777056544,-0.29619387777056544,1.0003080755999427,0.00010456195220945696
-0.2946426635789976,-0.2946426635789976,1.0001392571995502,0.00010413227534771868
-0.29319263342113117,-0.29319263342113117,0.999820797837657,0.00010423598045283212
-0.2918437851505587,-0.2918437851505587,0.9999504760881155,0.0001043480704992036
-0.2905515364225721,-0.2905515364225721,1.0000841855929026,0.00010411867932599553
-0.28897081444883954,-0.28897081444883954,0.9999955182410132,0.00010443386042226002
-0.2878343728923937,-0.2878343728923937,1.000214145051713,0.0001044498190221595
-0.28604235120656085,-0.28604235120656085,1.0000143621565898,0.00010432104481636079
-0.2840485157437797,-0.2840485157437797,0.9999773125581474,0.0001041179355828091
-0.28261706047269397,-0.28261706047269397,1.0000761133310099,0.00010440775173509544
-0.2809982097227476,-0.2809982097227476,0.999874467409613,0.00010420435185271612
-0.27957006876094964,-0.27957006876094964,0.9999041322143583,0.00010431261627521268
-0.278089362764149,-0.278089362764149,0.9999978196015522,0.00010409771687551747
-0.2764677566585306,-0.2764677566585306,1.0000858583495762,0.00010440796404290367
-0.2748480755231867,-0.2748480755231867,1.000222907591514,0.00010459781794565413
-0.2730104243659298,-0.2730104243659298,0.999954011044019,0.00010467583967778943
-0.2710257934159017,-0.2710257934159017,0.9998662299261376,0.00010431279996684067
-0.2695526338684431,-0.2695526338684431,0.9999798269281313,0.00010412194165283867
-0.26805975087918343,-0.26805975087918343,0.9999157786600167,0.00010422900787196959
-0.26656975873847844,-0.26656975873847844,1.0002069127477244,0.00010433514669838546
-0.2653619805823837,-0.2653619805823837,1.0001206169822894,0.00010409287559251289
-0.26375087552369225,-0.26375087552369225,0.9999725111094582,0.00010438554294959521
-0.26214748316415354,-0.26214748316415354,0.9999034720383362,0.00010439387815719422
-0.2606560771942895,-0.2606560771942895,1.0000840542727416,0.00010471312420937798
-0.2584689936033101,-0.2584689936033101,0.999930825468408,0.00010411020261677914
-0.2564080391581228,-0.2564080391581228,1.0000837378319056,0.00010414037463328959
-0.25451218415400945,-0.25451218415400945,0.9999700944654617,0.00010410278335163317
-0.2530609091532824,-0.2530609091532824,0.9998592741478147,0.0001042657435530094
-0.25172756302417837,-0.25172756302417837,0.9999659951319355,0.00010439106477579357
-0.25043651099331327,-0.25043651099331327,0.9999194597573208,0.0001040970460422982
-0.24886801599204772,-0.24886801599204772,0.9999638133737694,0.00010445557969482456
-0.2475302690996614,-0.2475302690996614,0.9999792373941722,0.00010451790148674254
-0.24531757706354257,-0.24531757706354257,0.9999720492493737,0.00010410880620083016
-0.24361780575927697,-0.24361780575927697,0.9999725902274543,0.00010463833656418638
-0.24213943920185557,-0.24213943920185557,0.9998729039666806,0.00010413380355181177
-0.24061340398548053,-0.24061340398548053,1.000043908517483,0.00010424546812838461
-0.23931252128168126,-0.23931252128168126,1.0000867877039434,0.00010433412586911279
-0.2379835100400669,-0.2379835100400669,1.0000185229601954,0.00010409601695133843
-0.23634729291370604,-0.23634729291370604,0.9998807231462458,0.00010442799983678519
-0.2353269282313704,-0.2353269282313704,0.9999171601962136,0.00010443068563186076
-0.23373349980975036,-0.23373349980975036,0.999958995036659,0.00010429933419025082
-0.23179030949249863,-0.23179030949249863,1.0000261589824133,0.00010413926392963547
-0.23037866688755457,-0.23037866688755457,1.0001629318591287,0.00010444777745025788
-0.22875139045281684,-0.22875139045281684,0.9998521698893509,0.00010413144981667104
-0.2273908081886475,-0.2273908081886475,0.9999340323805512,0.00010421061932737628
-0.22569495436109718,-0.22569495436109718,1.0000136839430254,0.00010430427133785237
-0.2243280694114219,-0.2243280694114219,0.9999512552514236,0.00010443783332575872
-0.22311527123529232,-0.22311527123529232,0.9998517577782225,0.00010412362972081941
-0.2216453241489944,-0.2216453241489944,1.000093979671772,0.00010459248247783105
-0.2195471858009114,-0.2195471858009114,1.0000241058582486,0.00010414387863987708
-0.21792585550792865,-0.21792585550792865,1.0000304416907007,0.00010436753120707072
-0.21637988865259103,-0.21637988865259103,1.0001623829963189,0.00010410730690116857
-0.2149308867577929,-0.2149308867577929,0.9999291549848749,0.00010423024734323787
-0.21342927018849878,-0.21342927018849878,1.000063451061271,0.00010433816787791207
-0.21227227447307087,-0.21227227447307087,0.9999150261357068,0.00010410303188091955
-0.21067857735906728,-0.21067857735906728,1.0001646886743842,0.00010442941352450717
-0.20894853953577694,-0.20894853953577694,1.000013929569662,0.00010450227856506191
-0.20767939927754925,-0.20767939927754925,0.9999189936080736,0.00010469541308903805
-0.20562917093338912,-0.20562917093338912,1.0002418318963266,0.00010415405014504387
-0.2036704939651827,-0.2036704939651827,0.9999275624513263,0.00010409505043403396
-0.20222200302887358,-0.20222200302887358,0.9999945644426959,0.00010419401929114979
-0.2007175939354056,-0.2007175939354056,1.0000738745546456,0.00010429543938845912
-0.19954897443094524,-0.19954897443094524,0.9999636689877507,0.00010411224475296011
-0.1979495222818514,-0.1979495222818514,1.0001984288109949,0.00010439957415085395
-0.1962287143120193,-0.1962287143120193,0.9999265254649149,0.00010447024855200246
-0.194727109719679,-0.194727109719679,1.0003229116612549,0.00010458610082876311
-0.19246995101275388,-0.19246995101275388,1.0000475631364751,0.00010412574574623181
-0.19042613735218766,-0.19042613735218766,0.9999757814087562,0.00010414518677078852
-0.1886299322359264,-0.1886299322359264,0.9999252839462918,0.00010413075038937728
-0.18726945032103687,-0.18726945032103687,1.0000276060204523,0.00010421137572710462
-0.18588116964092477,-0.18588116964092477,1.0000636940589087,0.00010436633630981054
-0.18455137028286117,-0.18455137028286117,0.9999542877314054,0.00010439716447184638
-0.1831588219065452,-0.1831588219065452,0.9999684275600149,0.00010413967071909302
-0.18180088669250835,-0.18180088669250835,0.9999943325023889,0.00010466861221226733
-0.18011972339882049,-0.18011972339882049,0.999958659855887,0.00010414150960544744
-0.17835303214596934,-0.17835303214596934,0.9999444896081849,0.00010409161672811698
-0.17693866282206727,-0.17693866282206727,1.0000369752897935,0.00010452649719409036
-0.17530793439946138,-0.17530793439946138,1.0002050211552294,0.00010424469198489926
-0.17409164070049882,-0.17409164070049882,0.9999967650682382,0.00010411146361911951
-0.1725876612974389,-0.1725876612974389,1.0000815162987984,0.00010432352767265176
-0.17115208286559208,-0.17115208286559208,1.0000118301666345,0.00010443290707667514
-0.17004768921615324,-0.17004768921615324,0.9999021953023621,0.00010413932118905628
-0.16851669300885988,-0.16851669300885988,1.0002163127251316,0.0001046345214094721
-0.16623995781046688,-0.16623995781046688,1.0000636858524448,0.00010414094438793682
-0.1648267537690117,-0.1648267537690117,1.0001569652736708,0.00010440349753590146
-0.16319540527765639,-0.16319540527765639,1.0001093399852359,0.00010412067398163443
-0.16183479284736677,-0.16183479284736677,0.9999248159853318,0.00010418497511978343
-0.16014349821707582,-0.16014349821707582,0.999754073669133,0.00010427686235504061
-0.1587706098165654,-0.1587706098165654,1.000093578597557,0.00010443000895603615
-0.15717443289468064,-0.15717443289468064,1.0000342360964567,0.00010440206128090978
-0.15539390080230078,-0.15539390080230078,1.000152409183393,0.00010481782239257507
-0.15330095381505088,-0.15330095381505088,1.0000015782801923,0.00010413861352920879
-0.1518343151808949,-0.1518343151808949,1.0001024956929097,0.00010434182761807915
-0.1501537208852824,-0.1501537208852824,1.0001806749315507,0.00010422032031868545
-0.1488294038688764,-0.1488294038688764,0.9998843512641704,0.00010409590597778198
-0.14737720889752381,-0.14737720889752381,1.000017224077131,0.00010430863838909925
-0.1460512720514089,-0.1460512720514089,1.000161665460955,0.00010442286477719538
-0.14444577127578667,-0.14444577127578667,1.000013937591787,0.00010438739057624636
-0.14298221998033114,-0.14298221998033114,0.9999924933505211,0.00010420551833601232
-0.14086507379615795,-0.14086507379615795,0.9998799375466856,0.00010460495406716731
-0.13884270876806112,-0.13884270876806112,1.000011668883071,0.00010413547652136693
-0.1368063888505276,-0.1368063888505276,1.0000180646751122,0.00010412280523801573
-0.13516778401608462,-0.13516778401608462,0.9999365667218159,0.00010428205247942983
-0.13398654757329495,-0.13398654757329495,1.0001491153647837,0.00010410508979828764
-0.1324654725540313,-0.1324654725540313,1.0000975394596647,0.00010436959101989172
-0.13103282563970425,-0.13103282563970425,0.9997688776880793,0.00010439209380161562
-0.12985505295946495,-0.12985505295946495,0.9999904828377263,0.0001045811776658305
-0.12776677995789215,-0.12776677995789215,1.0000089810146984,0.00010412256080439617
-0.12582853448911918,-0.12582853448911918,1.0000522935676783,0.00010414178940449043
-0.12440493547401274,-0.12440493547401274,1.0000364584013703,0.00010465054318977282
-0.12274313017405802,-0.12274313017405802,1.000273243490752,0.00010427205411633973
-0.1215131670156552,-0.1215131670156552,1.0000777995789059,0.00010408129041968165
-0.12000902325235074,-0.12000902325235074,1.0001088126062403,0.00010434170619189767
