time,time,flux,flux_err
-0.49997100117980153,-0.49997100117980153,1.0003568129233507,0.00015919687123718714
-0.4998975885122491,-0.4998975885122491,0.999873693396611,0.00015465503579342586
-0.4998265863134293,-0.4998265863134293,1.000146376837535,0.00016246991526647643
-0.49971340399424663,-0.49971340399424663,1.0000130709867263,0.00016277903809911302
-0.49961241718483507,-0.49961241718483507,0.999811068986246,0.00016149154719285552
-0.49948568443360275,-0.49948568443360275,1.000030271413316,0.00016323737865637556
-0.4993381026935822,-0.4993381026935822,0.9998249814649849,0.000162419033069191
-0.49923792316039906,-0.49923792316039906,0.9999729534688079,0.0001538699508307118
-0.49913540758789166,-0.49913540758789166,1.0000761772116846,0.0001593330054923444
-0.4989160474309756,-0.4989160474309756,0.9999364619293335,0.00016669129133767488
-0.4987711822090205,-0.4987711822090205,0.9998903321902219,0.0001592887315172
-0.49866584842675366,-0.49866584842675366,1.000179972438659,0.00016414459611634538
-0.4984605319375987,-0.4984605319375987,1.0001053924669214,0.00015714465794163722
-0.4983253947670164,-0.4983253947670164,1.000178540726381,0.00016445531466148788
-0.49818217124848163,-0.49818217124848163,1.0002450734428048,0.00016067144398481927
-0.49800692321077805,-0.49800692321077805,0.9998828941111745,0.00015761945942809389
-0.49789043370692526,-0.49789043370692526,1.0000218991296,0.0001568229098843714
-0.4978106395414216,-0.4978106395414216,1.0000011002075904,0.00015760662147701454
-0.4976798332878388,-0.4976798332878388,1.0003174263983818,0.0001627399836841501
-0.4974959725572262,-0.4974959725572262,1.0000668267884807,0.00016550418963066105
-0.4974013457947876,-0.4974013457947876,0.9998896858502538,0.0001614584023964008
-0.49729896437493154,-0.49729896437493154,0.9998236601379782,0.00016120868570290817
-0.49710925657855115,-0.49710925657855115,0.9996294949105368,0.00016002189941949477
-0.4970096082193777,-0.4970096082193777,1.0000174565062383,0.00015670461685610997
-0.4969190809126303,-0.4969190809126303,1.0000265310975214,0.00017312525749265905
-0.4968142923411506,-0.4968142923411506,0.9998628140136889,0.00016298599508945087
-0.49674987403996057,-0.49674987403996057,1.0004462854613976,0.00016341237359216533
-0.49658540802411155,-0.49658540802411155,1.0001014805098811,0.00016521024420211342
-0.4964253497455502,-0.4964253497455502,0.9999297130858551,0.00016295832930629937
-0.4963182415958727,-0.4963182415958727,0.9999507918243136,0.0001618545242541152
-0.49624826835206476,-0.49624826835206476,1.0001470107072852,0.00015561176138830765
-0.49614206510814257,-0.49614206510814257,1.0002996839715357,0.00016382814500403992
-0.49602637159696317,-0.49602637159696317,1.0000912891217955,0.00016473078688865493
-0.4959541537558835,-0.4959541537558835,1.0000472918483747,0.0001573482559803248
-0.49582063799971365,-0.49582063799971365,0.999989271355712,0.00016143096176457293
-0.4956838753831107,-0.4956838753831107,0.9999637605937293,0.00016260637336996167
-0.4956010444497224,-0.4956010444497224,0.9998588353236592,0.0001584825737971478
-0.4954977441157098,-0.4954977441157098,1.0001754843472281,0.00015768760867544354
-0.4954467696399661,-0.4954467696399661,0.9999600433828553,0.00015901403666745398
-0.4953263461939059,-0.4953263461939059,0.9999014671329357,0.00016424351694518843
-0.4952284027771384,-0.4952284027771384,0.9998477109041574,0.0001607624576729202
-0.495130803075881,-0.495130803075881,1.000049008173153,0.00016379545330985845
-0.49504478491144255,-0.49504478491144255,0.999966081964231,0.00015739263498749513
-0.49490368718688843,-0.49490368718688843,1.0000997698416363,0.000159496239201652
-0.4947996426060854,-0.4947996426060854,0.9999811507809472,0.00016043547559908958
-0.4946817224154074,-0.4946817224154074,1.000047052626264,0.00016324852492136837
-0.49458460663081494,-0.49458460663081494,1.0001033449238514,0.00016143421832416375
-0.49443979039642727,-0.49443979039642727,1.000088496226696,0.00016258711103848037
-0.4943192666418327,-0.4943192666418327,1.0001514014730755,0.00016255847065443124
-0.49418690943930416,-0.49418690943930416,0.9998351679576893,0.00016002185170631248
-0.4940056449464464,-0.4940056449464464,1.00023809662892,0.00016346710466919948
-0.49378208090784026,-0.49378208090784026,0.9998733797102796,0.0001632609181062849
-0.4936099264792574,-0.4936099264792574,0.9999929365229001,0.0001669842029747703
-0.49344629622937647,-0.49344629622937647,1.0000599874709628,0.00015564959573546083
-0.49332844224554717,-0.49332844224554717,1.0001432088394462,0.00015739969660046678
-0.4932573332327593,-0.4932573332327593,0.9999408144057365,0.00016569405662702157
-0.4931247033440741,-0.4931247033440741,0.9999722302927376,0.00016382823232467212
-0.49296571663362554,-0.49296571663362554,1.0000066982796867,0.00015510148652347428
-0.49283345593430566,-0.49283345593430566,1.0000885003349917,0.00015935686385764014
-0.4927479664096609,-0.4927479664096609,1.0002358914658978,0.0001638635962153639
-0.4925731197210553,-0.4925731197210553,1.000056685420852,0.00016202705399335118
-0.49238292077643564,-0.49238292077643564,1.0002370919752976,0.0001611037805063881
-0.4922690287021396,-0.4922690287021396,1.000055470470063,0.0001630284776656912
-0.4921385634937906,-0.4921385634937906,0.9998247518613266,0.0001615918320874745
-0.49202774723235054,-0.49202774723235054,1.0000682098974862,0.00015858259114791208
-0.49193266695874627,-0.49193266695874627,1.0001728263936034,0.00015889714275264268
-0.4918262986844638,-0.4918262986844638,1.0001802294179933,0.0001707273611051793
-0.4917016076098662,-0.4917016076098662,0.9998636919827557,0.00016765738276228312
-0.49149990588557557,-0.49149990588557557,1.0000473667450864,0.00016143243201814265
-0.49141542267389016,-0.49141542267389016,1.0001215368128,0.0001646665651426012
-0.4913172723368916,-0.4913172723368916,0.9998970853273004,0.00016663338062609376
-0.49124561660937616,-0.49124561660937616,1.0001356750462451,0.00016332831101942147
-0.49115533773219794,-0.49115533773219794,0.9997875840462364,0.00016190830159889383
-0.4910148145216226,-0.4910148145216226,1.0001058419437703,0.00015579486372527731
-0.49094157719882786,-0.49094157719882786,0.9999258153317949,0.00016796366244471058
-0.4907941158322501,-0.4907941158322501,1.0000398115106879,0.00015920386353937866
-0.49068613565395935,-0.49068613565395935,0.9999788519633951,0.00016036090307217123
-0.49058195366960716,-0.49058195366960716,1.0000339131865537,0.00015926211624973116
-0.4904765181847324,-0.4904765181847324,1.0000877772383276,0.0001591648856588753
-0.49040856892606827,-0.49040856892606827,1.0000677816371777,0.0001590541630206636
-0.49030536825448506,-0.49030536825448506,1.000123157024105,0.00016208115889441543
-0.49012788551845005,-0.49012788551845005,1.0001817216998778,0.0001601692524071741
-0.49000563725276153,-0.49000563725276153,0.9999279459203885,0.00016191375595148226
-0.4898571754303703,-0.4898571754303703,1.0001603957138014,0.00016089492430718916
-0.48974141814978794,-0.48974141814978794,1.0001797148156986,0.00015784712849064076
-0.48961484330866367,-0.48961484330866367,0.9999872063072403,0.00016084085667390256
-0.48952414060840965,-0.48952414060840965,1.0002155100246193,0.00016508022133982975
-0.4894053185264056,-0.4894053185264056,1.0000822564194105,0.00015735851802785682
-0.4892975430928345,-0.4892975430928345,1.0001072632664108,0.00016530954721156733
-0.48918368599988754,-0.48918368599988754,1.000343751945914,0.00016836973831855034
-0.4890788397111464,-0.4890788397111464,1.0000048517269124,0.00017934039336801175
-0.48893683440546737,-0.48893683440546737,1.0003923342738488,0.00016677577520593485
-0.488778961472417,-0.488778961472417,1.0002351300061847,0.0001634390529335394
-0.4886426795550506,-0.4886426795550506,1.0001424898843128,0.0001607272137316194
-0.4884198520965583,-0.4884198520965583,1.0001889095381895,0.00015709971036205171
-0.4882876929885242,-0.4882876929885242,0.9998699064903315,0.00015851490884930152
-0.48817948849246023,-0.48817948849246023,0.9999439396022745,0.00016327373304295118
-0.4881095586810261,-0.4881095586810261,0.999710917166504,0.00020736979053707178
-0.48794261939983696,-0.48794261939983696,0.9998983597516317,0.00016242014037770475
-0.4877750652303803,-0.4877750652303803,1.0001522020818328,0.0001565167245322478
-0.4876824583283451,-0.4876824583283451,1.0001169451946956,0.00016021279747120912
-0.48753758089369514,-0.48753758089369514,1.0000993305906756,0.0001673185511059751
-0.48734381657995984,-0.48734381657995984,1.0002334897898861,0.00015764544984400955
-0.4872336586144229,-0.4872336586144229,1.0001392577596766,0.00015809632255599655
-0.4870493547881779,-0.4870493547881779,1.0002737051495507,0.0001630889641278911
-0.4868826100580918,-0.4868826100580918,0.9999858847103005,0.00016130395658625884
-0.48680910149487316,-0.48680910149487316,1.0000261316537227,0.00016056560328418275
-0.48672885445339487,-0.48672885445339487,0.9997186834992172,0.00016365996271781858
-0.4865900755081384,-0.4865900755081384,0.9999077943646671,0.00016398685942222213
-0.4863782567634189,-0.4863782567634189,1.000168625088299,0.0001675702058982852
-0.48629288339070625,-0.48629288339070625,0.9997721452919119,0.00016334192887560974
-0.48620613309249167,-0.48620613309249167,1.0001247636996116,0.00016527258441147838
-0.4860835346778913,-0.4860835346778913,1.00012523082716,0.00015833649331023408
-0.48593610173047636,-0.48593610173047636,0.9999090552446935,0.000160197034861987
-0.48581381854237404,-0.48581381854237404,1.0000593502058763,0.0001605881261024593
-0.4857431053380424,-0.4857431053380424,0.999993847369099,0.00016154425509021573
-0.48565975683814033,-0.48565975683814033,1.0000384098583086,0.00015863933498386744
-0.4855222026417323,-0.4855222026417323,1.0001150986124183,0.00015424146048222446
-0.4854355609284539,-0.4854355609284539,0.999958562759911,0.00016125938602463212
-0.4853366728842957,-0.4853366728842957,1.0001491250115881,0.00015773301421637972
-0.48518027698082733,-0.48518027698082733,0.9997873032494565,0.00016259363734488248
-0.485068751568906,-0.485068751568906,1.0001300734517715,0.0001580125168405121
-0.48499433823744764,-0.48499433823744764,1.0000712225032118,0.00015931530499133738
-0.48490580811412654,-0.48490580811412654,1.0003624725491729,0.00015948024761163412
-0.4847899312291702,-0.4847899312291702,1.0000545126856355,0.00016254125308831708
-0.48463571852407766,-0.48463571852407766,0.9999340920727209,0.00016279863327842037
-0.4845659536149469,-0.4845659536149469,0.9999922754248644,0.0001589726990488702
-0.48449067932378964,-0.48449067932378964,1.0000283728186516,0.00016460427782291287
-0.4843838157350547,-0.4843838157350547,1.0001032783617476,0.00015861172999993525
-0.48429360977534086,-0.48429360977534086,1.000213933371754,0.00016351861506490526
-0.4842138047919434,-0.4842138047919434,1.0000095110389158,0.00016291804436086293
-0.4841025463632832,-0.4841025463632832,0.9999476190928089,0.00016194946043564005
-0.4839871154668799,-0.4839871154668799,1.0000572683925033,0.00016717862562560517
-0.48375148929480927,-0.48375148929480927,0.9998057085740252,0.00016641830233464153
-0.4836031172628282,-0.4836031172628282,0.9999905116285784,0.00015885797931932522
-0.48344171963908594,-0.48344171963908594,0.9999477089214434,0.0001602759597047262
-0.4833329952904023,-0.4833329952904023,0.9999692134218939,0.00015689754373690942
-0.483237906548311,-0.483237906548311,1.0000344900510572,0.0001617847710971195
-0.48312496481448763,-0.48312496481448763,1.000038680563806,0.00016337640187527835
-0.48298178779077716,-0.48298178779077716,1.0001132629958012,0.00016824841784531382
-0.48276738415734144,-0.48276738415734144,1.000074826595221,0.00015450364115244408
-0.4826544982242922,-0.4826544982242922,1.0001941258826132,0.0001642885309998916
-0.48251480562248616,-0.48251480562248616,0.9999529077097996,0.00016181019099378502
-0.4823764949986071,-0.4823764949986071,1.0003243014459455,0.00016209884623840165
-0.48217337675960154,-0.48217337675960154,0.9998537444405009,0.00015828104222516856
-0.4819711420881504,-0.4819711420881504,0.9998613931158035,0.00015891756287281453
-0.48188560797279933,-0.48188560797279933,1.0000401809777588,0.0001609580373542373
-0.4817744177009445,-0.4817744177009445,1.0000750442441384,0.00016656196180942954
-0.48167835156564254,-0.48167835156564254,1.0001177468051108,0.00016469458197987117
-0.4816094249683374,-0.4816094249683374,1.0000712956083952,0.00016641451343225926
-0.48151713065672086,-0.48151713065672086,0.9999594621421167,0.00015759934749690773
-0.48140661032593923,-0.48140661032593923,1.0000104691207614,0.00016563868866481884
-0.4812980515547679,-0.4812980515547679,1.0000939221788114,0.00016300957822064228
-0.4812043093923421,-0.4812043093923421,0.9997219730716264,0.00016834101680141268
-0.48110798892521417,-0.48110798892521417,0.9999793303248834,0.0001617244997943696
-0.4809840188630915,-0.4809840188630915,1.000034946421182,0.00015736236699549224
-0.48083962862510815,-0.48083962862510815,0.9998688467277006,0.00016238327444871716
-0.4807034341603867,-0.4807034341603867,0.9998466448137219,0.0001655217632218356
-0.480650690857874,-0.480650690857874,0.9999852983500652,0.00015618845315843518
-0.48049808859504994,-0.48049808859504994,1.00016907035673,0.00016621928493463757
-0.48027923177287446,-0.48027923177287446,0.9998073456526255,0.0001629667127406983
-0.4801649004803039,-0.4801649004803039,0.9997886595953961,0.0001591376189509247
-0.47997360047302207,-0.47997360047302207,0.9999953895376285,0.00016244700049101334
-0.47985922958614535,-0.47985922958614535,0.9999548932694017,0.00016200329216702704
-0.4797657229071774,-0.4797657229071774,0.9998601827682941,0.0001591029956276603
-0.4796450725123577,-0.4796450725123577,0.9998481357834024,0.00016474266697045698
-0.47953611816847114,-0.47953611816847114,1.0001162602347962,0.00016040848891154066
-0.47940806575643363,-0.47940806575643363,1.0003017365183644,0.00015753793609973144
-0.4793025810657127,-0.4793025810657127,0.9998992419155494,0.0001559956943588505
-0.479202737990272,-0.479202737990272,1.0001484664119036,0.00016044586547404302
-0.4790842802001862,-0.4790842802001862,1.0003808082752614,0.00016154000694154565
-0.47896683670405765,-0.47896683670405765,0.9999501886306428,0.00016350601167203262
-0.47885804632824147,-0.47885804632824147,1.0001995539651403,0.00015906055217647724
-0.4787025283694675,-0.4787025283694675,0.9998549932609224,0.00016270599996702826
-0.4785912236031436,-0.4785912236031436,0.9999499884852329,0.0001582757378756403
-0.4784684566773649,-0.4784684566773649,1.0001510595232745,0.0001583415574688601
-0.47830705394007966,-0.47830705394007966,1.000080674326475,0.00015917862117079836
-0.47817809124608174,-0.47817809124608174,1.0002504421494067,0.0001621870725855314
-0.4780621654477727,-0.4780621654477727,1.00008283603904,0.0001688805640282531
-0.4779532868116803,-0.4779532868116803,1.0003029166046806,0.00016412676650510056
-0.4777591277845204,-0.4777591277845204,0.9998381261113204,0.0001568366057710642
-0.4775810045248363,-0.4775810045248363,0.999991273115352,0.00016520673540724166
-0.4774133685947163,-0.4774133685947163,1.0000983880184808,0.0001623651445576255
-0.47720530719598175,-0.47720530719598175,0.9999484502738142,0.00015834005598805906
-0.4770818610995775,-0.4770818610995775,0.9999798644965591,0.00016090174116578242
-0.4768929531892354,-0.4768929531892354,1.0001064555956198,0.00016050684041511197
-0.4767931789428985,-0.4767931789428985,1.0002083058462552,0.00016376172751067739
-0.4766638147921185,-0.4766638147921185,1.000053348518059,0.00016229571590648922
-0.4765595571734593,-0.4765595571734593,0.9998311189846604,0.00016167071295261187
-0.47641165731765794,-0.47641165731765794,1.0000648306112656,0.00016201675781010047
-0.4762661145417951,-0.4762661145417951,0.9999819333789806,0.00015654803354687305
-0.476173921769805,-0.476173921769805,0.9999777695489698,0.0001696342957124681
-0.47609118974214654,-0.47609118974214654,1.0000385777904046,0.00016393166136176356
-0.47602353587499235,-0.47602353587499235,1.0000029509460486,0.00015917312601872394
-0.4758789634463028,-0.4758789634463028,1.000053230502271,0.00015848358673620013
-0.4756846143412986,-0.4756846143412986,0.9997778559829147,0.00016086676665768413
-0.4755998645661748,-0.4755998645661748,1.0000413285218024,0.00016287987160372382
-0.4755419135675766,-0.4755419135675766,0.9998016574007271,0.0001605208520871262
-0.47536167558137093,-0.47536167558137093,0.9999480205860536,0.00015896387388066648
-0.4752798031178827,-0.4752798031178827,0.9999912725980785,0.00016338413133569566
-0.4752001718050451,-0.4752001718050451,0.9999005055683428,0.000157369338106418
-0.4750646073538519,-0.4750646073538519,1.00025390953654,0.0001647890190180071
-0.47485801372895364,-0.47485801372895364,0.9999051065942275,0.0001623079805460342
-0.4747648290496727,-0.4747648290496727,0.9999222132026215,0.00015773705493536504
-0.47465353883380884,-0.47465353883380884,0.9999155475252952,0.00015845145629404716
-0.47451158284966366,-0.47451158284966366,0.9999485955495956,0.00016013404530974286
-0.47444195160715025,-0.47444195160715025,0.9997135240327573,0.00016088087196494905
-0.4743417802797921,-0.4743417802797921,1.0000120725887394,0.00016207492554053962
-0.4742910651330021,-0.4742910651330021,0.9999744346535134,0.00015664697528949994
-0.47418873635397174,-0.47418873635397174,1.0000995232568055,0.0001607280024620809
-0.47412848271706026,-0.47412848271706026,0.999986129033268,0.0001584735181085901
-0.47404232989938466,-0.47404232989938466,1.0001443518034463,0.00015925140348817452
-0.4739174282964086,-0.4739174282964086,1.0001730621091753,0.00016278671805621426
-0.4738016427494586,-0.4738016427494586,0.999973398246009,0.00016061892704067286
-0.47366231078558485,-0.47366231078558485,0.9998879693772625,0.00016110851526719255
-0.4734980326145887,-0.4734980326145887,0.9999827245959642,0.00015955110196157234
-0.47338496550073617,-0.47338496550073617,0.9998237743619407,0.00016062399969000936
-0.47321349950871083,-0.47321349950871083,0.9997956731613037,0.0001600082665545197
-0.47302170265174937,-0.47302170265174937,0.9997129027021797,0.0001619438175789086
-0.4729241848239326,-0.4729241848239326,0.9997881728052379,0.00016132148915226415
-0.47282747557692345,-0.47282747557692345,1.000218783466436,0.0001617425657557826
-0.4726538091163093,-0.4726538091163093,0.9998811646828768,0.0001600978477409399
-0.4725310302572325,-0.4725310302572325,1.000170553361229,0.00016444363607153053
-0.4723883820573974,-0.4723883820573974,0.9999355035031521,0.00016544294487944307
-0.47226752058413696,-0.47226752058413696,1.0002828813119415,0.00016260247518888417
-0.4720991605470772,-0.4720991605470772,0.9999312782235463,0.00015937206436813676
-0.4720164166719769,-0.4720164166719769,1.0000501060745663,0.0001621816162640476
-0.47184756841452324,-0.47184756841452324,1.000224900659934,0.00016203095890252197
-0.47166869838547426,-0.47166869838547426,1.0000719373072895,0.000162878075917423
-0.4715621560862928,-0.4715621560862928,1.0001514753732206,0.00016429075507681034
-0.47146547513621045,-0.47146547513621045,1.0000159102781456,0.00015942720513242766
-0.47128211115777957,-0.47128211115777957,1.0003050102939137,0.00016063740621221945
-0.4711919626352028,-0.4711919626352028,1.0001380094171055,0.00016093380756002597
-0.47107908294347,-0.47107908294347,0.9998333760067336,0.00016290302734039096
-0.47100382387943684,-0.47100382387943684,0.9997733017420094,0.00016597170430487497
-0.4709022282717342,-0.4709022282717342,0.9998529601926206,0.00015664918753747207
-0.4707376751684933,-0.4707376751684933,1.0003260235391163,0.0001597204592251003
-0.4705694230804511,-0.4705694230804511,1.0002767031759439,0.0001643682131502245
-0.470481824997114,-0.470481824997114,1.000038752212143,0.00016093636310449464
-0.4703767986720777,-0.4703767986720777,0.9998333434318287,0.0001592049746517913
-0.47029698582846324,-0.47029698582846324,0.9998373772252123,0.00016126071285477714
-0.4702181107524666,-0.4702181107524666,1.0001076667632816,0.0001629501740061466
