time,time,flux,flux_err
-0.49816016641713856,-0.49816016641713856,1.000011470638478,2.0869841207190026e-05
-0.4946223127697351,-0.4946223127697351,0.9999984513074734,2.0646936649847613e-05
-0.4910688988931341,-0.4910688988931341,0.9999737081812613,2.0751634364018653e-05
-0.48782673501270113,-0.48782673501270113,1.0000352418315746,2.0763335448392585e-05
-0.48451713576234,-0.48451713576234,0.9999246304956986,2.0719122319526452e-05
-0.48121272607702326,-0.48121272607702326,1.0000611346576296,2.066602221314243e-05
-0.4778875682759214,-0.4778875682759214,1.0000181457068371,2.0759316868242144e-05
-0.4745987246031561,-0.4745987246031561,0.9999363220729016,2.0694568670718132e-05
-0.47121650846375973,-0.47121650846375973,1.0000978933258138,2.0646833453696888e-05
-0.46785504431903463,-0.46785504431903463,0.9999033307279819,2.084259311579882e-05
-0.4645558309761846,-0.4645558309761846,1.000037706122591,2.0355059912675797e-05
-0.4611009963826412,-0.4611009963826412,1.0000136347060482,2.0763967350411577e-05
-0.45773953891683233,-0.45773953891683233,1.0000027073433446,2.0759901841602928e-05
-0.4543780803449792,-0.4543780803449792,1.000007404241127,2.0456124709655135e-05
-0.4508921265122076,-0.4508921265122076,1.000052619547908,2.065841040786901e-05
-0.44722461466199376,-0.44722461466199376,1.000016373320253,2.0617004643519607e-05
-0.4435778544309336,-0.4435778544309336,0.9999331395515171,2.073645779995621e-05
-0.44009190628077377,-0.44009190628077377,1.0000730985405535,2.058011934423834e-05
-0.43645033740431527,-0.43645033740431527,1.0000036407023445,2.0690882936369793e-05
-0.4327568960884996,-0.4327568960884996,0.9999875583945552,2.0721397906724968e-05
-0.42933838962649773,-0.42933838962649773,1.0000313441855138,2.0616798681471464e-05
-0.4258628232752663,-0.4258628232752663,1.0000469061323898,2.0494227269034315e-05
-0.4222731356166399,-0.4222731356166399,0.9999870442385825,2.090125473534529e-05
-0.4188857584238086,-0.4188857584238086,0.9999524362051275,2.0798374880305675e-05
-0.4155035701578534,-0.4155035701578534,1.0000871235620439,2.089174176758478e-05
-0.4121213833577372,-0.4121213833577372,0.9999981345824169,2.076761020063723e-05
-0.4085628264617398,-0.4085628264617398,0.9999255426640031,2.0761728912740516e-05
-0.40507689461598845,-0.40507689461598845,1.0000430792794655,2.0885650242580582e-05
-0.4016065263684091,-0.4016065263684091,0.9999930138965057,2.084885701712782e-05
-0.3980064748725461,-0.3980064748725461,0.9998765288057523,2.0584349407347397e-05
-0.3943078643758774,-0.3943078643758774,0.9998728794906407,2.0682595032282015e-05
-0.3907130032497392,-0.3907130032497392,1.000085431819143,2.0826956395761222e-05
-0.387180392119987,-0.387180392119987,0.9999540201598187,2.0752216492835202e-05
-0.3833728509963862,-0.3833728509963862,1.0000078192083544,2.064996544107058e-05
-0.3798194931080602,-0.3798194931080602,0.9999803908788072,2.0822942223424257e-05
-0.376286886174789,-0.376286886174789,1.0000560474301587,2.0894877856515426e-05
-0.37272315613584583,-0.37272315613584583,0.9996878064073357,2.0677655868325577e-05
-0.3690660544694794,-0.3690660544694794,1.0000934740414962,2.0968226469289543e-05
-0.3656320113586801,-0.3656320113586801,0.999894881063739,2.088623377516942e-05
-0.3621875945007069,-0.3621875945007069,0.9999891310253197,2.0899158144282315e-05
-0.3587328040061756,-0.3587328040061756,1.0000045569019016,2.0968669559161885e-05
-0.35520020397357044,-0.35520020397357044,0.9999846829279717,2.0779501132758895e-05
-0.3517609776656663,-0.3517609776656663,1.0001336966552685,2.070139307699114e-05
-0.3482750660406239,-0.3482750660406239,0.9998661181027373,2.093653507916371e-05
-0.34450903752972123,-0.34450903752972123,1.0002965389697451,2.1002151600683636e-05
-0.3408778816310466,-0.3408778816310466,0.9997310150896996,2.095103248817801e-05
-0.3370340448439883,-0.3370340448439883,1.0001902249649033,2.061576365317863e-05
-0.33329395636109493,-0.33329395636109493,1.0000611023691282,2.0948512793547442e-05
-0.32970430225634006,-0.32970430225634006,0.999859280150381,2.08723521845066e-05
-0.3261820846884319,-0.3261820846884319,1.000013701877985,2.0905815476870635e-05
-0.3224938723385037,-0.3224938723385037,1.0001710249061522,2.0792653034340382e-05
-0.3188471598817948,-0.3188471598817948,1.0002108755190602,2.1052245734585242e-05
-0.31542869163934456,-0.31542869163934456,1.000020308368807,2.0951135559177778e-05
-0.31192203919612355,-0.31192203919612355,1.0000879838956707,2.0943216678920235e-05
-0.3080937712639269,-0.3080937712639269,0.9999979133345578,2.1080877693501108e-05
-0.3046701177178477,-0.3046701177178477,1.0001206944877385,2.097427125341849e-05
-0.301220527885512,-0.301220527885512,1.000157830677327,2.0936345784519017e-05
-0.2976360674493733,-0.2976360674493733,0.9999292509326081,2.1100551240151064e-05
-0.2942279774067799,-0.2942279774067799,1.0001114927176729,2.100951141737964e-05
-0.2907368902894497,-0.2907368902894497,0.9998276020623813,2.1120234038708407e-05
-0.2873028644270583,-0.2873028644270583,1.0001450254335378,2.1066491016042615e-05
-0.2838377147839459,-0.2838377147839459,0.9998746872568741,2.124643370266608e-05
-0.28051781135663845,-0.28051781135663845,0.9999861874851261,2.11791222820874e-05
-0.27719790818270906,-0.27719790818270906,1.000154196090397,2.105388168747985e-05
-0.2737171975248131,-0.2737171975248131,0.9998424622370672,2.115218398901417e-05
-0.27029873522121334,-0.27029873522121334,1.0001067266288093,2.11954611469369e-05
-0.26690102261026283,-0.26690102261026283,0.9999445058274393,2.1353579775479596e-05
-0.2635966824262745,-0.2635966824262745,1.000141444262485,2.1374056772670463e-05
-0.2600277876277858,-0.2600277876277858,0.9999294829831287,2.135742584449318e-05
-0.24303925310567465,-0.24303925310567465,1.000278104172875,2.1398569102198676e-05
-0.2195509857161973,-0.2195509857161973,1.000064513194317,2.149517626789411e-05
-0.21605471301483375,-0.21605471301483375,0.9997774768158315,2.1500117626051962e-05
-0.2125947515366498,-0.2125947515366498,1.0002987881628198,2.1510428324048883e-05
-0.20869386502788528,-0.20869386502788528,1.0000140441260819,2.156374666103609e-05
-0.20508346958536663,-0.20508346958536663,1.0000929557960838,2.158481323768065e-05
-0.20145232430399104,-0.20145232430399104,0.9999730099180603,2.1552501460484824e-05
-0.1978782394272834,-0.1978782394272834,1.0000544516029606,2.155914867721022e-05
-0.19423153102706864,-0.19423153102706864,1.0000242780558277,2.157266250632158e-05
-0.1907456301913662,-0.1907456301913662,1.0002662765075265,2.157341701044691e-05
-0.18717154369837558,-0.18717154369837558,1.0000848143534766,2.1570723008861784e-05
-0.18370120378815785,-0.18370120378815785,1.0000155794635721,2.1579456540733818e-05
-0.18022567584589666,-0.18022567584589666,0.9999844971395232,2.1646110288373346e-05
-0.17669308631736058,-0.17669308631736058,1.0000090075140355,2.1624564471147634e-05
-0.17315530882372485,-0.17315530882372485,1.000003184956579,2.1620090838651122e-05
-0.1696123433009511,-0.1696123433009511,1.0000118975490437,2.1626769097444618e-05
-0.16608493896427987,-0.16608493896427987,0.9999486861530993,2.1673772650821867e-05
-0.1624071004656571,-0.1624071004656571,1.0000453911659806,2.166446488581871e-05
-0.15887450713173196,-0.15887450713173196,0.9999958510007744,2.1668848620613186e-05
-0.15546640973409326,-0.15546640973409326,0.9999906510630285,2.168751010837607e-05
-0.1520375620323186,-0.1520375620323186,0.9999974044470934,2.1706625398811306e-05
-0.14854127763089195,-0.14854127763089195,1.000124089473229,2.168782159734233e-05
-0.14513317757710312,-0.14513317757710312,1.000020916110082,2.1753068677912146e-05
-0.1416835776351583,-0.1416835776351583,1.0000044447677656,2.173430679039741e-05
-0.13820803986177382,-0.13820803986177382,1.00002105615391,2.1743092205056522e-05
-0.13461837893775339,-0.13461837893775339,1.0000048081861093,2.1788373808642903e-05
-0.1311376516081147,-0.1311376516081147,0.9999796897206326,2.1787711778079842e-05
-0.1276776727921572,-0.1276776727921572,1.0000137497146386,2.1754511602164633e-05
-0.12415544425739214,-0.12415544425739214,1.000033918266159,2.181150296601157e-05
-0.12044646890304378,-0.12044646890304378,0.9999977313497563,2.18282022518179e-05
-0.1169864865752686,-0.1169864865752686,0.9999856590367591,2.1835553943791658e-05
-0.11347462918735332,-0.11347462918735332,1.0000158406189874,2.1834493955336653e-05
-0.10982789846800926,-0.10982789846800926,1.0000209753768192,2.1831683579017845e-05
-0.10623822762768072,-0.10623822762768072,0.999954824489155,2.1884684423958818e-05
-0.1026226184306509,-0.1026226184306509,1.0000829451733444,2.187053389777122e-05
-0.09883582391338379,-0.09883582391338379,1.00019961876093,2.1891339019387596e-05
-0.09533433439380516,-0.09533433439380516,1.00002534519686,2.1934591703960026e-05
-0.09180171907210877,-0.09180171907210877,0.9998656268196964,2.1918943404479874e-05
-0.08816535415234697,-0.08816535415234697,0.9997609717350837,2.1920387853602496e-05
-0.08425405574043907,-0.08425405574043907,1.0001221783431304,2.1951545825993785e-05
-0.08056062610849964,-0.08056062610849964,1.0000132022819248,2.2000295179822953e-05
-0.0768308829048415,-0.0768308829048415,0.9999024624203381,2.19970757841827e-05
-0.07284695505351166,-0.07284695505351166,0.9998609075216894,2.202052030022508e-05
-0.0693610163622715,-0.0693610163622715,1.0000663878635425,2.2029340139202318e-05
-0.06581801460125761,-0.06581801460125761,0.996203211209092,2.1526194108870413e-05
-0.06156433503922045,-0.06156433503922045,0.9987016583050268,2.074944452180174e-05
0.24192594252754063,0.24192594252754063,0.9997859630045118,2.2376689879396875e-05
0.4453894798655291,0.4453894798655291,1.0003001953016146,2.1115061789698558e-05
0.44944093701430815,0.44944093701430815,1.0000708916975998,2.104569907079508e-05
0.4531655770678384,0.4531655770678384,1.0000518504909575,2.0974872821866373e-05
0.45670865109177683,0.45670865109177683,1.0001048277049622,2.099168216545772e-05
0.4604488481453558,0.4604488481453558,0.9999396448448266,2.0967135306620357e-05
0.4641060421340903,0.4641060421340903,1.0004338442962664,2.092826956742069e-05
0.46780992099144997,0.46780992099144997,0.9999266094515079,2.0959031721287767e-05
0.4712907347170926,0.4712907347170926,1.00004737313417,2.0976859931421437e-05
0.47488048342773154,0.47488048342773154,1.00004865334507,2.0970873498990046e-05
0.47840279230184707,0.47840279230184707,0.999988393678801,2.092852188163238e-05
0.48178503652061194,0.48178503652061194,1.0000337629726914,2.085146357164957e-05
0.4851050287159289,0.4851050287159289,1.0000359928361986,2.0908569873160716e-05
0.48844058134649515,0.48844058134649515,1.0000278510292566,2.0938623397670547e-05
0.4917968818364635,0.4917968818364635,0.9999905489855362,2.09759729753282e-05
0.4951791177382937,0.4951791177382937,0.9999189352367391,2.0939989202585056e-05
0.4984368518925663,0.4984368518925663,0.9999956293815654,2.098357703084099e-05
