time,time,flux,flux_err
-0.4989135273681313,-0.4989135273681313,1.0000021691841288,3.95787809060487e-05
-0.4974841048606322,-0.4974841048606322,1.0000695662824017,3.957508589362878e-05
-0.4962239021770074,-0.4962239021770074,0.9999041407407981,3.956160623670451e-05
-0.4941942774283234,-0.4941942774283234,0.9999841877037442,3.958445634928954e-05
-0.49252308188952154,-0.49252308188952154,0.9999566318126366,3.958379150895992e-05
-0.49051293415686814,-0.49051293415686814,1.0000080481953995,3.95756048793332e-05
-0.4889463467057794,-0.4889463467057794,0.9999734228699875,3.954828599027591e-05
-0.48688700975471877,-0.48688700975471877,0.9999922577088428,3.9572230994685924e-05
-0.4850834936827596,-0.4850834936827596,0.9999615116960457,3.957077216769538e-05
-0.48351084776732023,-0.48351084776732023,0.9999542369739378,3.95613083317131e-05
-0.48184996459021934,-0.48184996459021934,0.9999993869575914,3.956886529102122e-05
-0.48022870205604706,-0.48022870205604706,0.9999927629722087,3.9576144604224864e-05
-0.47811412447699697,-0.47811412447699697,0.9999545291388096,3.95802866381943e-05
-0.4766949708544416,-0.4766949708544416,1.0000307441227032,3.9546916163754945e-05
-0.47470575367988205,-0.47470575367988205,0.9999067970135276,3.957095724498029e-05
-0.47306927355821243,-0.47306927355821243,0.9999387288869901,3.958184641330839e-05
-0.47079368396953214,-0.47079368396953214,0.9999411159950258,3.9559507893287653e-05
-0.4694391786913911,-0.4694391786913911,0.9999175178191855,3.957991631749212e-05
-0.4683473241631873,-0.4683473241631873,0.9999778734727176,3.9555522208493065e-05
-0.46671901115551007,-0.46671901115551007,1.000013109788122,3.9586362570897666e-05
-0.4653809234907385,-0.4653809234907385,0.9999772870734281,3.9583604224177504e-05
-0.4636593024006288,-0.4636593024006288,0.99992372204105,3.964373370685654e-05
-0.4619497349471203,-0.4619497349471203,0.9999723665564775,3.9576137246222134e-05
-0.4604522269786685,-0.4604522269786685,0.9999447477338815,3.955482112523531e-05
-0.4584863710726495,-0.4584863710726495,0.9999846310685123,3.9573906915557405e-05
-0.456951575842686,-0.456951575842686,0.9999620185213678,3.957057758933902e-05
-0.45559877182677155,-0.45559877182677155,1.0000280788878573,3.95700885004914e-05
-0.4538583905021369,-0.4538583905021369,0.9999525598280652,3.958458358126747e-05
-0.4524590567307314,-0.4524590567307314,1.0000527482980026,3.955209272486559e-05
-0.4504098025376152,-0.4504098025376152,1.0000786803608182,3.96096679812552e-05
-0.44903242598156795,-0.44903242598156795,0.9999465717735081,3.9614954524777894e-05
-0.4474581821574247,-0.4474581821574247,1.0000665983034467,3.95487702264907e-05
-0.4455840765789617,-0.4455840765789617,1.0000451468341067,3.9581160155676806e-05
-0.44409733783249977,-0.44409733783249977,0.999909282737903,3.956744637890927e-05
-0.4422281853694585,-0.4422281853694585,1.0000154996255355,3.956440915178496e-05
-0.4405232556971896,-0.4405232556971896,0.9999818285044967,3.958261325310472e-05
-0.43927558105788195,-0.43927558105788195,0.9998940109908426,3.9575222442299755e-05
-0.43772203229527806,-0.43772203229527806,0.9999859246317545,3.95820189600892e-05
-0.436195250187302,-0.436195250187302,0.9999526506728289,3.9574866049704964e-05
-0.4344472595636034,-0.4344472595636034,0.9999431981816574,3.954550352729363e-05
-0.4326701203914126,-0.4326701203914126,0.9999528203818159,3.958212220843499e-05
-0.4312692478670215,-0.4312692478670215,1.0000093081178767,3.95502356062055e-05
-0.4294665850233287,-0.4294665850233287,1.000019966567713,3.958543248766767e-05
-0.4279632197103638,-0.4279632197103638,0.9999978992699491,3.958706442902693e-05
-0.425673813688627,-0.425673813688627,0.9999424983324088,3.956266277580388e-05
-0.4239364277011191,-0.4239364277011191,0.9999701711388962,3.9576232525700465e-05
-0.422046283914824,-0.422046283914824,0.9999726504403762,3.95392668532872e-05
-0.42009051480927156,-0.42009051480927156,1.0000071981659155,3.957340693485261e-05
-0.4186714254581602,-0.4186714254581602,1.0000197133172737,3.955828713836498e-05
-0.41680785540593207,-0.41680785540593207,1.0000819633602902,3.958326846761899e-05
-0.415428828747099,-0.415428828747099,0.9999899198783495,3.956584175116134e-05
-0.41329978837020465,-0.41329978837020465,0.9999460784019478,3.958157214253787e-05
-0.4119817412050907,-0.4119817412050907,1.000034166690186,3.958335264191564e-05
-0.4102870202550548,-0.4102870202550548,1.0000083411262883,3.9532830965010594e-05
-0.4086271007443429,-0.4086271007443429,1.0000736818704843,3.9576378978533256e-05
-0.4068516440456733,-0.4068516440456733,1.0000318350905193,3.9558410584160024e-05
-0.40479748012076017,-0.40479748012076017,0.9999965904711143,3.9583287729517536e-05
-0.4035724831155676,-0.4035724831155676,1.000079473776978,3.95674714595652e-05
-0.4022305331316602,-0.4022305331316602,1.000030305426177,3.9574166080021525e-05
-0.40055685214247205,-0.40055685214247205,0.9999482228713822,3.958329641050479e-05
-0.39904658537416254,-0.39904658537416254,1.000005898266925,3.9547240805562827e-05
-0.3969339362192841,-0.3969339362192841,1.000049971999017,3.963622402351846e-05
-0.39546304981195135,-0.39546304981195135,0.9999561769116087,3.9577619644756056e-05
-0.3936208989485749,-0.3936208989485749,1.0000167864625966,3.954931743803437e-05
-0.3919180743556353,-0.3919180743556353,0.9999506518916087,3.95821963731424e-05
-0.39046268980091553,-0.39046268980091553,1.0000009799902614,3.9549765188770735e-05
-0.3884321841294877,-0.3884321841294877,0.9999838011846054,3.958733294972664e-05
-0.3867994197054941,-0.3867994197054941,0.9999842333670108,3.954071074174007e-05
-0.38491574477156976,-0.38491574477156976,0.9999792497942451,3.9610810572582215e-05
-0.38345542270253646,-0.38345542270253646,1.000050013633988,3.957297086348693e-05
-0.3818387668557989,-0.3818387668557989,1.000058595919343,3.954899424586348e-05
-0.3799038100987673,-0.3799038100987673,0.9999891661081973,3.9582229833036806e-05
-0.3785516989613825,-0.3785516989613825,0.9999712730927344,3.955757840560891e-05
-0.3764582372205041,-0.3764582372205041,0.9999372279121266,3.958305869267873e-05
-0.37490868844397485,-0.37490868844397485,1.000010729437546,3.958590500537436e-05
-0.3728627029202471,-0.3728627029202471,0.9999772920197619,3.9573733265145985e-05
-0.37119354426613427,-0.37119354426613427,0.9999881938100984,3.9575898657846915e-05
-0.3694615324624465,-0.3694615324624465,0.9999844303813819,3.954407435991185e-05
-0.3673343351285439,-0.3673343351285439,0.9999225832022113,3.958047220674887e-05
-0.3659598679303599,-0.3659598679303599,0.9999864969946433,3.954880558472796e-05
-0.3639260886629927,-0.3639260886629927,0.9999712146143608,3.958211382196354e-05
-0.3619438492802146,-0.3619438492802146,0.9999970246641361,3.956633142795419e-05
-0.35974651535070734,-0.35974651535070734,1.000002609955013,3.958324626748006e-05
-0.35832725823493095,-0.35832725823493095,0.999953985947022,3.954521490903037e-05
-0.35633841886592565,-0.35633841886592565,1.0000107287366156,3.957133156231154e-05
-0.35498305159053417,-0.35498305159053417,0.9999909742041254,3.958049809929233e-05
-0.3529012964077992,-0.3529012964077992,1.0000186821664006,3.955972918026196e-05
-0.35128824137573245,-0.35128824137573245,1.0001075161093513,3.958644013929697e-05
-0.35017089005705204,-0.35017089005705204,0.9999855466955795,3.957130101398761e-05
-0.34873963409336284,-0.34873963409336284,1.0000178240795352,3.956848115686873e-05
-0.34728756118929593,-0.34728756118929593,1.0000430602312336,3.958187879879106e-05
-0.34557031862204896,-0.34557031862204896,1.0000755248329818,3.964312694990025e-05
-0.34358215662068686,-0.34358215662068686,0.9999941446403227,3.9577073161778574e-05
-0.3420848140674934,-0.3420848140674934,0.9999890520712977,3.955522869963952e-05
-0.34011885243380674,-0.34011885243380674,0.999963279017129,3.95745417314746e-05
-0.3385833153966814,-0.3385833153966814,0.9999751510750171,3.9570403688397125e-05
-0.3372311493702,-0.3372311493702,0.999985022205785,3.9568793879995635e-05
-0.3354907991626533,-0.3354907991626533,0.9999289807658016,3.9583861185780894e-05
-0.33409125902253434,-0.33409125902253434,1.0000193823517716,3.955053167218853e-05
-0.3320425891572086,-0.3320425891572086,0.9999354872571526,3.960530301218545e-05
-0.33066399997551343,-0.33066399997551343,0.9999887167712688,3.962755205109505e-05
-0.3293418804096291,-0.3293418804096291,0.9998925467169476,3.95549486235382e-05
-0.3274868790002074,-0.3274868790002074,1.000043614286805,3.957819767359427e-05
-0.32599451467831386,-0.32599451467831386,0.9999762785041254,3.956884147487959e-05
-0.3243266749668692,-0.3243266749668692,0.9999286835858978,3.95650239012081e-05
-0.32249424754991196,-0.32249424754991196,0.9999230272434284,3.958239869383482e-05
-0.32126267806015674,-0.32126267806015674,0.999882471692648,4.033016734174921e-05
-0.3197793688312231,-0.3197793688312231,0.9999071907982602,3.959762000928189e-05
-0.3181402502392302,-0.3181402502392302,1.000014126226954,3.9576545388295135e-05
-0.3165347513197048,-0.3165347513197048,1.0000535763103426,3.95467199121435e-05
-0.3145941915689036,-0.3145941915689036,0.9999175274384854,3.958044848438886e-05
-0.31324203090625813,-0.31324203090625813,1.0000241782711452,3.955191335190986e-05
-0.3111467053626257,-0.3111467053626257,0.9999995740970868,3.958053712532325e-05
-0.30959504371858204,-0.30959504371858204,0.9999920945974363,3.958526895489655e-05
-0.3075319700226828,-0.3075319700226828,1.0000208691561778,3.9666834641363547e-05
-0.30621871138282586,-0.30621871138282586,1.0000113120648295,3.9576551726921496e-05
-0.3046140796344844,-0.3046140796344844,0.999957235202458,3.9542649788120454e-05
-0.3023430655855918,-0.3023430655855918,0.9999655413086217,3.9577356795863434e-05
-0.3009672447311459,-0.3009672447311459,0.9999986541132406,3.955521349825744e-05
-0.29892867480375573,-0.29892867480375573,1.0000318298816575,3.9578923561450874e-05
-0.2977536604703346,-0.2977536604703346,1.0000363603501548,3.95651792317791e-05
-0.29642220857349455,-0.29642220857349455,0.9999952799489998,3.9572582244003906e-05
-0.29468108115615904,-0.29468108115615904,1.0000327869041918,3.958490341810616e-05
-0.2932867638162861,-0.2932867638162861,1.000062432724249,3.9552348721782425e-05
-0.2914904196317366,-0.2914904196317366,0.9999861513508567,3.955647552779689e-05
-0.2900054409939912,-0.2900054409939912,1.0000203809354076,3.957812556029504e-05
-0.28805886036134326,-0.28805886036134326,1.0000232842828651,3.9556727109291896e-05
-0.2861910179053666,-0.2861910179053666,1.000014750095563,3.9584603452118305e-05
-0.2849371914533549,-0.2849371914533549,0.9999300372759844,3.956510865109382e-05
-0.28343202096657477,-0.28343202096657477,0.9999834350100254,3.9568362711002066e-05
-0.28197415124668623,-0.28197415124668623,1.0000426889228673,3.958317962558263e-05
-0.2802643927694589,-0.2802643927694589,0.9999210985982293,3.960141646335242e-05
-0.2782740282120358,-0.2782740282120358,0.9999514470361417,3.9575377869630646e-05
-0.2767781729235139,-0.2767781729235139,0.9999519608231541,3.955512576073473e-05
-0.274811257559486,-0.274811257559486,0.9999971107360157,3.957369534153189e-05
-0.273269044431072,-0.273269044431072,0.9999781148148303,3.956819323859615e-05
-0.2717354751344828,-0.2717354751344828,1.0000413452010128,3.9565316620137496e-05
-0.2697158711896918,-0.2697158711896918,0.9999975514562814,3.958319467123549e-05
-0.26802014273271196,-0.26802014273271196,1.0001032803386483,3.9577006547261184e-05
-0.2662959761946695,-0.2662959761946695,0.999983751650406,3.958070830541371e-05
-0.2647725507056748,-0.2647725507056748,0.999972020775532,3.957115519832506e-05
-0.26301576191326603,-0.26301576191326603,0.9999578980912206,3.95447195193315e-05
-0.2612468405466643,-0.2612468405466643,1.0000168285434428,3.958507028969294e-05
-0.25984330558931107,-0.25984330558931107,1.000022819968368,3.9550480472587646e-05
-0.2578110532667779,-0.2578110532667779,0.9999655219840703,3.958442676856513e-05
-0.2561966831788595,-0.2561966831788595,1.0000516812848061,3.957687235104245e-05
-0.25406650261138564,-0.25406650261138564,1.0000165527754625,3.958425549752303e-05
-0.2525135323368886,-0.2525135323368886,0.9999695482286137,3.957578074976678e-05
-0.2506134304443549,-0.2506134304443549,1.0000035033934207,3.95432665416407e-05
-0.24867094446453847,-0.24867094446453847,1.0000007923493204,3.957410675578906e-05
-0.24724313124170294,-0.24724313124170294,1.0000081286352709,3.956010585709069e-05
-0.24538122576414026,-0.24538122576414026,0.9999402253799877,3.9583954087159683e-05
-0.2435761696775444,-0.2435761696775444,0.9999818415372917,3.9567071973728676e-05
-0.24137890766360215,-0.24137890766360215,1.0000111222756942,3.9580792287385144e-05
-0.23995954720157897,-0.23995954720157897,0.9999948187556568,3.954761652570653e-05
-0.2379088706242328,-0.2379088706242328,0.9999401016207212,3.9568295745098304e-05
-0.2362912067801517,-0.2362912067801517,1.0000241721470347,3.958126041291639e-05
-0.23405878591074725,-0.23405878591074725,0.9999379407816302,3.955805218600795e-05
-0.2328344707006181,-0.2328344707006181,0.999980528751603,3.9581802055097304e-05
-0.23180260406006709,-0.23180260406006709,0.9999689361942743,3.957157405493022e-05
-0.23037211482223938,-0.23037211482223938,1.000116624040167,3.9570115998960345e-05
-0.22891939726032434,-0.22891939726032434,0.9999692902730066,3.957846439420575e-05
-0.22720298904678202,-0.22720298904678202,0.9999975787556205,3.963870731279887e-05
-0.22521458020273713,-0.22521458020273713,0.9999701559753594,3.957770435323186e-05
-0.2237174030575261,-0.2237174030575261,1.0000846444195608,3.955684577663681e-05
-0.2217513344323379,-0.2217513344323379,1.000057025265153,3.957561200326473e-05
-0.22021505543089007,-0.22021505543089007,1.0000025574800422,3.957082315286552e-05
-0.21886352834189893,-0.21886352834189893,0.9999596625269108,3.956700848852043e-05
-0.2170072233515384,-0.2170072233515384,1.000001193021236,3.9588470183000906e-05
-0.21537172045573244,-0.21537172045573244,0.9999566597422745,3.9540524170192505e-05
-0.21325736878279714,-0.21325736878279714,1.0000548925293624,3.96173970914483e-05
-0.21171813484397717,-0.21171813484397717,1.0000676231707177,3.957196986613169e-05
-0.2099513047694927,-0.2099513047694927,0.9999939301215062,3.9547736040101216e-05
-0.20823765502282185,-0.20823765502282185,0.9999636148942773,3.958032445503473e-05
-0.20678518689019257,-0.20678518689019257,1.0000725734723372,3.955312365695739e-05
-0.2047537065380311,-0.2047537065380311,1.0000179358455834,3.958531126908162e-05
-0.20313971441573814,-0.20313971441573814,0.9999911479646793,3.957385000426886e-05
-0.20141163985827007,-0.20141163985827007,1.0000525324444525,3.960093769453486e-05
-0.19977190661447822,-0.19977190661447822,1.000000619302877,3.957534972696542e-05
-0.19816764715942553,-0.19816764715942553,0.9999675643274231,3.9544597145292916e-05
-0.19622646450079628,-0.19622646450079628,1.0000400504052347,3.958121823836051e-05
-0.19487429780347157,-0.19487429780347157,1.0000097960215004,3.9554105913343364e-05
-0.192778765897674,-0.192778765897674,0.999988506060227,3.958144371007166e-05
-0.1912268693144142,-0.1912268693144142,0.9999724634490216,3.958568379538495e-05
-0.18899640486997668,-0.18899640486997668,1.0000716739871975,3.956663504237642e-05
-0.18751031232532114,-0.18751031232532114,0.9999869180318228,3.9578668529217844e-05
-0.18579312584115543,-0.18579312584115543,0.9999562532067614,3.953909555492113e-05
-0.1836529533371504,-0.1836529533371504,0.9999931629644608,3.9582488556255064e-05
-0.18228294157379424,-0.18228294157379424,0.9999532721193187,3.955023412487918e-05
-0.1803122387318581,-0.1803122387318581,1.0000678592313383,3.958420533676157e-05
-0.17924897934717593,-0.17924897934717593,0.9999025926736497,4.0333596754660134e-05
-0.1780545472232916,-0.1780545472232916,0.9999922256205416,3.9571307033090566e-05
-0.1763134496555722,-0.1763134496555722,0.9999799090866535,3.9581732222373296e-05
-0.17491892134130466,-0.17491892134130466,0.9999764120286315,3.955214437209193e-05
-0.17312271669652546,-0.17312271669652546,1.0000016474384934,3.956009961102294e-05
-0.17163748247912736,-0.17163748247912736,0.9999610673136521,3.9576391072258996e-05
-0.16969151174052968,-0.16969151174052968,0.9999816271201386,3.9553583860159377e-05
-0.16782343259910704,-0.16782343259910704,0.9999599682910153,3.958384406601848e-05
-0.16656884592521237,-0.16656884592521237,1.0000712997522891,3.956976046010549e-05
-0.16506451645400375,-0.16506451645400375,0.9999840761045311,3.956869582924549e-05
-0.16360600366824657,-0.16360600366824657,0.999984759476342,3.958270066727266e-05
-0.1618970735129551,-0.1618970735129551,1.0000009971984913,3.9600105397196416e-05
-0.15990646687423576,-0.15990646687423576,1.0000303297575333,3.9577079338861236e-05
-0.1584107760412735,-0.1584107760412735,0.9999956018068987,3.955884972766832e-05
-0.15644375606570976,-0.15644375606570976,0.999954829636516,3.957235291901257e-05
-0.15490080066010706,-0.15490080066010706,1.000067088617201,3.957090506713253e-05
-0.15336802460078616,-0.15336802460078616,0.999974161009917,3.95629656792547e-05
-0.15134775282276677,-0.15134775282276677,0.9999985138832361,3.958298438977286e-05
-0.14965284649370006,-0.14965284649370006,0.9999883208381833,3.957179875529008e-05
-0.147928264841903,-0.147928264841903,0.9999705223492208,3.958151110325304e-05
-0.14640435979526956,-0.14640435979526956,0.9999467034202529,3.9572578072104e-05
-0.1446488274501462,-0.1446488274501462,1.0000575172817183,3.9547591627657e-05
-0.14287873313223826,-0.14287873313223826,0.9999449038242705,3.9582608497954e-05
-0.14147557772666913,-0.14147557772666913,1.00008134746976,3.955474064935027e-05
-0.13944322920942795,-0.13944322920942795,1.0000385634703615,3.9588107851627756e-05
-0.13782881117949727,-0.13782881117949727,0.9999128259457557,3.9572789965686066e-05
-0.13569888618803816,-0.13569888618803816,1.000007957042911,3.958165460581532e-05
-0.13414536967757157,-0.13414536967757157,1.0000903576660547,3.957668276340257e-05
-0.1322466896446713,-0.1322466896446713,1.0000112489674453,3.9544268731628394e-05
-0.13030230653021135,-0.13030230653021135,0.9999589420313487,3.957443874690903e-05
-0.12887573928164783,-0.12887573928164783,1.0000493712479481,3.956038726196821e-05
-0.1270135968035902,-0.1270135968035902,1.0000204044249026,3.958504031871292e-05
-0.12520849134380113,-0.12520849134380113,1.0000808446836367,3.9568408318801044e-05
-0.12301130203341018,-0.12301130203341018,0.9999399145864665,3.958132140676889e-05
-0.12159183807161753,-0.12159183807161753,0.9999969380361957,3.9547541291603885e-05
-0.11954161693211063,-0.11954161693211063,0.9999865566382994,3.956764743752216e-05
-0.11792334795318311,-0.11792334795318311,0.9999730316973672,3.9577065486792906e-05
-0.11569133855009568,-0.11569133855009568,0.9999881390867745,3.955657981029196e-05
-0.11433514535819995,-0.11433514535819995,1.000090311074081,3.958539578894639e-05
-0.1132436768959451,-0.1132436768959451,1.0000455728582724,3.955798024288231e-05
-0.11161488162324532,-0.11161488162324532,1.0000288631281422,3.958483171891644e-05
-0.11027626804279862,-0.11027626804279862,1.000030778286019,3.9583305286420564e-05
-0.10845920536739868,-0.10845920536739868,1.0000787706546272,3.962839891011602e-05
-0.10658521992590977,-0.10658521992590977,0.9999644350835221,3.9573625835308526e-05
-0.10498517251762678,-0.10498517251762678,1.0000029329552111,3.955555538457863e-05
-0.10300147649031714,-0.10300147649031714,1.0000651800959601,3.9581965914496024e-05
-0.10152011907484848,-0.10152011907484848,1.0000740018849255,3.957133459519795e-05
-0.10018599129907671,-0.10018599129907671,1.0000343676705996,3.956904364124048e-05
-0.09829274961157353,-0.09829274961157353,0.9999902305030869,3.958176680558359e-05
-0.09659125783582567,-0.09659125783582567,1.000030941344196,3.958266197374921e-05
-0.09487000057779368,-0.09487000057779368,1.0000396966099494,3.95795406632631e-05
-0.09334993155134726,-0.09334993155134726,0.9999712977009505,3.9570326479245543e-05
-0.09158435506760725,-0.09158435506760725,0.9999216671196851,3.954438860888903e-05
