time,time,flux,flux_err
-0.4994017818486706,-0.4994017818486706,1.00003515986034,7.859896461394643e-05
-0.49769826345558005,-0.49769826345558005,0.999988914786324,7.859643488214938e-05
-0.4960508293377643,-0.4960508293377643,0.9999557906602735,7.17487762870101e-05
-0.4947434368041286,-0.4947434368041286,1.000048032193534,7.174392436430113e-05
-0.4935186129230715,-0.4935186129230715,0.999982593029577,7.177006721429611e-05
-0.492591590750817,-0.492591590750817,1.0000343894259145,7.173593312108294e-05
-0.4911947900887753,-0.4911947900887753,1.0000322787608702,7.175616496294311e-05
-0.4900845434443909,-0.4900845434443909,0.9999368832280616,7.177299800290469e-05
-0.48867116041947156,-0.48867116041947156,1.0000392445706408,7.175253575290595e-05
-0.4872874502645573,-0.4872874502645573,0.9999891320436867,7.17671130740317e-05
-0.4857998197701818,-0.4857998197701818,1.0001274194403522,7.17591784143829e-05
-0.4843073055279092,-0.4843073055279092,0.9998343426805045,7.17610147753607e-05
-0.4829525065215421,-0.4829525065215421,0.9998979696435132,7.176098205167382e-05
-0.4815748527245887,-0.4815748527245887,0.9998596068570833,7.177176577498963e-05
-0.48037341926610677,-0.48037341926610677,1.0000009361181577,7.175282203393608e-05
-0.4790124067461875,-0.4790124067461875,1.000163598820385,7.17601697715223e-05
-0.47789089135549145,-0.47789089135549145,1.000074569066822,7.345969922387245e-05
-0.47693764909054154,-0.47693764909054154,0.9999466406386277,7.174465198096018e-05
-0.47560966635428487,-0.47560966635428487,0.9999863118594803,7.175981503138693e-05
-0.47446594711072976,-0.47446594711072976,1.0000184200015032,7.176983823023163e-05
-0.4730588043443277,-0.4730588043443277,0.9999326921315971,7.177329083542653e-05
-0.4713579370858497,-0.4713579370858497,1.0000511391928895,7.180255573875025e-05
-0.4695466773649969,-0.4695466773649969,1.0000001644568324,7.19578692686626e-05
-0.46762600419388034,-0.46762600419388034,1.000095906207879,7.204385375004527e-05
-0.4647001012235705,-0.4647001012235705,1.000071385271754,7.174221311143053e-05
-0.46070512638179933,-0.46070512638179933,0.9999828363415121,7.173893673764897e-05
-0.4584941694018198,-0.4584941694018198,1.0000330875217462,7.175471961137222e-05
-0.4564789719530381,-0.4564789719530381,0.9999540940315716,7.173646453819264e-05
-0.4548820104842889,-0.4548820104842889,0.9999726954167402,7.174517895275066e-05
-0.4534875755321991,-0.4534875755321991,1.0000475556074477,7.175236191239217e-05
-0.45237400420664925,-0.45237400420664925,0.9999482070438177,7.174648342494336e-05
-0.45103675501813995,-0.45103675501813995,1.0001346292900681,7.17542246475829e-05
-0.4496411563886795,-0.4496411563886795,1.0001112523176001,7.174402683312624e-05
-0.44830466956918824,-0.44830466956918824,0.9999060951685281,7.174389234724423e-05
-0.44733321888415956,-0.44733321888415956,1.0000066698031236,7.176375268625775e-05
-0.4460278938619012,-0.4460278938619012,1.000117288502004,7.174454164248566e-05
-0.44508081051535553,-0.44508081051535553,1.0000351115926709,7.176748156630275e-05
-0.4441565397391969,-0.4441565397391969,0.9999894909007082,7.173248490491461e-05
-0.44275875005623677,-0.44275875005623677,0.9999845812502036,7.176089018908933e-05
-0.441656285681529,-0.441656285681529,1.000069228747804,7.177492362322075e-05
-0.4402401670799009,-0.4402401670799009,1.0000078193823012,7.175967365054305e-05
-0.43885245157580355,-0.43885245157580355,1.0000266690498343,7.177041873505878e-05
-0.4373696766066132,-0.4373696766066132,1.0000567743547295,7.176231284547765e-05
-0.43588033949126836,-0.43588033949126836,1.000015170408015,7.17692660231886e-05
-0.43452435136132406,-0.43452435136132406,0.9999067243862856,7.177126909276973e-05
-0.43342330015439073,-0.43342330015439073,0.999977642329268,7.174907268095543e-05
-0.432142561161163,-0.432142561161163,1.0000868937252068,7.176049963651253e-05
-0.43080070344367416,-0.43080070344367416,1.0000786210799049,7.176587873019859e-05
-0.42973586020307264,-0.42973586020307264,0.9999187168952703,7.176902089971249e-05
-0.42850101794174406,-0.42850101794174406,0.9999681164132829,7.175083674193142e-05
-0.4271645644075761,-0.4271645644075761,0.9999543208741652,7.177813649219178e-05
-0.42564089258521565,-0.42564089258521565,1.0001354810791638,7.177984481590131e-05
-0.4239399150646932,-0.4239399150646932,0.9999051662028716,7.178189187602178e-05
-0.42212633146191364,-0.42212633146191364,1.0001312701800233,7.1848448031028e-05
-0.42043108440047944,-0.42043108440047944,1.000109068433448,7.207405417780985e-05
-0.4183037734968821,-0.4183037734968821,1.0000704236167894,7.210579964582512e-05
-0.41425388437637595,-0.41425388437637595,0.9999828852885404,7.173373948407577e-05
-0.41176644632432724,-0.41176644632432724,1.0000178373371778,7.175014146957754e-05
-0.40968292650504734,-0.40968292650504734,0.9999326906817056,7.174282137149745e-05
-0.4078548704710556,-0.4078548704710556,0.999954548204918,7.174942677947043e-05
-0.4064764186659886,-0.4064764186659886,0.9999279091325466,7.174060428787464e-05
-0.40533875207474923,-0.40533875207474923,0.9998993241844397,7.173218368939322e-05
-0.4041921504685888,-0.4041921504685888,0.999957859317596,7.175942204372683e-05
-0.4026034602567961,-0.4026034602567961,1.00011624118655,7.175016992948049e-05
-0.40121050659145113,-0.40121050659145113,1.0001002331001885,7.174292810517514e-05
-0.3998685841048427,-0.3998685841048427,0.9999717312539241,7.174529015911212e-05
-0.3986787776382698,-0.3986787776382698,1.0000216354487457,7.176384418884563e-05
-0.3975143000810931,-0.3975143000810931,0.9999646619897978,7.173930406323599e-05
-0.39635001959104554,-0.39635001959104554,1.0000713718142429,7.176888682135335e-05
-0.3952199914463563,-0.3952199914463563,1.0000866937078485,7.175534353765073e-05
-0.393845087804948,-0.393845087804948,0.9999561598547638,7.176488805942298e-05
-0.3923467383501702,-0.3923467383501702,1.0000712748202816,7.175667890817686e-05
-0.39084794522132144,-0.39084794522132144,1.000059157052637,7.176319540907205e-05
-0.38949442376106164,-0.38949442376106164,1.0001009708867887,7.1772957217207e-05
-0.3881235964632651,-0.3881235964632651,1.0000692719332225,7.176770860357375e-05
-0.3866994132295076,-0.3866994132295076,0.9999564226696582,7.176064838259614e-05
-0.38542354965466075,-0.38542354965466075,1.0000246552205307,7.176091359546454e-05
-0.38407164755190026,-0.38407164755190026,0.9999126942976948,7.176436153716326e-05
-0.383009085572121,-0.383009085572121,1.0000555736113632,7.177511764144656e-05
-0.381781321651215,-0.381781321651215,0.9999941050633051,7.174499769185675e-05
-0.3804525525440113,-0.3804525525440113,1.0000265620202409,7.175735372089892e-05
-0.37930858291947517,-0.37930858291947517,1.0001419397251756,7.177627169484452e-05
-0.3779017219305388,-0.3779017219305388,1.0000371142921023,7.177862590771126e-05
-0.3762008189369226,-0.3762008189369226,1.000051647126639,7.179738393078254e-05
-0.37438932287259374,-0.37438932287259374,1.000222988777408,7.195451933551765e-05
-0.37269410592780333,-0.37269410592780333,0.9999990314255014,7.223130654047677e-05
-0.3704186883092916,-0.3704186883092916,1.0000950037661727,7.174015064942776e-05
-0.3660252990674053,-0.3660252990674053,1.0000403516057665,7.174519780914687e-05
-0.36381956213808736,-0.36381956213808736,1.0000233182378548,7.174540186841527e-05
-0.36166121908827337,-0.36166121908827337,0.9999742437871433,7.173723446607559e-05
-0.3600332763984625,-0.3600332763984625,0.9998824347228525,7.174726863628473e-05
-0.3586066364659928,-0.3586066364659928,0.9998934177947895,7.17320133519327e-05
-0.3574609914641769,-0.3574609914641769,0.999991429115612,7.175221260130702e-05
-0.35628571595007086,-0.35628571595007086,0.9999509108410111,7.173768046927708e-05
-0.355116993507545,-0.355116993507545,1.00013176616636,7.174902812144267e-05
-0.3537619190152327,-0.3537619190152327,1.0000777892110537,7.173963270914973e-05
-0.35246136078349083,-0.35246136078349083,1.0000880055812353,7.175057948920288e-05
-0.3511536622259882,-0.3511536622259882,0.9999625142766868,7.174443081885238e-05
-0.35022718166583217,-0.35022718166583217,0.9999719909840641,7.175275239479392e-05
-0.34907765336174634,-0.34907765336174634,1.0001912052881756,7.174520999934572e-05
-0.3479185114541906,-0.3479185114541906,0.9999726882174688,7.176517563899421e-05
-0.3467885950987693,-0.3467885950987693,0.9998853123370429,7.175440557448268e-05
-0.34540968891378726,-0.34540968891378726,0.9999867554032236,7.176475782354075e-05
-0.343916218465165,-0.343916218465165,1.0000867952813202,7.175757748499442e-05
-0.34241990611844814,-0.34241990611844814,0.9999985027798267,7.176738516097833e-05
-0.34106653564667794,-0.34106653564667794,1.000008124504354,7.176472875865989e-05
-0.33969223916574265,-0.33969223916574265,1.0000725951051586,7.177093522620862e-05
-0.3384984994067054,-0.3384984994067054,1.0000999342934684,7.175791385127342e-05
-0.337128043831035,-0.337128043831035,0.9999233780864225,7.175412238053717e-05
-0.3359708261443302,-0.3359708261443302,0.9998726564982949,7.175737853288002e-05
-0.33484207515211895,-0.33484207515211895,1.0000700417165127,7.174884074911729e-05
-0.3335516138700768,-0.3335516138700768,1.0000623168051486,7.176421659385391e-05
-0.33225063740028415,-0.33225063740028415,1.00001971368782,7.178586238318327e-05
-0.33083043985971017,-0.33083043985971017,0.9999844926590182,7.17744263261385e-05
-0.32912928035875666,-0.32912928035875666,1.0000282971011107,7.178607330544218e-05
-0.3273153141642979,-0.3273153141642979,1.0001117748700719,7.184210576097442e-05
-0.3256198909919476,-0.3256198909919476,0.999999045912657,7.205963933787139e-05
-0.32365893748137753,-0.32365893748137753,0.9999923573612834,7.209653556035733e-05
-0.3205035928665893,-0.3205035928665893,0.9999501144477211,7.173568232830421e-05
-0.31747062797876424,-0.31747062797876424,1.0000304614234063,7.174399189237824e-05
-0.3153851566101366,-0.3153851566101366,1.0000757713813788,7.17476528114884e-05
-0.3132351849038969,-0.3132351849038969,0.9999295337507338,7.174219401702951e-05
-0.3116033060287009,-0.3116033060287009,1.0000120226771299,7.174666103189616e-05
-0.3104818641251768,-0.3104818641251768,1.0000557768819356,7.174048184890423e-05
-0.30915693930946875,-0.30915693930946875,0.9999314208583974,7.174859693846883e-05
-0.30775816330424277,-0.30775816330424277,0.9999842765580643,7.174448558604492e-05
-0.3063560728376615,-0.3063560728376615,0.9999278106249543,7.174497585768899e-05
-0.30502491562438083,-0.30502491562438083,1.0001376617523674,7.175390289591532e-05
-0.30382570488509375,-0.30382570488509375,1.0000321870184679,7.17645646831247e-05
-0.30243207948296913,-0.30243207948296913,1.0000244108419678,7.174042114882134e-05
-0.30148695631723965,-0.30148695631723965,0.9999539256161404,7.176808674463756e-05
-0.30039572609312015,-0.30039572609312015,0.9999639494901309,7.17560233619236e-05
-0.2988944848992105,-0.2988944848992105,1.0000827065960172,7.175586897542626e-05
-0.29739603199850534,-0.29739603199850534,1.0000089225186164,7.176629460465671e-05
-0.29603067390344223,-0.29603067390344223,1.0000055173352405,7.176433169534823e-05
-0.2946732256008545,-0.2946732256008545,1.0000910544673984,7.176850684066477e-05
-0.2932449300751614,-0.2932449300751614,1.0000619363267842,7.175867012040624e-05
-0.2918367577527533,-0.2918367577527533,1.0000454884463394,7.177927171169289e-05
-0.29040093152798363,-0.29040093152798363,1.0000612508479545,7.175807779330417e-05
-0.2892409841406334,-0.2892409841406334,0.9999830365828061,7.176586502795449e-05
-0.2881196660040587,-0.2881196660040587,1.0001467476113393,7.175581027753981e-05
-0.28683182901368126,-0.28683182901368126,0.9998910252492845,7.175618616773635e-05
-0.2855182428211265,-0.2855182428211265,1.0001148994007536,7.177900989145033e-05
-0.2844455526974343,-0.2844455526974343,0.9999018464985167,7.175887161582085e-05
-0.2830413209521794,-0.2830413209521794,1.0000784603573076,7.175782305297558e-05
-0.2813836053785053,-0.2813836053785053,0.9998811108490798,7.178562322604186e-05
-0.27957172876340336,-0.27957172876340336,1.0000069508753637,7.186529462722022e-05
-0.27787635102286,-0.27787635102286,1.000005960739435,7.205375483467473e-05
-0.27590806138978224,-0.27590806138978224,1.0000781465089987,7.200029869795617e-05
-0.2716502132927417,-0.2716502132927417,1.0000591670894627,7.174492605656587e-05
-0.2690426621993538,-0.2690426621993538,1.0000322278160003,7.174133845154243e-05
-0.26695094275928566,-0.26695094275928566,1.0000919557163348,7.174260635825756e-05
-0.2648762830598571,-0.2648762830598571,1.0000197338877317,7.175097902878176e-05
-0.26344918217437224,-0.26344918217437224,1.0000684140239862,7.174198143113909e-05
-0.2623036234435858,-0.2623036234435858,1.0000934762960365,7.176217675699941e-05
-0.26091194091495706,-0.26091194091495706,0.9999063887531765,7.174491224214427e-05
-0.25962650469737125,-0.25962650469737125,0.9999701150701885,7.174207426203999e-05
-0.2583025419538899,-0.2583025419538899,0.9999959724705544,7.175115976601777e-05
-0.25720472913380943,-0.25720472913380943,1.0000807656447521,7.174100075119643e-05
-0.25570059754463725,-0.25570059754463725,1.0000097000938992,7.174775498822077e-05
-0.25446809056156783,-0.25446809056156783,1.0000884136898185,7.17691636286227e-05
-0.25365223940316356,-0.25365223940316356,1.0000375069288727,7.17449848241889e-05
-0.2522475274199678,-0.2522475274199678,0.9999834286969456,7.174437974414234e-05
-0.25100280923215906,-0.25100280923215906,1.000115669083185,7.176755562600173e-05
-0.2496431009582011,-0.2496431009582011,1.0000460987507078,7.177207216438528e-05
-0.2482217820106598,-0.2482217820106598,1.0000488461843862,7.175121596442535e-05
-0.2468264503935643,-0.2468264503935643,1.0000587334856035,7.177017385400014e-05
-0.24535287422695545,-0.24535287422695545,0.9998884793550076,7.175712678425367e-05
-0.24388582290557678,-0.24388582290557678,0.9999666196619031,7.176196368213524e-05
-0.24283007254707628,-0.24283007254707628,1.0000580688746397,7.17716875197767e-05
-0.24162350944243371,-0.24162350944243371,1.0000166806422346,7.1747427855537e-05
-0.24033953193429625,-0.24033953193429625,1.0000526489215713,7.17429308051843e-05
-0.23942188500514022,-0.23942188500514022,1.0000564527748552,7.177506005574844e-05
-0.23818833064651698,-0.23818833064651698,0.9999753614046807,7.174853287906287e-05
-0.2368501481694693,-0.2368501481694693,1.0000115740842803,7.177677010314923e-05
-0.23540099704259773,-0.23540099704259773,1.000142137960594,7.1780672449442e-05
-0.2339721752287005,-0.2339721752287005,1.0001125560992623,7.178790525513136e-05
-0.23244246463218587,-0.23244246463218587,1.0000327382896266,7.183177225192573e-05
-0.23080557788489386,-0.23080557788489386,0.9999448017893032,7.204437515641574e-05
-0.22888042795020738,-0.22888042795020738,0.9999244876886948,7.209615573949732e-05
-0.22618316351727116,-0.22618316351727116,1.0000809438746558,7.174288135768112e-05
-0.22276172285346546,-0.22276172285346546,1.000032395131052,7.174711508726065e-05
-0.22061487738319557,-0.22061487738319557,1.0000146688438476,7.174513766322188e-05
-0.21851692058771732,-0.21851692058771732,1.0000241452858671,7.173975122996005e-05
-0.21684257841625368,-0.21684257841625368,0.9999904841742111,7.19035367531179e-05
-0.21571127441056887,-0.21571127441056887,1.000016208904395,7.17456754819128e-05
-0.21445430874446175,-0.21445430874446175,1.0000687818672997,7.174064625547683e-05
-0.213230498386838,-0.213230498386838,1.0000545425483331,7.175572850087346e-05
-0.21184055655248812,-0.21184055655248812,0.9999880601049365,7.175428835682607e-05
-0.21047647007217166,-0.21047647007217166,1.000115976853126,7.174819158234589e-05
-0.20898293111167732,-0.20898293111167732,0.9999648327505606,7.174111300229107e-05
-0.20774323961231858,-0.20774323961231858,0.9999486575935206,7.17656737782064e-05
-0.20693587414134526,-0.20693587414134526,1.0000214442841961,7.174900274965689e-05
-0.2055285350594204,-0.2055285350594204,1.0000355415234705,7.1744628741909e-05
-0.20427553970730514,-0.20427553970730514,0.9999788911107876,7.176211285408484e-05
-0.20291381127462954,-0.20291381127462954,0.9999970288167912,7.177445025955109e-05
-0.20149550355417886,-0.20149550355417886,1.0000192603436884,7.175626858633722e-05
-0.20010458207980264,-0.20010458207980264,1.0001021504812049,7.176922264709043e-05
-0.19862568484095391,-0.19862568484095391,1.0000798020342885,7.176037102755036e-05
-0.19713889825798106,-0.19713889825798106,1.0000495936604783,7.176777171313444e-05
-0.195781958882435,-0.195781958882435,1.0001151799011265,7.177818151068259e-05
-0.19467550416375162,-0.19467550416375162,0.9999657439920421,7.174832950980206e-05
-0.19339288104747537,-0.19339288104747537,0.9999804530435951,7.175496137561051e-05
-0.19205834107779082,-0.19205834107779082,1.0000401027527215,7.176312980419438e-05
-0.19099183372891276,-0.19099183372891276,0.9999954791064101,7.177631570062422e-05
-0.18975183834045312,-0.18975183834045312,1.000023090112109,7.175238189689728e-05
-0.18842230362351983,-0.18842230362351983,0.9999173862966355,7.176914532486448e-05
-0.18689757361426018,-0.18689757361426018,1.000004723858626,7.177970822513267e-05
-0.18519688578162458,-0.18519688578162458,1.0001164860630136,7.179469508766329e-05
-0.18338520441975562,-0.18338520441975562,1.000000082559352,7.193215427438525e-05
-0.18169021360736223,-0.18169021360736223,0.9999737134208215,7.220048872816707e-05
-0.1782745104144851,-0.1782745104144851,1.0000235630254806,7.173943861502028e-05
-0.17472488205239642,-0.17472488205239642,1.0001422709117136,7.17588128833575e-05
-0.17263766316100373,-0.17263766316100373,1.0001401750592585,7.174148358060745e-05
-0.17048988507376633,-0.17048988507376633,1.0001474765707612,7.175087713133039e-05
-0.16889378608684638,-0.16889378608684638,1.0000353242181428,7.174984607388754e-05
-0.16746250190844875,-0.16746250190844875,0.9999087428249608,7.173939671821921e-05
-0.16631445515158702,-0.16631445515158702,1.0000466323531847,7.174619317947012e-05
-0.16510896927065916,-0.16510896927065916,1.0000458267259285,7.175463367286053e-05
-0.1637484205610235,-0.1637484205610235,1.0001722890152696,7.174196561196081e-05
-0.16226548928316334,-0.16226548928316334,1.0000584064738907,7.174304646180154e-05
-0.1611210571260017,-0.1611210571260017,0.9999521134286754,7.174875240868907e-05
-0.15993069119795109,-0.15993069119795109,1.0000179773756688,7.175599872008015e-05
-0.15876496887212851,-0.15876496887212851,0.9999405936699777,7.174116696113635e-05
-0.1576047973590903,-0.1576047973590903,0.999978269737476,7.176435473711909e-05
-0.15647485981753562,-0.15647485981753562,1.000068320872349,7.175789688162776e-05
-0.15509675480570878,-0.15509675480570878,1.0000880331741695,7.176621177621079e-05
-0.15360230911901454,-0.15360230911901454,1.0000062075707434,7.175649250028648e-05
-0.15210536482045428,-0.15210536482045428,1.0000103627081622,7.176981627708793e-05
-0.15075223324456602,-0.15075223324456602,1.0000968784017161,7.176214450907973e-05
-0.149378497251746,-0.149378497251746,1.000011470227059,7.177213402646379e-05
-0.14818603748062742,-0.14818603748062742,1.0000728138885766,7.17572488225239e-05
-0.14681400610352285,-0.14681400610352285,0.9999091132141391,7.175430647544256e-05
-0.1456562932682573,-0.1456562932682573,1.0000344107474508,7.177008007989891e-05
-0.1445288939779857,-0.1445288939779857,0.9999686523842236,7.174744013464717e-05
-0.1432389097280975,-0.1432389097280975,1.0000520886847057,7.176371089221818e-05
-0.14193564076485926,-0.14193564076485926,0.9998951394097988,7.178261137420022e-05
-0.1408569580562471,-0.1408569580562471,1.0000652369814607,7.176916333696907e-05
-0.13945641185564456,-0.13945641185564456,1.000016318672295,7.175371937289383e-05
-0.13768368336677667,-0.13768368336677667,1.0000680620261724,7.180815340907001e-05
-0.13598791205877206,-0.13598791205877206,1.000136223281785,7.192851833155623e-05
-0.13416990703335613,-0.13416990703335613,1.0000952198965514,7.223510705173632e-05
-0.13213485618834966,-0.13213485618834966,0.9999999712015548,7.17470815489137e-05
-0.12878168689712766,-0.12878168689712766,1.0001207484838732,7.174188640259152e-05
