time,time,flux,flux_err
-0.49792743829918135,-0.49792743829918135,0.9999989967257489,5.407162502595675e-05
-0.4960021420714232,-0.4960021420714232,1.0001167841041205,5.418759255074625e-05
-0.4943260401444907,-0.4943260401444907,0.9999992022493384,5.406703157037195e-05
-0.49255692576698495,-0.49255692576698495,0.9999415500165701,4.9367186336200556e-05
-0.49100275006640004,-0.49100275006640004,0.9999593267336442,4.936286006080667e-05
-0.4893846332881367,-0.4893846332881367,1.000103143938495,4.937044268954202e-05
-0.48781678655868743,-0.48781678655868743,0.9999090074489276,4.936245798823609e-05
-0.48621650985223824,-0.48621650985223824,0.9999737343509537,4.9360601842820075e-05
-0.48463524763064925,-0.48463524763064925,1.0000826137072525,4.936824339442718e-05
-0.4833423949596181,-0.4833423949596181,0.9999755414155602,4.93438869493397e-05
-0.48227149941085373,-0.48227149941085373,1.0000007736500627,4.935636683338933e-05
-0.48121814926635126,-0.48121814926635126,0.9999431153864068,4.934713302505815e-05
-0.4801442870833853,-0.4801442870833853,1.0000438325511671,4.934941203110514e-05
-0.47908643505434156,-0.47908643505434156,0.9999365042825852,4.934800954115205e-05
-0.4780078133524512,-0.4780078133524512,1.0000330725243423,4.934511012746582e-05
-0.47695036879886177,-0.47695036879886177,1.0000218208107823,4.934683485640567e-05
-0.47559216415756966,-0.47559216415756966,1.0000938745031402,4.935147806441818e-05
-0.4739379357743019,-0.4739379357743019,0.9999559752132342,4.935159836971752e-05
-0.4723755788771086,-0.4723755788771086,1.0000952659471554,4.935752713042915e-05
-0.47086864739540035,-0.47086864739540035,1.0000763079516877,4.9342040961130785e-05
-0.4700916714966297,-0.4700916714966297,0.9999880077923786,4.9342308310600414e-05
-0.46921370357376874,-0.46921370357376874,1.0000089562730368,4.9329450179506366e-05
-0.46843581991197425,-0.46843581991197425,0.9999476358754169,4.934440170306752e-05
-0.46765829809664866,-0.46765829809664866,0.9999741405405478,4.937022750577943e-05
-0.46688030090081156,-0.46688030090081156,1.0000960156219656,4.9382067320577406e-05
-0.4658842904580524,-0.4658842904580524,1.0000644987199254,4.933819299763958e-05
-0.4648540247915662,-0.4648540247915662,0.9999945031543339,4.934780334253548e-05
-0.4637790021755791,-0.4637790021755791,0.999970822334506,4.933499966643083e-05
-0.46267640894802753,-0.46267640894802753,1.0000163439392797,4.9341748113474124e-05
-0.46165752698361756,-0.46165752698361756,0.9999792675611555,4.935102558875275e-05
-0.4605462487976183,-0.4605462487976183,1.0000369516133296,4.934494492302001e-05
-0.45948271021043186,-0.45948271021043186,1.0000477801180125,4.935222586670428e-05
-0.4584552657972381,-0.4584552657972381,0.9999857258710714,4.93437929496886e-05
-0.4576666386143188,-0.4576666386143188,1.0001058943137027,4.9287768274545366e-05
-0.4567866209239583,-0.4567866209239583,0.999976452661236,4.931794478881844e-05
-0.45600907660555096,-0.45600907660555096,0.9999704531258535,4.931872717844337e-05
-0.4552178629528498,-0.4552178629528498,1.0000544439978247,4.931958492648121e-05
-0.4544139275611087,-0.4544139275611087,0.9999911688318901,4.928755233387404e-05
-0.4535750687973632,-0.4535750687973632,1.0000249939516952,4.9319765606026215e-05
-0.4525644540088251,-0.4525644540088251,1.000099640450439,4.928940179290372e-05
-0.4514905309275491,-0.4514905309275491,0.999972472699518,4.931845278164457e-05
-0.45043577207106866,-0.45043577207106866,1.0000464206312134,4.929081205892093e-05
-0.449318834519363,-0.449318834519363,1.000070923074094,4.930930126066469e-05
-0.4482703568202851,-0.4482703568202851,1.0002407890055633,4.9291995140722945e-05
-0.44721994471692594,-0.44721994471692594,1.0001080176601775,4.930364429528058e-05
-0.44611403109374803,-0.44611403109374803,0.9999821174728802,4.932711707723469e-05
-0.44522637463887804,-0.44522637463887804,1.0002043683346398,4.928819885272685e-05
-0.44419329664306134,-0.44419329664306134,1.000076333418991,4.934682521831367e-05
-0.4431212829287688,-0.4431212829287688,1.0001756968459496,4.938549231469914e-05
-0.442048389698175,-0.442048389698175,1.000030804764484,4.938348651021778e-05
-0.44122036908811424,-0.44122036908811424,1.0000852432987646,4.950378266327884e-05
-0.4403260485283681,-0.4403260485283681,0.9999564530695537,4.931517060943315e-05
-0.43882529794645964,-0.43882529794645964,1.0000025307326292,4.930113676006086e-05
-0.4371835098929296,-0.4371835098929296,1.0000691583259056,4.932440568641251e-05
-0.4355660134518985,-0.4355660134518985,0.9999974386090227,4.931083180489744e-05
-0.43395208064248436,-0.43395208064248436,0.9999513351717546,4.9327142495645346e-05
-0.43231025140339624,-0.43231025140339624,0.9999554994893417,4.9315477061618384e-05
-0.4307241917158535,-0.4307241917158535,1.0000458421956206,4.9330564055246694e-05
-0.42905802848472374,-0.42905802848472374,0.9999436283743025,4.931639470192817e-05
-0.42775296639156296,-0.42775296639156296,0.9999391614614493,4.9350724630264044e-05
-0.4265616737473465,-0.4265616737473465,0.9999590406877381,4.9359375896254945e-05
-0.42507744097238176,-0.42507744097238176,0.9999955291211771,4.936066761005494e-05
-0.42347007685966676,-0.42347007685966676,0.9998921992183594,4.936641765507174e-05
-0.42189317267984733,-0.42189317267984733,0.9999122788050195,4.9365501807596885e-05
-0.42027784962629083,-0.42027784962629083,1.0000357463838796,4.937167922770782e-05
-0.4187119678776071,-0.4187119678776071,1.0000052477397319,4.9364965619385684e-05
-0.41739263032504825,-0.41739263032504825,1.0000398233937886,5.058389573760513e-05
-0.41632497409445934,-0.41632497409445934,0.9999423593655561,4.952780226493736e-05
-0.4152945787413046,-0.4152945787413046,0.9999923928810773,4.941033754485257e-05
-0.41390265949012245,-0.41390265949012245,1.0000063508496086,4.936277397118436e-05
-0.4122449491325824,-0.4122449491325824,1.0001407275325742,4.936311964283211e-05
-0.40950988181502906,-0.40950988181502906,0.9999799630256974,4.935226535917032e-05
-0.40770722405432025,-0.40770722405432025,1.0000799127422384,4.935266686825686e-05
-0.40613332865468693,-0.40613332865468693,0.9999778051640156,4.933962350548648e-05
-0.4044187827683345,-0.4044187827683345,1.0000545730659458,4.934980052396327e-05
-0.4016647951451887,-0.4016647951451887,1.0000708148951314,4.9351119332044255e-05
-0.3970621728672995,-0.3970621728672995,0.999934919721482,5.085115613455897e-05
-0.3877276240040374,-0.3877276240040374,1.0000309406036616,4.936581305545235e-05
-0.3855027916994004,-0.3855027916994004,0.9999966740325726,4.9458589280785606e-05
-0.38435456777951915,-0.38435456777951915,0.999934645400695,4.939729137981557e-05
-0.38278645276805034,-0.38278645276805034,0.9999956976483226,4.9361221304280264e-05
-0.3812381163421378,-0.3812381163421378,0.9998761642796106,4.9361519879283676e-05
-0.37984237867422055,-0.37984237867422055,0.9999798640643242,4.935828490822606e-05
-0.3783439723345509,-0.3783439723345509,0.9999147220030503,4.9364983250177374e-05
-0.3767764270087355,-0.3767764270087355,0.9999490152695605,4.9362633701229755e-05
-0.3751757568672474,-0.3751757568672474,1.0000788031058507,4.9367055889705004e-05
-0.37359478801445223,-0.37359478801445223,1.0000328389907247,4.936486917032989e-05
-0.3723023990634829,-0.3723023990634829,1.000112311179683,4.9346866391549634e-05
-0.3712312184885377,-0.3712312184885377,1.0001262775569266,4.9357910458995104e-05
-0.3701784300574218,-0.3701784300574218,1.0000962548341197,4.934466104010902e-05
-0.3691042006474163,-0.3691042006474163,0.9998957905869605,4.934371580431516e-05
-0.3680460543575464,-0.3680460543575464,0.9999751603064476,4.935545122383535e-05
-0.36696799407072833,-0.36696799407072833,1.000006291788139,4.934429251462841e-05
-0.36591018765248007,-0.36591018765248007,1.0001002827308452,4.9351212690272454e-05
-0.3645525920743239,-0.3645525920743239,0.9999269685912268,4.935094591577807e-05
-0.362898584085633,-0.362898584085633,1.0000418436895608,4.935613156442319e-05
-0.3613358903399785,-0.3613358903399785,1.0000303657035103,4.935550537007388e-05
-0.3598279706639005,-0.3598279706639005,1.0000075739765162,4.9336123135618086e-05
-0.3588200148435135,-0.3588200148435135,1.0000109889750075,4.932675953184362e-05
-0.35803364716412034,-0.35803364716412034,1.0002076963953266,4.935056853669696e-05
-0.3572589267467265,-0.3572589267467265,0.9999855639630489,4.935356605201159e-05
-0.35648371129718726,-0.35648371129718726,1.0000599376149815,4.9360695223915e-05
-0.35561430755478796,-0.35561430755478796,1.0000721493782905,4.9381346636584705e-05
-0.35468138143623945,-0.35468138143623945,1.0000296710204233,4.933668483625346e-05
-0.35356083287042567,-0.35356083287042567,1.000014422571813,4.933800276870339e-05
-0.35253485299108434,-0.35253485299108434,1.0000598462540604,4.934591996124171e-05
-0.35144615933313617,-0.35144615933313617,0.9999037017524216,4.9339947285722164e-05
-0.3503582399978768,-0.3503582399978768,1.000206370088923,4.935441289997117e-05
-0.3493362187939056,-0.3493362187939056,1.0000184559283678,4.934190543819931e-05
-0.3482149210220086,-0.3482149210220086,1.000117445763213,4.9345187200451344e-05
-0.347270326904254,-0.347270326904254,1.0000357310358776,4.932349201150589e-05
-0.34639439037928244,-0.34639439037928244,0.9999696435760509,4.932104343951652e-05
-0.34561040873886667,-0.34561040873886667,0.9999293862137056,4.931663941669334e-05
-0.3448275176793686,-0.3448275176793686,1.0000392413749357,4.9310630152055516e-05
-0.3440253829779977,-0.3440253829779977,0.9999913991939049,4.929058343537932e-05
-0.343175724856701,-0.343175724856701,1.0000314307482947,4.932113306629501e-05
-0.3423627698350174,-0.3423627698350174,1.0000674528696416,4.9314820324401915e-05
-0.34132776090409606,-0.34132776090409606,0.9999741568317052,4.9289127228147216e-05
-0.34022217736201127,-0.34022217736201127,0.9999570496669582,4.929257334667172e-05
-0.3391670015589625,-0.3391670015589625,1.0000641513000588,4.9322560685389894e-05
-0.3381092837487813,-0.3381092837487813,1.0000891179798281,4.929070866845887e-05
-0.33699648992696896,-0.33699648992696896,1.0001088175519626,4.931506200861691e-05
-0.33593424805803807,-0.33593424805803807,1.0000255910371283,4.9305599450987e-05
-0.3348908490857866,-0.3348908490857866,1.0000146893103672,4.930113638142625e-05
-0.3337933853297727,-0.3337933853297727,1.0000726437619083,4.9327371694114815e-05
-0.3327231755829416,-0.3327231755829416,1.0000494661376014,4.9352924123734036e-05
-0.33164088582416296,-0.33164088582416296,1.0000150284085876,4.935067815239166e-05
-0.330683357068483,-0.330683357068483,0.9999915482386665,4.9453502576481803e-05
-0.3298479888879228,-0.3298479888879228,1.0000201727534805,4.9423948979482484e-05
-0.32889139152539426,-0.32889139152539426,0.9999587141138626,4.9310840440587425e-05
-0.3274378370006161,-0.3274378370006161,1.0000503176337106,4.9315638426652315e-05
-0.3258306163275847,-0.3258306163275847,1.0000189345379062,4.9307589392405135e-05
-0.3242049197891902,-0.3242049197891902,0.9999553449312397,4.932438148991027e-05
-0.3225733630410105,-0.3225733630410105,1.000023643989844,4.931487213908548e-05
-0.3209755345553276,-0.3209755345553276,1.0001771557565946,4.933413773377705e-05
-0.3193196453081327,-0.3193196453081327,1.0000594840492412,4.932318571100436e-05
-0.3177496967902698,-0.3177496967902698,1.0000154598893598,4.933288679614992e-05
-0.3164596404894837,-0.3164596404894837,0.9999066664473851,4.934456575805468e-05
-0.31551590337185187,-0.31551590337185187,1.0000048770661696,4.9351135861434254e-05
-0.3140371225250419,-0.3140371225250419,1.0000534277537536,4.936305967794223e-05
-0.31242993532214314,-0.31242993532214314,0.99998954083955,4.936739723743856e-05
-0.31085279079416067,-0.31085279079416067,1.000018132781155,4.936392514983708e-05
-0.30923764584367747,-0.30923764584367747,1.0000456672089881,4.937090243051516e-05
-0.30767151451364044,-0.30767151451364044,1.0000484420792415,4.9371170182865486e-05
-0.30635360982778365,-0.30635360982778365,1.0001379025519255,5.0681380484934064e-05
-0.3052852105036436,-0.3052852105036436,1.0000034830089448,4.954710487006132e-05
-0.30431078971378156,-0.30431078971378156,0.9999286416915043,4.9432422268383675e-05
-0.3033591514104046,-0.3033591514104046,1.0000575339510909,4.933589090284341e-05
-0.3019536370105925,-0.3019536370105925,0.9999555814054245,4.935616957158661e-05
-0.2995730150534655,-0.2995730150534655,1.0001783814921559,4.936535241719803e-05
-0.29729639336219404,-0.29729639336219404,1.0000716768928948,4.935725126899382e-05
-0.2959752188973653,-0.2959752188973653,1.0001081942444996,4.935108601290733e-05
-0.29445969561638774,-0.29445969561638774,1.0000328289624818,4.935296945300645e-05
-0.29190127323963677,-0.29190127323963677,0.9999139399673945,4.935194164722626e-05
-0.2887106271889934,-0.2887106271889934,0.9999868405689332,4.935064893521209e-05
-0.27868008692312285,-0.27868008692312285,0.9999671186989542,5.096848166985981e-05
-0.2750964814113104,-0.2750964814113104,0.9999663908508476,4.947226208445786e-05
-0.27382418786364726,-0.27382418786364726,1.0001132306203933,4.94052423321922e-05
-0.2723812287455075,-0.2723812287455075,0.9999683113919875,4.935669128835529e-05
-0.2708359790354734,-0.2708359790354734,0.9999490868604326,4.936185278045023e-05
-0.2692063061214867,-0.2692063061214867,0.9999288852949155,4.936419721391081e-05
-0.2676472439103236,-0.2676472439103236,0.9998631416307001,4.936085365324545e-05
-0.2662128671290702,-0.2662128671290702,1.000035961957026,4.935564465901252e-05
-0.26476832770567854,-0.26476832770567854,1.0000870478952373,4.9367815963271915e-05
-0.2631903169036377,-0.2631903169036377,0.9999254638940307,4.935794318866653e-05
-0.2617168506803864,-0.2617168506803864,0.9999921050822511,4.9354815741502046e-05
-0.260622417464765,-0.260622417464765,1.0000902883673288,4.9348295797297554e-05
-0.25955352691235023,-0.25955352691235023,1.000008926654861,4.9355225079768935e-05
-0.25849624569891605,-0.25849624569891605,1.000132676832712,4.934469291070151e-05
-0.25742495409213006,-0.25742495409213006,0.9999301582219905,4.934342915966991e-05
-0.2563691687151731,-0.2563691687151731,0.9999412860400951,4.935716183606986e-05
-0.2552866174337396,-0.2552866174337396,1.0000131090432787,4.935051124004973e-05
-0.25412896687121245,-0.25412896687121245,1.0000801518422582,4.9353494519774834e-05
-0.25250519824694495,-0.25250519824694495,1.0000460322610825,4.934989157560079e-05
-0.2509391443687491,-0.2509391443687491,1.0000149488736152,4.935185347911337e-05
-0.2493037275518873,-0.2493037275518873,1.0000698821417586,4.9341486242339755e-05
-0.24814553731121122,-0.24814553731121122,0.9999932007871634,4.934142481939024e-05
-0.24737079574697418,-0.24737079574697418,0.9998825391996901,4.93389161172638e-05
-0.24648941169507452,-0.24648941169507452,0.9999453458263055,4.932580749284828e-05
-0.24571747184963896,-0.24571747184963896,1.000094698737366,4.935087700240377e-05
-0.24493799388219487,-0.24493799388219487,1.0000251447209325,4.939549238658086e-05
-0.2440538078379177,-0.2440538078379177,0.999981818461374,4.9346647851690214e-05
-0.24299483355207485,-0.24299483355207485,1.0001137362329426,4.933516206916586e-05
-0.24187940678748418,-0.24187940678748418,0.9998867367014256,4.933298769244046e-05
-0.24085545037596603,-0.24085545037596603,0.9999573398082579,4.934794280350915e-05
-0.23976031314232388,-0.23976031314232388,1.000072768482425,4.934256356800964e-05
-0.23867934696827434,-0.23867934696827434,0.9998779360295373,4.935380606865855e-05
-0.2376557779360155,-0.2376557779360155,1.0000424914290038,4.934594701002831e-05
-0.23652979200851404,-0.23652979200851404,0.9999685426981328,4.9342450776909306e-05
-0.23572199480768177,-0.23572199480768177,1.0000092691007645,4.931917449555143e-05
-0.2349382560205413,-0.2349382560205413,1.00000869574365,4.929120740171591e-05
-0.23406128306160098,-0.23406128306160098,0.9999822153079819,4.933006550596646e-05
-0.23328825773060088,-0.23328825773060088,0.9998886590184768,4.931836030840527e-05
-0.2324912083815434,-0.2324912083815434,1.0000991278756586,4.9316913280376645e-05
-0.23168600571516434,-0.23168600571516434,1.0000071234765273,4.929011505469022e-05
-0.23085473449973506,-0.23085473449973506,0.9999154728955608,4.931658598835013e-05
-0.22983521991845918,-0.22983521991845918,0.9999360485764202,4.928573920775585e-05
-0.228769002622721,-0.228769002622721,1.0000048993572004,4.931678533918282e-05
-0.22771302712499164,-0.22771302712499164,1.0000838505339564,4.930122099599186e-05
-0.22659779138411978,-0.22659779138411978,1.0000191643619059,4.932273271942182e-05
-0.2255419024535513,-0.2255419024535513,1.0001317704162827,4.92984121704022e-05
-0.2244978776347125,-0.2244978776347125,0.9999274188589167,4.9304396579352095e-05
-0.22339368786197156,-0.22339368786197156,1.000167184846687,4.9326046882251426e-05
-0.22232526688749205,-0.22232526688749205,1.0000841712998358,4.932471763211334e-05
-0.22125165920515427,-0.22125165920515427,1.000063413923608,4.933722988550547e-05
-0.22019397288167966,-0.22019397288167966,0.9999413597510507,4.94196680981306e-05
-0.21928281944492484,-0.21928281944492484,0.9999974490383895,4.9397486141683e-05
-0.21848728065742762,-0.21848728065742762,1.0000224385532308,4.940616406269863e-05
-0.21733271902994603,-0.21733271902994603,1.0000036516617146,4.9315984327196315e-05
-0.21575172811935772,-0.21575172811935772,0.9999872959533695,4.931841262461531e-05
-0.21414018055147607,-0.21414018055147607,1.000008383021862,4.930902331607195e-05
-0.2125194369466044,-0.2125194369466044,1.0001095933510604,4.932982358793146e-05
-0.21088355539395706,-0.21088355539395706,0.9999910028679115,4.9316729902815075e-05
-0.20929068132682005,-0.20929068132682005,1.000023716569173,4.933188790697344e-05
-0.20763046667852905,-0.20763046667852905,1.0000733655803629,4.932047046460988e-05
-0.20612696753742057,-0.20612696753742057,1.0000019490084844,4.933509334545251e-05
-0.2050308367659454,-0.2050308367659454,1.0000769080957954,4.935337830075602e-05
-0.2036340143007692,-0.2036340143007692,1.000028666739361,4.9362954577477054e-05
-0.20202858370612375,-0.20202858370612375,1.0000209935586484,4.936962523497108e-05
-0.20044905801987625,-0.20044905801987625,1.0000084234730198,4.936164507923725e-05
-0.19883568635414123,-0.19883568635414123,0.9999801669746612,4.9367983736982726e-05
-0.19726707438676386,-0.19726707438676386,1.00005670707803,4.9368040528856305e-05
-0.19578645740184583,-0.19578645740184583,0.9999832101090613,5.030656565343663e-05
-0.1946657651802525,-0.1946657651802525,1.0000401197327033,5.005217606616119e-05
-0.19360334184093517,-0.19360334184093517,0.9999229965095795,4.943270097882098e-05
-0.19256926767993718,-0.19256926767993718,0.9999787194970162,4.934431873860987e-05
-0.19136865971522637,-0.19136865971522637,0.9999693072294736,4.9353278481249264e-05
-0.1896696497358789,-0.1896696497358789,1.000014238915763,4.936109402133832e-05
-0.18696859374831548,-0.18696859374831548,0.9999578283455539,4.9357159684907985e-05
-0.18531793096626642,-0.18531793096626642,1.0000816081737134,4.9360989097070186e-05
-0.18373514199411148,-0.18373514199411148,1.0001358090855057,4.9352688471166136e-05
-0.18149966936107376,-0.18149966936107376,0.9999513392945021,4.9352071505520734e-05
-0.1783082450798247,-0.1783082450798247,1.0001504673030843,4.935536982387435e-05
-0.17019574244259275,-0.17019574244259275,1.0001218998352885,4.935867327661961e-05
-0.1640559747334919,-0.1640559747334919,1.0000321129120953,4.9479086929128214e-05
-0.16278400880037225,-0.16278400880037225,1.0000044301929965,4.9408715244686705e-05
-0.16163597102640778,-0.16163597102640778,1.0001025365310692,4.9376949746501275e-05
-0.16007022764460999,-0.16007022764460999,0.9999115016107154,4.936355921080525e-05
-0.1585197352200339,-0.1585197352200339,1.0001063052986274,4.936697849767783e-05
-0.1568968412328104,-0.1568968412328104,1.0000911574152618,4.936833416858373e-05
-0.15533261642412982,-0.15533261642412982,0.9999784891000767,4.93660049450368e-05
-0.1537275958689861,-0.1537275958689861,1.0000073402969962,4.9362806777772646e-05
-0.15223528352435095,-0.15223528352435095,0.9999709502776156,4.936231573170732e-05
