time,time,flux,flux_err
-0.4992746782348452,-0.4992746782348452,0.9999164169821864,8.256003648950807e-05
-0.4982960463130439,-0.4982960463130439,1.0000695617802633,8.214471405337957e-05
-0.4976928461692296,-0.4976928461692296,0.999975643342497,7.512073452944404e-05
-0.49711380857770565,-0.49711380857770565,0.999849551586904,7.471505715543145e-05
-0.496127596097358,-0.496127596097358,1.000030419645458,7.468448048292677e-05
-0.49550320774142165,-0.49550320774142165,1.0000618501180185,7.512435710380759e-05
-0.49481561836291804,-0.49481561836291804,1.0000376303189005,7.484176619244389e-05
-0.49404985796281836,-0.49404985796281836,0.999981889404942,7.45817156919816e-05
-0.4930492642452009,-0.4930492642452009,0.9999301716387488,7.686286009494992e-05
-0.49193099518015515,-0.49193099518015515,0.9999569976731948,7.530375434805976e-05
-0.4907665805701981,-0.4907665805701981,1.0000106423404478,7.482669239792866e-05
-0.4902409218469984,-0.4902409218469984,1.000094361095561,7.483031674801443e-05
-0.4897881196608068,-0.4897881196608068,0.999963506436177,7.511678389436525e-05
-0.48924857192178023,-0.48924857192178023,0.9999496790212742,7.517215486447785e-05
-0.4885966347719659,-0.4885966347719659,0.9999574962950101,7.50581462381594e-05
-0.48766020276088967,-0.48766020276088967,0.9999891169914454,7.507211422197961e-05
-0.4871858374375734,-0.4871858374375734,0.999925695988795,7.505225698544977e-05
-0.4863674266467569,-0.4863674266467569,0.9999960596771642,7.479773549405308e-05
-0.4857235906951246,-0.4857235906951246,1.0000247055597755,7.466359558739472e-05
-0.4848578283112147,-0.4848578283112147,0.9999899051160183,7.500357736388617e-05
-0.484191419648414,-0.484191419648414,1.0000046654683419,7.494025020904853e-05
-0.4834061829766142,-0.4834061829766142,0.9999565157843747,7.524895843252327e-05
-0.48284906484768725,-0.48284906484768725,1.0000442339558302,7.468002053777753e-05
-0.4823958568624221,-0.4823958568624221,1.0000257058170532,7.49147324854553e-05
-0.4821986976690823,-0.4821986976690823,0.9999085614168841,7.490809418330549e-05
-0.4815394659832236,-0.4815394659832236,0.9999050942100585,7.511219581685085e-05
-0.48054362628172387,-0.48054362628172387,1.0000493905509464,7.499597772196345e-05
-0.47966070778056746,-0.47966070778056746,1.0000055407877029,7.51438022091698e-05
-0.47925974799436516,-0.47925974799436516,0.9999269903289386,7.584904037845902e-05
-0.47860614292003445,-0.47860614292003445,1.000065727336077,7.535625833639824e-05
-0.4782471954953508,-0.4782471954953508,1.000017239523818,7.481949265678648e-05
-0.47749177970690654,-0.47749177970690654,0.9999703114033807,7.478720224401207e-05
-0.4766365170042263,-0.4766365170042263,0.9998621741985699,7.447417278821869e-05
-0.4760732245995314,-0.4760732245995314,0.999959232902825,7.527087960503493e-05
-0.47528284086874917,-0.47528284086874917,1.0000273375533553,7.512013345011236e-05
-0.47451117443561086,-0.47451117443561086,0.99991995439546,7.48892058993726e-05
-0.47401672004780265,-0.47401672004780265,0.9999438929744213,7.493129220364453e-05
-0.4733234923798591,-0.4733234923798591,1.0000179677113863,7.508546034036707e-05
-0.471968036807084,-0.471968036807084,0.9998639606458155,7.508076711558998e-05
-0.47131284030911047,-0.47131284030911047,0.9999490016138994,7.508966972269291e-05
-0.4706304548948538,-0.4706304548948538,0.9998891996636481,7.515955092437683e-05
-0.4699850769000477,-0.4699850769000477,0.9999905618427969,7.446401745353426e-05
-0.46889674112608193,-0.46889674112608193,0.9999837893032621,7.447057250803165e-05
-0.46814546516543487,-0.46814546516543487,0.9999687655434263,7.692936559703848e-05
-0.46724973525851965,-0.46724973525851965,0.9999268417186669,7.537659568052353e-05
-0.46643047102115814,-0.46643047102115814,1.000085316774659,7.510798469429264e-05
-0.4654962197149871,-0.4654962197149871,0.9999041601239786,7.513170965082844e-05
-0.46493139357917246,-0.46493139357917246,0.9998837324576082,7.482787954701854e-05
-0.46387586271739567,-0.46387586271739567,1.0000549965752459,7.511852040083501e-05
-0.4630771684911451,-0.4630771684911451,1.0001080235325204,7.519631295003349e-05
-0.4625193702260731,-0.4625193702260731,0.9999804094418969,7.506754905874997e-05
-0.46201160333293956,-0.46201160333293956,1.0001050178430035,7.424320622417101e-05
-0.4608142569704796,-0.4608142569704796,1.0000014738579277,7.49292323377092e-05
-0.46030843518965414,-0.46030843518965414,0.9999777007574833,7.490251030198731e-05
-0.4591285268601496,-0.4591285268601496,0.9999863420889797,7.530170894201283e-05
-0.45835289289971115,-0.45835289289971115,1.0000252254741013,7.511295400375691e-05
-0.4576593369900365,-0.4576593369900365,0.9999930748705499,7.491071385236054e-05
-0.45729474032268624,-0.45729474032268624,0.9999622604565402,7.46478926685293e-05
-0.45670613421243617,-0.45670613421243617,0.9999972036694527,7.507928964892505e-05
-0.4559733855756349,-0.4559733855756349,0.9998678281338311,7.488574231306913e-05
-0.455358798931411,-0.455358798931411,1.000092112722835,7.490205742475031e-05
-0.45488437942112797,-0.45488437942112797,1.000067260532229,7.496928601546627e-05
-0.45433012646390125,-0.45433012646390125,0.9999441704363863,7.484962062256296e-05
-0.45300683956884313,-0.45300683956884313,0.9999260527505272,7.513283775950462e-05
-0.45232546797342366,-0.45232546797342366,0.9999203522135545,7.488943127321834e-05
-0.4512657868050155,-0.4512657868050155,1.0000514598000831,7.50686555644312e-05
-0.4507146953954361,-0.4507146953954361,1.000064673511996,7.651357450770368e-05
-0.4501186828449136,-0.4501186828449136,1.0000623639167536,7.487160791114438e-05
-0.44956570690847003,-0.44956570690847003,1.000116696022404,7.489071156842075e-05
-0.44889892962528394,-0.44889892962528394,0.9998497708935506,7.46399716029248e-05
-0.4480546366379713,-0.4480546366379713,0.9999338322895357,7.490558246096752e-05
-0.44734300017298667,-0.44734300017298667,0.9999784923387702,7.51391489065929e-05
-0.4468156778588309,-0.4468156778588309,1.0000369115011503,7.510120969075637e-05
-0.44573362285009355,-0.44573362285009355,1.0000180458493162,7.424659272271223e-05
-0.44468884523812446,-0.44468884523812446,0.9998824914821801,7.473713903338788e-05
-0.44368576543492966,-0.44368576543492966,1.0000874002940099,7.785307992032138e-05
-0.44255454748054035,-0.44255454748054035,0.9999429623633237,7.517605421181197e-05
-0.4415890660558944,-0.4415890660558944,1.000011542078551,7.464739162208916e-05
-0.44089831820019754,-0.44089831820019754,0.9998825459312884,7.487406544751533e-05
-0.44024939163646193,-0.44024939163646193,0.9998044056259466,7.449458989942246e-05
-0.43938994481577537,-0.43938994481577537,1.0001154368648661,7.53354449830466e-05
-0.4380705156727345,-0.4380705156727345,0.9999861640088401,7.731119444113433e-05
-0.4373675433467724,-0.4373675433467724,0.9999051240623,7.445774971281506e-05
-0.43681512783368814,-0.43681512783368814,0.999950873367383,7.423311372908289e-05
-0.436168181602261,-0.436168181602261,0.9999841082066799,7.78976962732296e-05
-0.435140164931363,-0.435140164931363,0.9999948358036918,7.500625638096891e-05
-0.43378378373599846,-0.43378378373599846,1.0000094963812578,7.46517105228328e-05
-0.43261261342704527,-0.43261261342704527,1.0000691554420107,7.601016877135223e-05
-0.4319127960639889,-0.4319127960639889,0.9999164196331221,7.520451475266936e-05
-0.43035971605713713,-0.43035971605713713,0.9999493149188889,7.484694040839137e-05
-0.42908200314705025,-0.42908200314705025,0.9999239270670666,7.422325540715003e-05
-0.4285144785491866,-0.4285144785491866,1.0000601575712982,7.473639424069537e-05
-0.42766367833391994,-0.42766367833391994,1.0000527679503461,7.485851807456558e-05
-0.4264663692738395,-0.4264663692738395,0.9999639910296929,7.501806253431195e-05
-0.42513657763192897,-0.42513657763192897,1.0000216996737308,7.578459672394533e-05
-0.42409066149994035,-0.42409066149994035,1.000017830084233,7.499440234049093e-05
-0.4225705971373827,-0.4225705971373827,0.9999714878399015,7.464341101113811e-05
-0.4212734037108021,-0.4212734037108021,1.000147504329393,7.422267102366688e-05
-0.42051755278225755,-0.42051755278225755,1.0001657761570895,7.519979334507317e-05
-0.41947482803225283,-0.41947482803225283,1.0001128552751648,7.496775627411587e-05
-0.41834888246812624,-0.41834888246812624,0.9998787350758171,7.461376758199594e-05
-0.4168788220631541,-0.4168788220631541,1.0001587354044346,7.425077952524109e-05
-0.4158386242328561,-0.4158386242328561,0.9999416613344266,7.51827194023911e-05
-0.4147461515647592,-0.4147461515647592,0.9999543231925883,7.505870977962442e-05
-0.4137073976293323,-0.4137073976293323,0.9999850646735163,7.465172049794207e-05
-0.41285076085623584,-0.41285076085623584,0.9999168985199406,7.490230333685463e-05
-0.41234396805957657,-0.41234396805957657,0.9999718838842288,7.520124533896936e-05
-0.41166874714399454,-0.41166874714399454,0.9999973647476686,7.536651513306187e-05
-0.4110976413154276,-0.4110976413154276,0.9999989967659687,7.48282125217425e-05
-0.4098835828292067,-0.4098835828292067,0.9999762829246739,7.527132965959577e-05
-0.40938453207782005,-0.40938453207782005,1.0000452103289805,7.45485250504181e-05
-0.4084245498015662,-0.4084245498015662,0.9999580133637881,7.461846682306417e-05
-0.4078433348200633,-0.4078433348200633,1.0000064763836423,7.501013128301262e-05
-0.4073024538331083,-0.4073024538331083,0.9998846435274164,7.523544956047806e-05
-0.40666624110453997,-0.40666624110453997,1.0000042347381324,7.508053545225803e-05
-0.4058606950144167,-0.4058606950144167,0.9999800047435021,7.49405911617208e-05
-0.40499334294581785,-0.40499334294581785,0.9999375942140887,7.470707643459887e-05
-0.4044828573736595,-0.4044828573736595,0.9999866315368706,7.682731060125106e-05
-0.4041264289204264,-0.4041264289204264,1.000126718196141,7.461923770087211e-05
-0.403383782900346,-0.403383782900346,1.0000623189880613,7.480885586096514e-05
-0.40210373333247845,-0.40210373333247845,1.000137568176158,7.762033615893122e-05
-0.401425879591261,-0.401425879591261,0.9998832808508009,7.554808105675746e-05
-0.40048728342808315,-0.40048728342808315,0.9998983491427398,7.461572303052089e-05
-0.3999575422378257,-0.3999575422378257,0.9999073855008372,7.59106841026309e-05
-0.39928951973706717,-0.39928951973706717,1.0000341999440592,7.503437662344478e-05
-0.3986626897851238,-0.3986626897851238,1.000053256689149,7.615258686377959e-05
-0.39795096986490536,-0.39795096986490536,0.9999995380801785,7.494904805904815e-05
-0.3970869320852216,-0.3970869320852216,0.9999890290831891,7.466468107598768e-05
-0.3965726890804945,-0.3965726890804945,0.9999088616016012,7.510975052847719e-05
-0.39603706075722583,-0.39603706075722583,0.99994828022557,7.488743643459214e-05
-0.3954031425775611,-0.3954031425775611,0.9999216814192792,7.460110959846289e-05
-0.3943932419133489,-0.3943932419133489,0.9999980682767182,7.44432724530421e-05
-0.3938453019203735,-0.3938453019203735,1.000074654241414,7.471294720806719e-05
-0.39261581202590606,-0.39261581202590606,0.9998435254469307,7.549908973900746e-05
-0.3918018369644415,-0.3918018369644415,0.9999299481167652,7.521756259716878e-05
-0.39133186289545846,-0.39133186289545846,0.999817945597972,7.524594474511144e-05
-0.39076826361124406,-0.39076826361124406,1.0001045783328106,7.508457814242039e-05
-0.39023691726324616,-0.39023691726324616,0.9999038158184159,7.467646203763916e-05
-0.3893343218776863,-0.3893343218776863,1.0001451201546758,7.712918754597417e-05
-0.3889183478473569,-0.3889183478473569,0.9999187889112593,7.486544328900476e-05
-0.38842683072434736,-0.38842683072434736,0.9999701085065574,7.485910194245141e-05
-0.38775000754831124,-0.38775000754831124,0.9999427747964829,7.483196315188954e-05
-0.38704532612755427,-0.38704532612755427,1.0000183616281464,7.464078027415366e-05
-0.38605132205557313,-0.38605132205557313,1.0001046386724615,7.702985796117399e-05
-0.3849222744000144,-0.3849222744000144,0.9998655560409819,7.531016699182762e-05
-0.3838049459227477,-0.3838049459227477,0.9998756926422876,7.46592543381262e-05
-0.38330851830687607,-0.38330851830687607,0.9997711763052681,7.512674201093825e-05
-0.38281644066737497,-0.38281644066737497,0.9999698307865834,7.488696028117265e-05
-0.3823570814696723,-0.3823570814696723,0.9999216527335788,7.466131109736877e-05
-0.38152253659645796,-0.38152253659645796,1.0000368909417712,7.468589606059338e-05
-0.3810480552710942,-0.3810480552710942,1.0000695186901158,7.507974572321597e-05
-0.38052552734588974,-0.38052552734588974,0.9999848733947806,7.488441790152747e-05
-0.3796567642420996,-0.3796567642420996,1.000094957544686,7.480190612249606e-05
-0.3791841468468192,-0.3791841468468192,0.9999661068267761,7.465440042208794e-05
-0.37829838795296383,-0.37829838795296383,0.9999457090099486,7.511167451081132e-05
-0.37740386487130306,-0.37740386487130306,0.9998951268856262,7.520745709752066e-05
-0.37645965081464966,-0.37645965081464966,1.0000325992838182,7.525498499110624e-05
-0.3757653639055206,-0.3757653639055206,0.9999675827480559,7.46684936747553e-05
-0.37549350965127815,-0.37549350965127815,0.999839956662804,7.485143289389031e-05
-0.37505752638244305,-0.37505752638244305,1.0000515444950007,7.522377696224555e-05
-0.37447086105385097,-0.37447086105385097,1.0000364967618192,7.509404808822117e-05
-0.3734601175950957,-0.3734601175950957,0.9999735191331531,7.521781387091158e-05
-0.37284140671545174,-0.37284140671545174,0.9999413620724237,7.512765712097158e-05
-0.37246159891365094,-0.37246159891365094,1.0000430737938406,7.501265340752562e-05
-0.37164247583714316,-0.37164247583714316,0.9999324730046022,7.480932404014512e-05
-0.3712029945483664,-0.3712029945483664,0.9998902012514013,7.446209762384521e-05
-0.3701332893615472,-0.3701332893615472,1.000013712479463,7.47906214056785e-05
-0.36941522114502734,-0.36941522114502734,0.9999255361645469,7.524444007318327e-05
-0.36854131994041384,-0.36854131994041384,0.9999068281385842,7.508705755941613e-05
-0.3678875240002526,-0.3678875240002526,1.0000132821319998,7.732537564505011e-05
-0.3676077676849673,-0.3676077676849673,1.0000042507450226,7.493216006867296e-05
-0.3671082486733212,-0.3671082486733212,0.9999988369118984,7.521115183820547e-05
-0.36613812026625964,-0.36613812026625964,1.0000563591038951,7.499243921794292e-05
-0.3651694630563725,-0.3651694630563725,1.0000144904388955,7.513237616849781e-05
-0.3647006909144693,-0.3647006909144693,1.0001303444839074,7.487949489649329e-05
-0.3638920227647759,-0.3638920227647759,0.9999526122074054,7.541452643527658e-05
-0.3631050369920558,-0.3631050369920558,0.9999909368606861,7.454149280696753e-05
-0.3620032503240509,-0.3620032503240509,1.000011014832798,7.470365869874683e-05
-0.36153042929799994,-0.36153042929799994,0.9998112171430357,7.679337594823125e-05
-0.36081150159297976,-0.36081150159297976,1.000072423335382,7.519636176758181e-05
-0.36003124494745864,-0.36003124494745864,0.9999799359895597,7.514271156148459e-05
-0.3595420864687185,-0.3595420864687185,0.9999636501703911,7.511615219368415e-05
-0.35859990464668956,-0.35859990464668956,0.9999652205659604,7.507309316639587e-05
-0.35772390181373337,-0.35772390181373337,1.000144692395825,7.486563679970855e-05
-0.3571516908457852,-0.3571516908457852,0.9999795481139765,7.511630231056508e-05
-0.35639502889825964,-0.35639502889825964,0.9999170201384026,7.51871665871144e-05
-0.3558754004377988,-0.3558754004377988,0.9999966682874023,7.483950034185786e-05
-0.355462316593912,-0.355462316593912,1.0000086470990452,7.469618894335199e-05
-0.3545461835718015,-0.3545461835718015,0.9999566636988156,7.470844816471597e-05
-0.3539134960854426,-0.3539134960854426,0.9999829812461941,7.466434238253988e-05
-0.35315370844764404,-0.35315370844764404,1.0002588620371504,7.740936847854347e-05
-0.3522267166088568,-0.3522267166088568,0.9999661164756594,7.688544767263886e-05
-0.35165878119150873,-0.35165878119150873,0.999976743177885,7.524688326097275e-05
-0.3509751003861311,-0.3509751003861311,0.9999836859219571,7.493032046812334e-05
-0.3505896483286051,-0.3505896483286051,0.999926056158824,7.462771180947778e-05
-0.349634439071815,-0.349634439071815,0.9999953013952527,7.50888404667858e-05
-0.3488963914089254,-0.3488963914089254,0.9999781153664123,7.519218064866917e-05
-0.3482036280751345,-0.3482036280751345,1.0001017547287696,7.498320492294897e-05
-0.3476834307293757,-0.3476834307293757,0.9999658829564491,7.485371095536997e-05
-0.34645560163917255,-0.34645560163917255,1.000020634308982,7.493200611386082e-05
-0.3457620145563851,-0.3457620145563851,0.9999348308371321,7.467468602579249e-05
-0.3447773386593326,-0.3447773386593326,1.000155987403599,7.528078773408616e-05
-0.34396442101715363,-0.34396442101715363,0.9999812084833387,7.509190936294385e-05
-0.3433105211108341,-0.3433105211108341,1.000031371768063,7.489458461438546e-05
-0.3427762837571208,-0.3427762837571208,0.9999197032869176,7.46658841951314e-05
-0.34215180495230013,-0.34215180495230013,0.9999619785868452,7.487409539686711e-05
-0.3412496803342947,-0.3412496803342947,0.9999110015280804,7.509134086127481e-05
-0.340479658501863,-0.340479658501863,0.9999067753287104,7.520050902799491e-05
-0.33986800190177746,-0.33986800190177746,0.9999367555934142,7.484579477807825e-05
-0.3385685857720091,-0.3385685857720091,0.9998666998202564,7.469068296546488e-05
-0.33724047353025527,-0.33724047353025527,0.9998927515673011,7.484463505451222e-05
-0.33620831525040556,-0.33620831525040556,1.0000212143406144,7.538733719484182e-05
-0.3354338317469228,-0.3354338317469228,0.9999605442428152,7.521535447758606e-05
-0.33478132816962897,-0.33478132816962897,0.9999977219762191,7.465618372797756e-05
-0.3340873706489219,-0.3340873706489219,1.0001417543514628,7.49773985620573e-05
-0.3334206206302042,-0.3334206206302042,0.999894131215828,7.487333190681449e-05
-0.3325850543566048,-0.3325850543566048,0.999989967963586,7.491888371866147e-05
-0.33209816257149216,-0.33209816257149216,0.999890852976797,7.542269399374837e-05
-0.3309791354913614,-0.3309791354913614,0.9999407483048156,7.45264451990621e-05
-0.3301705644946196,-0.3301705644946196,0.9999151846550929,7.47367258057706e-05
-0.3293242897139862,-0.3293242897139862,0.9999092372259668,7.779552141416255e-05
-0.32843513117986733,-0.32843513117986733,0.9999828771461491,7.604211396568836e-05
-0.3276014989169198,-0.3276014989169198,1.0000293682143848,7.499067058353621e-05
-0.3267678864474874,-0.3267678864474874,0.9999519680424648,7.466104599576827e-05
-0.3258993233757792,-0.3258993233757792,1.0000485310467546,7.468658170419811e-05
-0.32516031124541767,-0.32516031124541767,1.0000432940389967,7.552087181324583e-05
-0.32404644737689525,-0.32404644737689525,0.9999688114982244,7.465186162952278e-05
-0.32260351951699706,-0.32260351951699706,1.0000344077375172,7.44557636227936e-05
-0.3220718872733414,-0.3220718872733414,0.9999982036828354,7.45125308910001e-05
-0.3214481486123987,-0.3214481486123987,1.0000464873250885,7.769533530683215e-05
-0.3206104330150993,-0.3206104330150993,1.0000458363112061,7.477598285325592e-05
-0.31951002355490343,-0.31951002355490343,0.9999850111985993,7.488319505209757e-05
-0.31843851061130407,-0.31843851061130407,1.0000183450305833,7.44370396176667e-05
-0.317506688751746,-0.317506688751746,0.9999721665581831,7.477574732060503e-05
-0.3162605150631862,-0.3162605150631862,1.0000647239109537,7.506050882521898e-05
-0.31498356821975904,-0.31498356821975904,1.0000279082299468,7.423325568728229e-05
-0.31429730302188547,-0.31429730302188547,0.9999983800961367,7.423523091334088e-05
-0.31361016055307117,-0.31361016055307117,0.9999286724839195,7.538229245751584e-05
-0.31244671206804925,-0.31244671206804925,0.9999906754910832,7.476722783577723e-05
-0.3108993940288201,-0.3108993940288201,0.9999360452866419,7.445181957818422e-05
-0.3097558692403254,-0.3097558692403254,0.9999560399278256,7.445188011604787e-05
-0.30862908390990923,-0.30862908390990923,1.000114462415644,7.53688194880081e-05
-0.30727412597625514,-0.30727412597625514,1.0000001209017806,7.423461391594507e-05
-0.30616863228060537,-0.30616863228060537,0.9999490598204168,7.472159169077331e-05
