time,time,flux,flux_err
-0.49990721888631623,-0.49990721888631623,1.0000127063209925,0.00017641321382554277
-0.4997971627628431,-0.4997971627628431,0.9997929350037627,0.00016461085906785034
-0.49953871356265156,-0.49953871356265156,1.0001191390634376,0.00016405112633108304
-0.4993782276884303,-0.4993782276884303,0.9996600190432634,0.0001631212282896806
-0.4992618741787737,-0.4992618741787737,1.0000800127761464,0.00015959216526699216
-0.4990303399754339,-0.4990303399754339,0.999846724344024,0.00016199412853259786
-0.49884523829095995,-0.49884523829095995,0.9999494156890018,0.00016127523944946284
-0.49876235869014635,-0.49876235869014635,0.9998785098634823,0.00016251297546910623
-0.49871687843551626,-0.49871687843551626,1.0000146226913575,0.00016033972263898558
-0.49858091183414216,-0.49858091183414216,1.0001409782986708,0.00016596444132777885
-0.49843894217483464,-0.49843894217483464,0.9999677333216812,0.00016104773782174583
-0.49834673166187715,-0.49834673166187715,1.0001336161603533,0.0001604706849415277
-0.49812029259628615,-0.49812029259628615,1.0003496624828876,0.00016294835556242127
-0.4978750806782045,-0.4978750806782045,0.9999954500580819,0.000163039926061326
-0.4977862895655562,-0.4977862895655562,0.9999897605647134,0.00016329805734290536
-0.4976397255450138,-0.4976397255450138,1.0000175541202014,0.00016444301989674426
-0.4973958692717133,-0.4973958692717133,1.0001374821981215,0.00016737845781862877
-0.4972211922329734,-0.4972211922329734,1.0001448062290679,0.00016095340784064158
-0.49706476271967404,-0.49706476271967404,1.0004929524142874,0.00016406374762272357
-0.4969486246642191,-0.4969486246642191,0.9998575633113139,0.0001595953021139923
-0.4968131157016614,-0.4968131157016614,0.9999730648196001,0.00016112822096792296
-0.49669776063383325,-0.49669776063383325,0.9999068189549728,0.00016221345038966225
-0.4966357185679954,-0.4966357185679954,0.9999983347950057,0.00016264441212863684
-0.49648774374072674,-0.49648774374072674,0.9996493659025123,0.00016466266566480511
-0.4963563519049785,-0.4963563519049785,1.000228207470419,0.00015991525452252995
-0.496205579067464,-0.496205579067464,1.0000465151792945,0.0001702492090792707
-0.49589173100539485,-0.49589173100539485,1.0000442529521298,0.00016263381669847355
-0.49573973067017507,-0.49573973067017507,0.9997243037092934,0.000161712231044231
-0.4956260067570838,-0.4956260067570838,1.0000646462902232,0.00016191067393744757
-0.49532308150082827,-0.49532308150082827,0.9999202648563094,0.0001651192570788159
-0.49520141686516583,-0.49520141686516583,1.0001466010910087,0.00015994667577861604
-0.495047614678333,-0.495047614678333,1.0001520619986723,0.00016326801412450397
-0.4948657007960719,-0.4948657007960719,0.9996825184457873,0.00015907574985692352
-0.4946864714904223,-0.4946864714904223,1.000013680793352,0.0001601406528599296
-0.4945977827301249,-0.4945977827301249,0.9999996207986916,0.00016281667170915762
-0.49448325939738424,-0.49448325939738424,1.0001651028377245,0.00016822185519081085
-0.4943517807070748,-0.4943517807070748,0.9997214030875462,0.0001608768283743208
-0.49417835180647673,-0.49417835180647673,1.0000215687832272,0.0001600693206052748
-0.49394285445305286,-0.49394285445305286,1.0000070363873674,0.00015857128222776762
-0.49374571334192296,-0.49374571334192296,1.000094586528759,0.00016533433057240398
-0.49361766829970294,-0.49361766829970294,0.9999139541681537,0.00015942300845945965
-0.49336037134635263,-0.49336037134635263,1.0000775167031262,0.00016265894445741455
-0.493143683722883,-0.493143683722883,0.9997329315028225,0.00016355671793327222
-0.49298455319949425,-0.49298455319949425,1.0000163241655782,0.00016416338451235034
-0.49279382658569376,-0.49279382658569376,1.0000708199824033,0.00016091584415373495
-0.4925857797628851,-0.4925857797628851,1.0001716925849184,0.00016018040401146572
-0.49248326120577984,-0.49248326120577984,1.0001858123155656,0.00016683355914550157
-0.49233391292218587,-0.49233391292218587,0.9999067880289012,0.0001665654742746311
-0.49221834569907513,-0.49221834569907513,1.000178714616315,0.00016153393167624548
-0.49206618879543385,-0.49206618879543385,1.0003514428294544,0.0001611241333312996
-0.491853005370649,-0.491853005370649,0.9998929299385171,0.00016428025648810142
-0.49165324728528503,-0.49165324728528503,1.000002271258999,0.00016147496699513907
-0.49154545733035776,-0.49154545733035776,0.9998220517830333,0.0001657731801917108
-0.4913241907896008,-0.4913241907896008,0.999890799441211,0.00016076510481978474
-0.49101890512829416,-0.49101890512829416,0.9999442741942965,0.0001623348282589891
-0.4908772854236304,-0.4908772854236304,1.000159488791275,0.00015975620206813557
-0.4907177839821088,-0.4907177839821088,1.0000336211937997,0.0001639223346941772
-0.490598586302076,-0.490598586302076,1.0001463756150168,0.00015822711765116988
-0.4904576135915704,-0.4904576135915704,0.9999193736967019,0.00016318050937901297
-0.49029656662460186,-0.49029656662460186,1.0002136572873805,0.00016611420795170629
-0.49011241804983,-0.49011241804983,1.00033539505582,0.00016035058360677954
-0.48993912548903606,-0.48993912548903606,1.000035308436027,0.00016232941972183656
-0.48975209008931414,-0.48975209008931414,0.9997511564146265,0.0001633118766016479
-0.4895482144289417,-0.4895482144289417,1.0001438570988714,0.00016290315382336845
-0.48934489413222765,-0.48934489413222765,0.9998566789016866,0.00016776194564595444
-0.48909876125253504,-0.48909876125253504,1.0000606633645406,0.00016281732711281733
-0.48891623661475025,-0.48891623661475025,0.9998017218562388,0.0001607678637438923
-0.48876688519958406,-0.48876688519958406,1.0003761048887287,0.0001629593753202816
-0.48861261653946714,-0.48861261653946714,0.999988897037753,0.0001610798672924718
-0.4884682831718237,-0.4884682831718237,0.9999593234740664,0.00016322439927404493
-0.488352572376607,-0.488352572376607,1.0000394175467309,0.00016132447682923678
-0.4881792888671043,-0.4881792888671043,0.999834001041858,0.00016419410651324478
-0.48802453990501815,-0.48802453990501815,1.0003133577065335,0.00015703469204287539
-0.48789781344821676,-0.48789781344821676,0.9999972065667345,0.00016331539008789903
-0.4876080166126485,-0.4876080166126485,0.9996889634295479,0.00016277896696654577
-0.48742937167407946,-0.48742937167407946,0.9998329185901508,0.0001650616477170338
-0.48705896972242047,-0.48705896972242047,0.9998102098781603,0.0001600833288313668
-0.4868320775029133,-0.4868320775029133,0.9997581237467441,0.00016398178250170251
-0.48664863768499345,-0.48664863768499345,0.9998784412887683,0.00016222741900201402
-0.4865257609082619,-0.4865257609082619,0.9999230830137048,0.00016098794316319714
-0.48648902252170956,-0.48648902252170956,1.0003748208501075,0.00015745032248932084
-0.486314254203171,-0.486314254203171,1.0001390716662122,0.0001622487813093643
-0.48616698031546546,-0.48616698031546546,1.0003047053245218,0.00016522128255977133
-0.4859684753319016,-0.4859684753319016,0.9999734304842764,0.0001582754167949781
-0.48588116073806303,-0.48588116073806303,0.9997695049735787,0.00016043404478428396
-0.4856798612177954,-0.4856798612177954,0.9999096668891966,0.00016285280333535853
-0.48544039916305337,-0.48544039916305337,1.0000232423930657,0.0001646062306128305
-0.485260051683872,-0.485260051683872,0.999782229986989,0.00017239512347749826
-0.48501333112217254,-0.48501333112217254,1.0001825601972096,0.0001672401707451413
-0.48482688955118647,-0.48482688955118647,1.000172394428215,0.00016340859594846208
-0.4846095517743379,-0.4846095517743379,1.0000185032573636,0.00016210196055836107
-0.4844820255966624,-0.4844820255966624,0.9999936673711014,0.00016255958594401488
-0.4843809279584093,-0.4843809279584093,0.9997626527905086,0.00016198269388795764
-0.4842329329010681,-0.4842329329010681,0.9998083638372843,0.00016186012876437785
-0.48416308976593425,-0.48416308976593425,0.9998419195853028,0.00016088519636877786
-0.4840336450535688,-0.4840336450535688,0.9999998948033472,0.00016270138388962404
-0.4838705627480522,-0.4838705627480522,0.9999917782293842,0.00016016422859611713
-0.48370189979905265,-0.48370189979905265,1.0001078497547173,0.00016498757231120197
-0.4835435718283406,-0.4835435718283406,1.0001273550932066,0.00016067568568170877
-0.48329941860138204,-0.48329941860138204,1.0001123484020908,0.0001634981238762651
-0.4830197177216178,-0.4830197177216178,0.9999380270805653,0.00016123931904334806
-0.4828004694558331,-0.4828004694558331,0.9998610677127786,0.00016663737406608277
-0.48262595534179126,-0.48262595534179126,1.0000366091506439,0.0001603690280886759
-0.48245657956431387,-0.48245657956431387,1.000030251656586,0.00016066963296751169
-0.4823594660294475,-0.4823594660294475,0.9998417460106731,0.0001606041899188038
-0.48224829507234973,-0.48224829507234973,1.0001121623705325,0.00016105316740854523
-0.48210622690676247,-0.48210622690676247,0.9999240184631427,0.0001639085617344273
-0.48201282958034425,-0.48201282958034425,1.0000237814822357,0.0001629034373486347
-0.4818025297819986,-0.4818025297819986,0.99985948224766,0.00016180399103622397
-0.48159634957410163,-0.48159634957410163,1.0000405535728503,0.00016459590145156893
-0.4813136508615571,-0.4813136508615571,0.9998892532853757,0.00016464021190411475
-0.48104400192969476,-0.48104400192969476,1.0001917206002027,0.00016254122900809484
-0.48078687825618543,-0.48078687825618543,0.9994848761321091,0.00016294552419164013
-0.4806333873682888,-0.4806333873682888,0.9999260218914394,0.00016086833793390272
-0.48042244111420584,-0.48042244111420584,1.0001052265896946,0.00016314888168622365
-0.4802925389827578,-0.4802925389827578,0.9997083857490475,0.00016125514664307392
-0.4801874960132409,-0.4801874960132409,1.0001541512949506,0.0001610711958589895
-0.4800338683708105,-0.4800338683708105,0.9996846779934472,0.0001634676400326746
-0.47990674118773313,-0.47990674118773313,1.0000262956313266,0.00016312477658868486
-0.47968957292614506,-0.47968957292614506,1.0000507169201032,0.00016177984655540143
-0.4795921124547021,-0.4795921124547021,1.0001072232543693,0.00016270941582720023
-0.47930711892840916,-0.47930711892840916,1.0001094707038176,0.00016350177333274932
-0.4789403297487297,-0.4789403297487297,1.000018713595709,0.00016485087043034138
-0.4786515706466162,-0.4786515706466162,0.999750912126012,0.00016582490986094631
-0.47852443291048985,-0.47852443291048985,0.9998279057583985,0.0001593722018490624
-0.4783441067454987,-0.4783441067454987,0.999886349194812,0.00016376719463454583
-0.47822489389509426,-0.47822489389509426,0.9999141923299139,0.0001655024075628134
-0.47814268081565386,-0.47814268081565386,1.000076552092761,0.0001588276756489666
-0.47795046492828985,-0.47795046492828985,1.0000016623047294,0.00016677002198241394
-0.4778416791261407,-0.4778416791261407,0.9998217413277487,0.00016096319223841095
-0.477628447364259,-0.477628447364259,0.9999860098694511,0.00016265648525244666
-0.47745411551441064,-0.47745411551441064,0.9998556319732232,0.00016389577456434886
-0.4772739402411389,-0.4772739402411389,1.0001593005254688,0.0001612709622413514
-0.477201011555735,-0.477201011555735,1.0002415426843072,0.0001616904886074971
-0.4768712620658334,-0.4768712620658334,1.0000966214601439,0.00016342917813337224
-0.4765994201618014,-0.4765994201618014,1.0002756143732263,0.00016165649324451632
-0.4764893203944666,-0.4764893203944666,0.9999293541836473,0.00016713267948888832
-0.4763092545719701,-0.4763092545719701,1.000305922447698,0.00016279015048892455
-0.4761530085466802,-0.4761530085466802,0.9998924920629981,0.00016586037896090404
-0.47604091322573366,-0.47604091322573366,1.0002041015497418,0.00016169973590318253
-0.47584514085174306,-0.47584514085174306,0.9998987433388805,0.00016615643781942344
-0.47565941966167885,-0.47565941966167885,1.0000488753969798,0.0001619869077639668
-0.47550300177535976,-0.47550300177535976,1.0001071146126086,0.00016180150330125095
-0.47538777932932136,-0.47538777932932136,1.0000170566051487,0.00016377242298589665
-0.4751748546565068,-0.4751748546565068,0.9999304794263401,0.00016101450592837982
-0.4749999396895873,-0.4749999396895873,0.99996857102176,0.00016101937726278854
-0.47477063243568407,-0.47477063243568407,1.0000408454203031,0.00016339959019583692
-0.47451749926112824,-0.47451749926112824,1.0001283179490779,0.00016438215792753707
-0.4743693889162387,-0.4743693889162387,1.0001772898936157,0.00016275346637466064
-0.4741815038578352,-0.4741815038578352,0.9997508762403562,0.00016479069233612484
-0.47407830015727087,-0.47407830015727087,1.0004221230293169,0.00016459131847186776
-0.47397830554982645,-0.47397830554982645,0.999879890082411,0.0001603446557578532
-0.4738499849307118,-0.4738499849307118,0.9999497841099403,0.00016271434277832932
-0.47373730900580996,-0.47373730900580996,1.0000957320110604,0.00016608518117533483
-0.47361389351426625,-0.47361389351426625,0.999806820390611,0.00016164974531927817
-0.4734266194369411,-0.4734266194369411,0.9999100709181977,0.00016181479885613595
-0.47315960625128356,-0.47315960625128356,0.9998795903805366,0.0001600056106759292
-0.4729926937870914,-0.4729926937870914,1.0001125300734572,0.0001644935088536532
-0.47272783762164183,-0.47272783762164183,1.0001964136370975,0.0001633830547780807
-0.4724913975718664,-0.4724913975718664,0.9998218097465019,0.00016296594144915517
-0.47233450373460073,-0.47233450373460073,0.999983573592772,0.00016412510179913883
-0.472227612118877,-0.472227612118877,1.0001015690762698,0.0001638071623533197
-0.47207700577710054,-0.47207700577710054,0.9998577194147865,0.00015790363659090592
-0.4719504116292228,-0.4719504116292228,0.9998497084935206,0.00016366633477941998
-0.471786079199228,-0.471786079199228,0.9997773531539262,0.00015829705036198382
-0.47164991881145396,-0.47164991881145396,0.9996517736430997,0.00016296682194246205
-0.4715384136346984,-0.4715384136346984,0.9999158946699526,0.00016258218193206776
-0.47129823616705835,-0.47129823616705835,0.9998327056946061,0.00016435849090170235
-0.4710533967343508,-0.4710533967343508,1.0002570183853718,0.00016127246377851324
-0.4708370275198831,-0.4708370275198831,1.0001431148099889,0.0001628132015480764
-0.4704673305066535,-0.4704673305066535,1.0001170128945693,0.00016206440497334526
-0.4702953436673852,-0.4702953436673852,0.9999809168656245,0.0001624873338554237
-0.47018245694198413,-0.47018245694198413,1.0002893688651848,0.0001642621847416176
-0.4700037101196358,-0.4700037101196358,1.0001144892603295,0.00015968851460879428
-0.4698679086417542,-0.4698679086417542,0.9999386439704363,0.00016353406991644507
-0.4697635790595086,-0.4697635790595086,1.0003481470670956,0.00016303704143812647
-0.4696008369282936,-0.4696008369282936,0.9999132959276629,0.00015736727129911664
-0.4694471397509915,-0.4694471397509915,1.0000676292730986,0.0001652646041770895
-0.4692382417968474,-0.4692382417968474,1.0000549323207795,0.00016105279412277848
-0.4691373985318933,-0.4691373985318933,0.9997554362723241,0.0001623533114847093
-0.4688749461172847,-0.4688749461172847,0.9995008659995547,0.00016249584987594097
-0.4686513557753642,-0.4686513557753642,0.9999519981609367,0.00016165896305331514
-0.468381055854843,-0.468381055854843,1.0000337238992574,0.00016206699559482177
-0.4681807841654518,-0.4681807841654518,1.000128657143072,0.00016192473168411713
-0.4680796332366299,-0.4680796332366299,0.9999094047379072,0.00016251223073785297
-0.4679641622336931,-0.4679641622336931,1.0002668844299885,0.00016030030418032613
-0.4678135773356189,-0.4678135773356189,0.9998829696738369,0.00016211265109835688
-0.4677401467401069,-0.4677401467401069,0.9997192143118401,0.0001648133713516144
-0.467622993203986,-0.467622993203986,1.000351670560042,0.0001587809651332148
-0.4674141797077027,-0.4674141797077027,0.9999864728923358,0.00016410694534280533
-0.46718520877766423,-0.46718520877766423,1.0000549497980133,0.00015937676198218395
-0.46709197423333537,-0.46709197423333537,0.9998706828868622,0.00016697462475144276
-0.46694240114738933,-0.46694240114738933,1.0000260916159238,0.00016100423858050165
-0.4667917200844386,-0.4667917200844386,1.0000139251360163,0.0001629898658183698
-0.46664836639829443,-0.46664836639829443,1.0001233775792104,0.00016496468361151812
-0.46651763339323227,-0.46651763339323227,0.9999645626781142,0.0001613282891109377
-0.4662878843897488,-0.4662878843897488,1.0000940701581396,0.00016336757791052096
-0.46612024553032827,-0.46612024553032827,1.0000602958782534,0.000160897546082877
-0.46601256894064136,-0.46601256894064136,0.9999627488502995,0.00016214773067490916
-0.4659459245347534,-0.4659459245347534,0.9998177292920507,0.000165235940878856
-0.4657914617229835,-0.4657914617229835,1.000024022419324,0.00016044497955727512
-0.46569215648778484,-0.46569215648778484,1.0002258467668483,0.00015998176298002778
-0.4656236183916917,-0.4656236183916917,0.9999373582903572,0.0001635866694683553
-0.46544568474491826,-0.46544568474491826,0.9998828312696322,0.00015953608728376864
-0.4652753324029618,-0.4652753324029618,0.9998019515328288,0.00016645304026780783
-0.46507329637679506,-0.46507329637679506,1.0000708833012124,0.00016204019038691916
-0.46498594315198716,-0.46498594315198716,1.0003250544266424,0.0001623561608370232
-0.4648540562702692,-0.4648540562702692,0.9999645921628414,0.00016415909636947624
-0.4646273433667375,-0.4646273433667375,0.9998110168833086,0.00016393891326920985
-0.46449392941140105,-0.46449392941140105,1.0000408378419157,0.00016285054621029761
-0.4643841341137886,-0.4643841341137886,0.9999625730752687,0.00016176963617912254
-0.4641773977680714,-0.4641773977680714,1.000106691952253,0.00016183389704579274
-0.46401348546351073,-0.46401348546351073,1.0001185670371666,0.00016438274435238672
-0.4639351845442434,-0.4639351845442434,0.9999011761641519,0.00016012348315510346
-0.46388684162520805,-0.46388684162520805,0.9997347003082627,0.00016046668241301824
-0.46380211480136496,-0.46380211480136496,0.9999011043329882,0.00016599358821132174
-0.4636417844623793,-0.4636417844623793,0.9999328298903196,0.00015998419152304211
-0.4635395972931292,-0.4635395972931292,0.9997364493255892,0.00016054299584637805
-0.46342939404130445,-0.46342939404130445,0.999901147732337,0.00016096001780788763
-0.46322273536934516,-0.46322273536934516,1.0001002938278192,0.00016302965699846074
-0.46299645145772955,-0.46299645145772955,0.9998528236813836,0.0001626214158834562
-0.46292978734418283,-0.46292978734418283,0.9996803071045971,0.0001622769609471258
-0.4626686459509074,-0.4626686459509074,0.9998434240709771,0.0001648353499060738
-0.4624458914273418,-0.4624458914273418,1.0000864465877426,0.00016403066356842044
-0.46225097077694954,-0.46225097077694954,1.000185582246032,0.00016306958747762574
-0.46205464076338104,-0.46205464076338104,1.0002013452393377,0.00016077052535563082
-0.46191258815379116,-0.46191258815379116,1.0001674385203343,0.00016378669387046528
-0.4618171481808531,-0.4618171481808531,0.9998260031526163,0.00016067801639147347
-0.46172036675270645,-0.46172036675270645,0.9999532539103513,0.0001684757249480016
-0.46158304178970866,-0.46158304178970866,1.000089654650591,0.0001612952485854805
-0.4614748211359256,-0.4614748211359256,0.9997242982749329,0.00016679201446933756
-0.4612421672063647,-0.4612421672063647,1.0000987226118774,0.00016323233877680893
-0.4609945450691157,-0.4609945450691157,0.999829690747663,0.00016317144510393804
-0.4608667613603757,-0.4608667613603757,1.0000934006908815,0.0001614759077232731
-0.4606665385319502,-0.4606665385319502,1.000250304939681,0.00016171833671470615
-0.4604452424260671,-0.4604452424260671,0.9998672587999916,0.00016372340518771897
-0.4602747459153761,-0.4602747459153761,1.0002137900227708,0.00016244470718845323
-0.4601120950479526,-0.4601120950479526,0.9999076531995374,0.0001639026299708528
-0.45991410835122226,-0.45991410835122226,1.0000179155200937,0.00015827614090119655
-0.4597925069363555,-0.4597925069363555,1.0003559618608366,0.00016096218584931346
-0.4596800558414543,-0.4596800558414543,0.9999547615246367,0.0001664091506876143
-0.4595386639644857,-0.4595386639644857,0.999971887129516,0.00016420192804475795
