time,time,flux,flux_err
-0.4998937437783752,-0.4998937437783752,1.00001002634151,6.081738723428959e-05
-0.49972083662432853,-0.49972083662432853,0.9999849237826052,6.103780972421936e-05
-0.49958323845858105,-0.49958323845858105,1.0000624087859267,6.111307789592399e-05
-0.49950182227839834,-0.49950182227839834,1.0000192536669446,6.024242798651016e-05
-0.4993719073936518,-0.4993719073936518,0.999952483855993,6.141264407093909e-05
-0.49915094389070874,-0.49915094389070874,0.9998910876251937,6.02130654053587e-05
-0.4990154865292425,-0.4990154865292425,0.9999220834159901,6.0814679301935826e-05
-0.4989568705444981,-0.4989568705444981,1.0000933925006523,6.146809529833703e-05
-0.4987367867659486,-0.4987367867659486,1.000087574879729,6.235220327985165e-05
-0.4985452240369341,-0.4985452240369341,1.000050771183255,6.053977714908876e-05
-0.49835747763863764,-0.49835747763863764,1.0000042007192504,6.0885878540841236e-05
-0.4981723843360669,-0.4981723843360669,1.0000074659074738,6.080374766964656e-05
-0.4980969116819324,-0.4980969116819324,0.9999471750522906,6.098348880791546e-05
-0.4980190857393609,-0.4980190857393609,1.0000203632283036,6.154409283286862e-05
-0.4979128817212768,-0.4979128817212768,0.9999513990719432,6.132467125950066e-05
-0.4977386200662295,-0.4977386200662295,1.0000382265084418,6.036479279073688e-05
-0.49751353075844235,-0.49751353075844235,1.000013318172744,6.603204275586305e-05
-0.49744819319676026,-0.49744819319676026,0.9999914516408381,6.0057058879513106e-05
-0.49736390420002863,-0.49736390420002863,0.9999795643659288,6.100946213206345e-05
-0.4971846695407294,-0.4971846695407294,1.0000350261572977,6.154974892563641e-05
-0.4969901330558059,-0.4969901330558059,0.9999653778160932,6.080816542861628e-05
-0.49688836148998233,-0.49688836148998233,1.0000712517758639,6.0485588578237365e-05
-0.4967849655171449,-0.4967849655171449,0.9999503226660001,6.155123470175968e-05
-0.49670282458901055,-0.49670282458901055,0.9998953379412525,6.10528821249665e-05
-0.49660361679561904,-0.49660361679561904,0.9999674052482785,6.351521349291438e-05
-0.4965193629366695,-0.4965193629366695,0.9999659938583774,6.037941931259043e-05
-0.4963212517926877,-0.4963212517926877,1.0000642187416933,6.062261902382438e-05
-0.49613703555514804,-0.49613703555514804,0.9999017166063272,6.169357084228613e-05
-0.49603826083039165,-0.49603826083039165,0.9999736956423984,6.115274936551555e-05
-0.49595136939169604,-0.49595136939169604,1.0000285453470699,6.094037799289154e-05
-0.49585557727405105,-0.49585557727405105,0.9999814439074118,6.119681204726296e-05
-0.4956744107767008,-0.4956744107767008,0.9999412909605283,6.180341935122238e-05
-0.49547593122479155,-0.49547593122479155,0.9999864425419236,6.13578165513229e-05
-0.4952804312146327,-0.4952804312146327,0.9999889467467066,6.0747016620895286e-05
-0.49515256402810337,-0.49515256402810337,1.0000073211987601,5.9980279471187354e-05
-0.49507401398950607,-0.49507401398950607,0.9999780350070742,6.168695815401116e-05
-0.4949026997492183,-0.4949026997492183,1.0000975269793209,6.104250919576414e-05
-0.4948018415241677,-0.4948018415241677,0.9999214065247781,6.028058046184093e-05
-0.4947357496144832,-0.4947357496144832,1.0000633575748457,6.122406797619005e-05
-0.49458056726216454,-0.49458056726216454,1.0001834133877452,6.03688489962244e-05
-0.4943288817856228,-0.4943288817856228,1.0000425049483659,6.0996515763932095e-05
-0.49420049620966894,-0.49420049620966894,1.00005757985391,6.134573362379616e-05
-0.49409155604589616,-0.49409155604589616,0.9998405904247416,6.082033963037539e-05
-0.4939987280893547,-0.4939987280893547,0.9999271712958112,6.201078793551474e-05
-0.49390386626691907,-0.49390386626691907,0.9999069916414502,6.037244866820496e-05
-0.49369377528564656,-0.49369377528564656,0.9999844702542445,6.12886926803756e-05
-0.493465635550092,-0.493465635550092,0.9999791917423024,6.172542459927587e-05
-0.4933710998215247,-0.4933710998215247,1.0000203734341455,6.162149584862568e-05
-0.4932970540903625,-0.4932970540903625,1.0000401783976,6.093328292223816e-05
-0.4931904932542238,-0.4931904932542238,1.000058260038807,6.0962087043461337e-05
-0.49301073304086457,-0.49301073304086457,1.0001067810659792,6.119765589271875e-05
-0.492889476811979,-0.492889476811979,0.9999632323035245,6.296299997357802e-05
-0.4927670712546387,-0.4927670712546387,0.9998050879297959,6.081657586183772e-05
-0.492575946427678,-0.492575946427678,1.0000284908735597,6.0859737884985916e-05
-0.4923163603962166,-0.4923163603962166,1.0001200537590658,6.111746341764426e-05
-0.49218996985582636,-0.49218996985582636,1.0000146758238153,6.082362047722105e-05
-0.4920250213930558,-0.4920250213930558,1.0000140204092045,6.0943391338256386e-05
-0.49180515938351166,-0.49180515938351166,0.9999703896941285,6.029963681759864e-05
-0.4917188706618617,-0.4917188706618617,1.0000120647505555,6.17966626978648e-05
-0.4916140015448036,-0.4916140015448036,1.0000901693548854,6.135781609973799e-05
-0.49136105622092147,-0.49136105622092147,0.9999100485744007,6.131702048563406e-05
-0.49121610315924047,-0.49121610315924047,0.9999581623373774,6.0613136984956185e-05
-0.49095092383940936,-0.49095092383940936,1.0000974248167906,6.0630447147891224e-05
-0.49086678953390217,-0.49086678953390217,0.9999492520144697,6.0914895857821363e-05
-0.49077146455529147,-0.49077146455529147,1.0000044608100471,6.140007065515024e-05
-0.4906971267162589,-0.4906971267162589,1.0000622846048706,6.155039209518219e-05
-0.49051665161459823,-0.49051665161459823,0.9999821758618264,6.039919117831888e-05
-0.4902814823122753,-0.4902814823122753,0.9998097869324631,6.0569226945457566e-05
-0.4901842835846765,-0.4901842835846765,0.9998967710660203,6.443461270862093e-05
-0.4900954011543945,-0.4900954011543945,1.0000575963702905,6.04989538754552e-05
-0.48993583256524287,-0.48993583256524287,0.9999984513099065,6.113283770410283e-05
-0.4896452987028169,-0.4896452987028169,0.9999525735205543,6.099777585209285e-05
-0.48957143107545564,-0.48957143107545564,1.0000259323075231,6.188810255473569e-05
-0.48944456076060305,-0.48944456076060305,1.0000394396938204,6.073193787415626e-05
-0.4893588027865917,-0.4893588027865917,1.000018444711344,6.428853964759169e-05
-0.48926561131011115,-0.48926561131011115,0.9999821422313533,6.0451390165987945e-05
-0.48904197692027085,-0.48904197692027085,1.0000846056726784,6.135527702061322e-05
-0.4888889437104808,-0.4888889437104808,0.999988182952448,6.18216155094604e-05
-0.4887657960876822,-0.4887657960876822,1.000069026060991,6.097135640409816e-05
-0.48865296202639,-0.48865296202639,0.9999732269573052,6.148394140388992e-05
-0.4885701442079153,-0.4885701442079153,0.999946446397655,6.0995995497085984e-05
-0.488400760829245,-0.488400760829245,1.0000622515644597,5.977634261350418e-05
-0.4882757260063954,-0.4882757260063954,0.9999404497396494,6.095139141889108e-05
-0.48811863676746725,-0.48811863676746725,1.0001390709378861,6.192794364914875e-05
-0.4879522079630988,-0.4879522079630988,0.999897237306939,5.987956785733109e-05
-0.4878722118359292,-0.4878722118359292,1.000172694556244,5.9785333436398905e-05
-0.4877588140909211,-0.4877588140909211,1.0000343292716873,6.089471339389007e-05
-0.48754714242895714,-0.48754714242895714,1.0000358886155218,6.080769096197159e-05
-0.4874713916586188,-0.4874713916586188,0.9999689820840697,6.0748030770105236e-05
-0.4873833314224612,-0.4873833314224612,1.000011737555282,6.067695870403849e-05
-0.4872195313721022,-0.4872195313721022,1.0000587794362064,6.016624857212759e-05
-0.48700869741660424,-0.48700869741660424,1.000002285991976,6.050009782141635e-05
-0.4869322967926564,-0.4869322967926564,0.9999550200530003,6.178083981885759e-05
-0.4868203815203742,-0.4868203815203742,0.9999455717583675,6.03558813407039e-05
-0.4867389877523237,-0.4867389877523237,0.9998698934809583,6.193955447531206e-05
-0.4866622743065818,-0.4866622743065818,0.9999695624090821,6.070502725163541e-05
-0.48653592542832486,-0.48653592542832486,0.9999890339083727,6.064102030092841e-05
-0.48632488739822294,-0.48632488739822294,0.9999915090581629,6.04183849256749e-05
-0.48617397042471566,-0.48617397042471566,1.0001356147412024,6.181624451671324e-05
-0.4860782257201208,-0.4860782257201208,0.9999585278574189,6.169109998375554e-05
-0.4859820708748884,-0.4859820708748884,0.9999403240914733,6.12207982466709e-05
-0.48582291940329014,-0.48582291940329014,1.000124692261774,6.10441273013761e-05
-0.48565193534159334,-0.48565193534159334,1.0000364067360337,6.0552392816750785e-05
-0.4855234474023746,-0.4855234474023746,1.0000487906085467,6.0651979459063984e-05
-0.48534869735667596,-0.48534869735667596,0.9999410814327815,6.104258371476224e-05
-0.48512691261130386,-0.48512691261130386,1.0000662511618779,6.090806541727489e-05
-0.4849717729703116,-0.4849717729703116,1.0000655681284663,6.0713837432723284e-05
-0.48482116493250943,-0.48482116493250943,0.999993360729564,6.141906162012543e-05
-0.4847020812667324,-0.4847020812667324,0.999963405274648,5.9906487563551956e-05
-0.4845016571656743,-0.4845016571656743,1.0000308824292796,6.149805922543524e-05
-0.4844141667243093,-0.4844141667243093,0.9999570517558055,6.105791832932108e-05
-0.4843091402202845,-0.4843091402202845,0.9999388832507462,6.341858444576305e-05
-0.48417910431162453,-0.48417910431162453,1.0000576421340053,6.149171237882542e-05
-0.48402129604146465,-0.48402129604146465,0.9998763848711348,6.061876517645896e-05
-0.48385783387711856,-0.48385783387711856,1.0000783602744039,6.0991724065945316e-05
-0.48367802614156974,-0.48367802614156974,0.9999814804330667,6.0162242105409286e-05
-0.4835726808909385,-0.4835726808909385,0.9999998135370424,6.099440836559437e-05
-0.483484026210499,-0.483484026210499,0.9999415528840352,6.108093101686014e-05
-0.48340782848972597,-0.48340782848972597,0.9999953063097102,6.162060955306141e-05
-0.483259915302915,-0.483259915302915,1.0001012864756011,6.0659382895270465e-05
-0.48314978720300134,-0.48314978720300134,0.9999954071192121,6.077720033388429e-05
-0.48299547712886126,-0.48299547712886126,0.9999159236392199,6.011616384540339e-05
-0.48291125940158963,-0.48291125940158963,0.9999058810449883,6.290744333539166e-05
-0.48281852729269303,-0.48281852729269303,1.0000508344761723,6.0448498801614075e-05
-0.48268665030336705,-0.48268665030336705,0.999974444252735,6.095040091037479e-05
-0.4824372315015353,-0.4824372315015353,1.0000715808046308,6.0558197445116875e-05
-0.4823488790563715,-0.4823488790563715,1.0000267331639399,6.120965376750135e-05
-0.4822220774978632,-0.4822220774978632,0.9998967653659927,6.20336240040828e-05
-0.4821595677254663,-0.4821595677254663,1.0000874496583658,6.106246389945319e-05
-0.48207568505677045,-0.48207568505677045,1.0001132698194333,6.40951271455553e-05
-0.4819532959896605,-0.4819532959896605,1.0000795309308728,6.036395961371105e-05
-0.48174320048638036,-0.48174320048638036,1.0000150272854023,6.113688801381994e-05
-0.4815879828180186,-0.4815879828180186,0.9999791944007141,6.14827460168024e-05
-0.4814640893848264,-0.4814640893848264,1.0000636275918626,6.0998787806003234e-05
-0.481357292435132,-0.481357292435132,1.0000765665150375,6.172504772018278e-05
-0.48122954198188383,-0.48122954198188383,1.000059725957724,6.010960088659263e-05
-0.4810999736029771,-0.4810999736029771,0.999929248692226,5.989754014918082e-05
-0.48097760763630504,-0.48097760763630504,0.9999294963817749,6.171999601624598e-05
-0.48083856621015003,-0.48083856621015003,0.9999026310903474,6.209338897732697e-05
-0.4806183914988651,-0.4806183914988651,0.9999983931721739,5.980572122089537e-05
-0.48049865120046886,-0.48049865120046886,0.9999718180452384,6.097345749664848e-05
-0.48032118350311065,-0.48032118350311065,1.0000574607513415,6.21678543293585e-05
-0.48022726160343154,-0.48022726160343154,1.0001360207969987,6.048088300820596e-05
-0.4801475344771461,-0.4801475344771461,0.999956985940688,6.106959948943529e-05
-0.48000955319803323,-0.48000955319803323,0.9999994263124581,5.993568457550371e-05
-0.4797968745602702,-0.4797968745602702,1.0000836053957434,6.085685082813183e-05
-0.4796606837102445,-0.4796606837102445,1.0000652144352975,6.186059132185642e-05
-0.479560167609452,-0.479560167609452,0.999890507078794,6.0532655368040296e-05
-0.4794770156033337,-0.4794770156033337,1.0000488410740151,6.138984119225621e-05
-0.4794073954479245,-0.4794073954479245,0.9999870651491598,6.125881569839686e-05
-0.4792680654914875,-0.4792680654914875,1.0000184851892162,6.117197945505824e-05
-0.4790753971639788,-0.4790753971639788,0.9999660421358009,6.070817991742002e-05
-0.47892367818494674,-0.47892367818494674,0.9999847495851052,6.192231471608857e-05
-0.478838549216016,-0.478838549216016,1.0000280984003416,6.133071956224449e-05
-0.47875938590732403,-0.47875938590732403,1.0000873095304552,6.121128289530246e-05
-0.4786869186566037,-0.4786869186566037,0.9999003662942645,6.088015654048082e-05
-0.4785071174002951,-0.4785071174002951,1.0000615923490157,6.120676080855501e-05
-0.47838068970741005,-0.47838068970741005,0.9999104864126893,6.033280278884116e-05
-0.47822367514309005,-0.47822367514309005,0.9998967239234439,6.0820421468204674e-05
-0.47804442519700385,-0.47804442519700385,1.0000047160592733,6.043069109386098e-05
-0.47789173603086965,-0.47789173603086965,1.0001252817669513,6.107729959565468e-05
-0.4777213750261581,-0.4777213750261581,1.0000645357914213,6.066797296741052e-05
-0.4776198994492006,-0.4776198994492006,1.0001134322049723,6.075141028850207e-05
-0.47750682108162434,-0.47750682108162434,1.0000190436316898,6.0888105057175826e-05
-0.47732311746003686,-0.47732311746003686,0.9998852443592698,6.126839577606945e-05
-0.4771433156929561,-0.4771433156929561,1.0000641536746318,6.191592958119049e-05
-0.47700448589021105,-0.47700448589021105,1.0000216034693115,6.251316592153904e-05
-0.476796407988877,-0.476796407988877,1.0000320642397793,6.038610891389447e-05
-0.47670618781558005,-0.47670618781558005,1.0000075574939142,6.091101997151559e-05
-0.47653109199600296,-0.47653109199600296,1.0000151021274677,6.045809001510447e-05
-0.4764082071364101,-0.4764082071364101,0.9999774591918538,6.083430346767226e-05
-0.4762771667126799,-0.4762771667126799,1.000041182720593,6.098925225527874e-05
-0.4761908086766198,-0.4761908086766198,0.9999742135750624,6.19293763740601e-05
-0.47604724941265886,-0.47604724941265886,1.0000420941571255,6.086871174081234e-05
-0.4758997172859381,-0.4758997172859381,0.9999734196784166,6.062639317140808e-05
-0.4757975260203239,-0.4757975260203239,0.9999886808061357,6.004220200572323e-05
-0.4756836207161541,-0.4756836207161541,1.0000237026193355,6.196157494989291e-05
-0.4756201677475474,-0.4756201677475474,1.0000217266647176,6.187725893868205e-05
-0.47556195073266283,-0.47556195073266283,1.0001196046205958,6.014483711092702e-05
-0.4754525889227807,-0.4754525889227807,0.9998956935733709,6.128910754086222e-05
-0.47522674861611447,-0.47522674861611447,1.0000741832621463,6.073158482208528e-05
-0.4751084239374904,-0.4751084239374904,1.0000705348111656,6.057551071447872e-05
-0.4750052270719607,-0.4750052270719607,0.9999875094094225,6.260708159128938e-05
-0.4749051903359941,-0.4749051903359941,0.999955814824529,6.095988167670584e-05
-0.4748226754330972,-0.4748226754330972,1.000010821897512,6.436725108017498e-05
-0.47472705054460673,-0.47472705054460673,0.9998354578189763,6.053752254616063e-05
-0.47458447396056724,-0.47458447396056724,1.0000649047533439,5.988990957818619e-05
-0.4744259678853268,-0.4744259678853268,0.999960388300736,6.158025074954548e-05
-0.47427951491918063,-0.47427951491918063,0.9999427766699013,6.084678203826671e-05
-0.4741398309175565,-0.4741398309175565,1.0000997051092717,6.149803535197697e-05
-0.47405935538554334,-0.47405935538554334,1.000104954735754,6.12154985534891e-05
-0.47390406279591846,-0.47390406279591846,0.9999536199968005,6.010625689452027e-05
-0.47376993213038077,-0.47376993213038077,0.9999388458737712,6.043104202381848e-05
-0.4736453581375827,-0.4736453581375827,1.0000305898430175,6.177026669070707e-05
-0.4734863556805067,-0.4734863556805067,0.9999929781123317,6.309793879173251e-05
-0.4733489142476174,-0.4733489142476174,0.9999252385335978,5.9770972632968766e-05
-0.4732246720093826,-0.4732246720093826,1.0000665195258167,6.0973643873473175e-05
-0.47302912471277525,-0.47302912471277525,1.0000904829534973,5.994001079763614e-05
-0.4729363997030305,-0.4729363997030305,0.9999088336080728,6.0832010368587746e-05
-0.4728628444237984,-0.4728628444237984,1.000028367068867,6.0983794577576047e-05
-0.4727187070384389,-0.4727187070384389,0.9999791069636632,5.973714058004689e-05
-0.47252772944339083,-0.47252772944339083,1.0000711126602106,6.085349514830085e-05
-0.47238908239087324,-0.47238908239087324,0.9999702777910899,6.197467018156514e-05
-0.47229391016662703,-0.47229391016662703,0.9999164639302448,6.054308933207109e-05
-0.4721963622541807,-0.4721963622541807,1.0000168286227862,6.148575055753737e-05
-0.47213253877926037,-0.47213253877926037,0.9999481003675592,6.171984306602958e-05
-0.4720142868362018,-0.4720142868362018,0.9999697305937627,6.107877486444003e-05
-0.47180698362644763,-0.47180698362644763,1.0000667555767861,6.108269471572342e-05
-0.47162487258465263,-0.47162487258465263,1.0000330094724377,6.151833587552497e-05
-0.47152803321150716,-0.47152803321150716,1.0000318535606223,6.173988983526497e-05
-0.4714646923566761,-0.4714646923566761,1.0000132404332032,6.098042894470666e-05
-0.47136240713807637,-0.47136240713807637,0.9999298989196337,6.062003570892967e-05
-0.4711611700571666,-0.4711611700571666,0.9999855628323757,6.124205645881943e-05
-0.47095629409013784,-0.47095629409013784,0.9999965292151357,6.10838680418182e-05
-0.47083581697879706,-0.47083581697879706,1.0000715434606913,6.1433638880763e-05
-0.47066733302126523,-0.47066733302126523,1.0000795117406014,6.1027464687224853e-05
-0.4704483494446322,-0.4704483494446322,1.0000911530420449,6.069095535210147e-05
-0.4703224172524642,-0.4703224172524642,1.0000532169810679,6.064468434477673e-05
-0.47022592300199906,-0.47022592300199906,0.9999641926664038,6.199348516618461e-05
-0.470116432535724,-0.470116432535724,0.9999869786500449,5.978057517682551e-05
-0.4699482578296738,-0.4699482578296738,0.9999648047077162,6.201663005134006e-05
-0.46985807229648346,-0.46985807229648346,0.9999124925126719,6.165120897566792e-05
-0.4696464559761807,-0.4696464559761807,1.00009293048343,6.289557717706299e-05
-0.46952064690412953,-0.46952064690412953,0.9999315427729396,6.064449134893005e-05
-0.4694087199990463,-0.4694087199990463,1.0000425770971024,6.088495499276031e-05
-0.4692048854783934,-0.4692048854783934,0.999906323639267,6.046030616600676e-05
-0.4690655722792144,-0.4690655722792144,1.0000382186886394,6.0625141857187695e-05
-0.4689488852010982,-0.4689488852010982,0.9998963664626525,6.154645346090893e-05
-0.46885020728223026,-0.46885020728223026,0.9999639793880446,6.178512804067258e-05
-0.4686814303437131,-0.4686814303437131,1.0000421151063505,6.022309116775085e-05
-0.46852815410966286,-0.46852815410966286,1.0000110200401748,6.049683166214027e-05
-0.4683947844860086,-0.4683947844860086,0.9999787246426128,6.025086034183773e-05
-0.46830563286566756,-0.46830563286566756,0.9999956256757851,6.0894673755720855e-05
-0.4682265289862698,-0.4682265289862698,0.999888022981691,6.112571993961694e-05
-0.4679698620486306,-0.4679698620486306,0.9998565259319271,6.094623516125697e-05
-0.46784520065775725,-0.46784520065775725,0.9999817994593823,6.103847284209868e-05
-0.46767451777122915,-0.46767451777122915,0.9999190680495051,6.14604558314198e-05
-0.467568463866337,-0.467568463866337,0.9999949129005203,6.464569407712545e-05
-0.46749108329531736,-0.46749108329531736,0.9999843337703208,6.0225911684970925e-05
-0.46733770651189843,-0.46733770651189843,0.999979562564263,6.027206605547042e-05
-0.4672132643732766,-0.4672132643732766,1.000033331579011,6.04231531527833e-05
-0.46710490938057775,-0.46710490938057775,0.9999971872253036,6.05581556134727e-05
-0.46694880652503346,-0.46694880652503346,0.9999064441343248,6.22072327730103e-05
-0.4668442765934742,-0.4668442765934742,0.9999415467513432,6.208811308893849e-05
