time,time,flux,flux_err
-0.4998994789517989,-0.4998994789517989,1.0000683749480361,0.0002461735399937944
-0.49971073807743477,-0.49971073807743477,0.9998566352464957,0.0002550275884464699
-0.4995777539348637,-0.4995777539348637,1.0000431224876398,0.00022083774388392412
-0.4995208693217137,-0.4995208693217137,0.9999321639059593,0.00021734814496238603
-0.49942939877219034,-0.49942939877219034,0.9999910542695716,0.000245738709638979
-0.49933294866859795,-0.49933294866859795,1.0002816855260663,0.0002374039362352199
-0.4991896845429437,-0.4991896845429437,1.0001274068981467,0.00022458259966957975
-0.49899790644922176,-0.49899790644922176,1.0000259162767162,0.0002284972041766991
-0.4988897498435108,-0.4988897498435108,1.000429599518188,0.00024407647751925805
-0.4988016333707492,-0.4988016333707492,0.9999439564269188,0.000228281720079839
-0.49861163276946174,-0.49861163276946174,1.0000400072027447,0.00023606367542530226
-0.49839931953756605,-0.49839931953756605,1.000062042845258,0.00023854242320117385
-0.4982142317872785,-0.4982142317872785,1.000283898254843,0.00022547199075351204
-0.49809680913967896,-0.49809680913967896,1.000253644462599,0.00022826287807282313
-0.49797139568108834,-0.49797139568108834,1.0001477555990583,0.0002191336008906849
-0.4978391274744354,-0.4978391274744354,1.0002301396202562,0.00022095505124027632
-0.49772763809887693,-0.49772763809887693,1.0001395965130098,0.00022446247679406558
-0.4976410201546969,-0.4976410201546969,1.0000178256995238,0.00021197017957272907
-0.4974940961401444,-0.4974940961401444,1.0001839083227053,0.00022317967011272177
-0.4973416898115829,-0.4973416898115829,0.9997974761703355,0.0002086184944569204
-0.49724327093426834,-0.49724327093426834,1.0000053228252193,0.00021230015824197116
-0.49709789144762906,-0.49709789144762906,1.00010658702243,0.0002255474941795072
-0.4970240427042881,-0.4970240427042881,1.0001160579214492,0.00023041800566353442
-0.4968994831840973,-0.4968994831840973,1.0002053118889758,0.00023586524220522276
-0.49675586884768563,-0.49675586884768563,0.999959163676067,0.00022248829819008966
-0.4966217701723508,-0.4966217701723508,1.000235181184029,0.0002271160708759745
-0.49655527597424226,-0.49655527597424226,0.999735095995106,0.0002196938014737945
-0.4964978960400913,-0.4964978960400913,0.9995101444137786,0.00021184628475219187
-0.4964295328783919,-0.4964295328783919,1.0000666143110595,0.00024701092709511886
-0.4963375899948005,-0.4963375899948005,1.0000923047422252,0.00023568696645780043
-0.49621987897262443,-0.49621987897262443,1.000134641384214,0.00023560713053150475
-0.49598567054417797,-0.49598567054417797,1.0000315645544167,0.00023144774340297462
-0.49586979890591465,-0.49586979890591465,1.0001750941670167,0.0002520248978856945
-0.4958130600287404,-0.4958130600287404,0.999874479005627,0.00023431040533272257
-0.49571498557706944,-0.49571498557706944,0.9995211518599472,0.00023706352888134825
-0.4955864841016592,-0.4955864841016592,1.0000638504964299,0.00022413399214266582
-0.49541929477491065,-0.49541929477491065,1.000040960996313,0.00022390784087751117
-0.49525629681011196,-0.49525629681011196,0.9998911167650606,0.00023330132311898642
-0.49518150949297707,-0.49518150949297707,0.9998986576852911,0.0002265675161205937
-0.49509027464082467,-0.49509027464082467,1.0002237136932783,0.00021487535135304858
-0.49497513579844965,-0.49497513579844965,0.999939886859386,0.00021351388029875436
-0.49485272557867577,-0.49485272557867577,0.9998568634318987,0.0002205489670337212
-0.4947234960069181,-0.4947234960069181,1.0002209583283919,0.00022661655170266043
-0.494639067845128,-0.494639067845128,1.0001575078008655,0.00021301522344425414
-0.4944816555842408,-0.4944816555842408,0.9998388722164023,0.0002236972028144219
-0.4943238113904954,-0.4943238113904954,1.0001605813886656,0.00021324222148645945
-0.4941853146214271,-0.4941853146214271,0.9997900242166222,0.00022224132848071802
-0.4940587309283728,-0.4940587309283728,0.9998570530543797,0.00021867808627115212
-0.494010925108887,-0.494010925108887,1.0000371663505803,0.00023939976284655505
-0.4938799700619711,-0.4938799700619711,0.9999299452405566,0.00022411536852022892
-0.4937467888797983,-0.4937467888797983,0.9997555924531966,0.0002262979341435171
-0.49360400773584845,-0.49360400773584845,1.0002556177405781,0.00022376034691175893
-0.4935393385923817,-0.4935393385923817,1.0003903873962936,0.00022211216907716164
-0.49343242045797525,-0.49343242045797525,0.9996476716660754,0.00023370527539012505
-0.4933279235214286,-0.4933279235214286,0.9998122527635239,0.0002239663976226125
-0.49319838545998207,-0.49319838545998207,0.9996474629004288,0.00023798312434281026
-0.4930188470054418,-0.4930188470054418,1.0001955584494273,0.00021804164257462508
-0.4928840509492147,-0.4928840509492147,1.000184553548546,0.00022731445538991257
-0.49278880243800816,-0.49278880243800816,1.0003203219477619,0.0002494475339355449
-0.49269796844819214,-0.49269796844819214,0.9998078527091279,0.00023699115534876796
-0.4925151565192209,-0.4925151565192209,0.9997917858675714,0.00022758712758179679
-0.49228679494335664,-0.49228679494335664,0.9998015560516166,0.00026419475308979326
-0.4922114474247792,-0.4922114474247792,1.0001431775607759,0.0002321526176206915
-0.4921524841578503,-0.4921524841578503,0.999907534421572,0.00021307026949508317
-0.4920446014242771,-0.4920446014242771,0.9999054260366294,0.00021684969687300412
-0.49192899217596275,-0.49192899217596275,1.0002840176777155,0.0002184346542897124
-0.4917875926686975,-0.4917875926686975,1.000140161856836,0.00021762739767346514
-0.4916867020969221,-0.4916867020969221,0.9998769015245872,0.0002227530242667198
-0.4915896794263972,-0.4915896794263972,0.999947616476802,0.00021407647233494218
-0.49144917103913033,-0.49144917103913033,1.0002426082692666,0.00021293631087686139
-0.4913706787789124,-0.4913706787789124,1.0000418530717832,0.00021349987376141183
-0.49126297406182856,-0.49126297406182856,0.9995868301799107,0.00020591378915510937
-0.49117219124309486,-0.49117219124309486,1.0001417572734197,0.00022152220100233453
-0.49108602940541457,-0.49108602940541457,0.9999847199898293,0.00021544568343420304
-0.4910003326367587,-0.4910003326367587,1.0001075783922928,0.00023863575987649325
-0.49085923940074283,-0.49085923940074283,0.9998620019959381,0.00024017849169369462
-0.49073471365700244,-0.49073471365700244,1.0002914630565398,0.00022648884220905852
-0.4906205091298034,-0.4906205091298034,0.9997126781903054,0.00022845804180882017
-0.4905744030904316,-0.4905744030904316,1.000064048421938,0.0002177618409376132
-0.490500344074826,-0.490500344074826,0.9999911065216505,0.00023406571812281332
-0.4904230775362521,-0.4904230775362521,1.0000195523984459,0.0002216652228360063
-0.49036141927790594,-0.49036141927790594,0.9997393045049903,0.00024838550131336083
-0.4902243322670984,-0.4902243322670984,0.9995789708889792,0.0002139892831158785
-0.49005542299055377,-0.49005542299055377,0.9999582009308933,0.00022534215663523572
-0.48993654623336624,-0.48993654623336624,1.00014459773358,0.00022802048816296204
-0.4898207595513668,-0.4898207595513668,0.9999796710048539,0.00023474886130323583
-0.48974740888079393,-0.48974740888079393,0.9999286712427631,0.00023225133841779617
-0.4896122068283148,-0.4896122068283148,0.9998278980483907,0.00024151035043736008
-0.4893866196871386,-0.4893866196871386,1.0002897494010674,0.0002374207451176293
-0.48922203781694407,-0.48922203781694407,1.000051513455116,0.00023709065066775348
-0.4891620147973299,-0.4891620147973299,1.000085027535008,0.00022179570540645674
-0.48902305637893734,-0.48902305637893734,1.0001625408554606,0.0002046517195263256
-0.488887938879634,-0.488887938879634,1.0000445399204563,0.00022134608041495858
-0.4887528076025774,-0.4887528076025774,0.9998934146382062,0.0002166960380596061
-0.488669921678229,-0.488669921678229,0.9999619457042044,0.00021610449617186561
-0.48857064295953023,-0.48857064295953023,1.0001369369773083,0.00021957109978279704
-0.4884655128364102,-0.4884655128364102,1.0001398211000532,0.00021266411444450148
-0.4883761200202571,-0.4883761200202571,1.0000714016996093,0.0002068827719883053
-0.48822490523671147,-0.48822490523671147,1.000033937528506,0.00022140970003333565
-0.4881187328719534,-0.4881187328719534,1.0001966373046502,0.00022415964210688405
-0.48800943688183906,-0.48800943688183906,1.0001381285732234,0.00023393405347331208
-0.487925088632619,-0.487925088632619,1.0000605567460918,0.00021943989216360242
-0.48777234357985433,-0.48777234357985433,0.9997431390476686,0.0002215674197474306
-0.48764438338403127,-0.48764438338403127,0.999858450975432,0.0002281790412146874
-0.4875828246847959,-0.4875828246847959,0.9999659724403891,0.00022363889899616147
-0.4874927535915049,-0.4874927535915049,0.9998158204752053,0.00023597793405675553
-0.4874179254897172,-0.4874179254897172,0.9999398031363717,0.00021951210483390975
-0.4873322789419035,-0.4873322789419035,1.0001166493689486,0.0002448051045221966
-0.4871695938752964,-0.4871695938752964,1.0000688429165348,0.00022807547092317649
-0.48703823039468264,-0.48703823039468264,1.0001925035524217,0.00021764720718157543
-0.4868311954662204,-0.4868311954662204,0.9996548238678672,0.0002471257744763462
-0.486765533380094,-0.486765533380094,1.0001717113425568,0.00022390644944056013
-0.48669371207943185,-0.48669371207943185,0.99970257995559,0.00022510311539588901
-0.4865732138212479,-0.4865732138212479,0.9999414905880422,0.00022383542175512467
-0.4863991866259312,-0.4863991866259312,0.9998190957558082,0.00023054529022333695
-0.4862928658752935,-0.4862928658752935,0.9997115014756055,0.0002469037030861428
-0.4861930529339588,-0.4861930529339588,1.0002147730928042,0.00023437948943501292
-0.4861492298383382,-0.4861492298383382,1.000296299439713,0.000216044611295509
-0.48598332387628035,-0.48598332387628035,1.0004541400213978,0.0002178418228659548
-0.48588873977496405,-0.48588873977496405,0.9999905237100458,0.00022256068529335847
-0.4857600908151653,-0.4857600908151653,0.999885473161747,0.00022135035328710415
-0.48563745261562874,-0.48563745261562874,1.0000191082967258,0.00020928551067482423
-0.4855216737953015,-0.4855216737953015,1.000018944199849,0.00022259337675566683
-0.4853902863294934,-0.4853902863294934,0.9999245127256271,0.00020852396461022187
-0.4852428512822371,-0.4852428512822371,1.0000256932719302,0.0002177516152184639
-0.4851328745149658,-0.4851328745149658,0.9998390838358722,0.00022724865202646303
-0.485016262789577,-0.485016262789577,0.9997378510268431,0.0002369961303477658
-0.48495258416369325,-0.48495258416369325,0.9998052464359889,0.00023014618358622538
-0.48485179764757047,-0.48485179764757047,0.9998585341009181,0.00022557211631637166
-0.48469328026330916,-0.48469328026330916,1.0000647718491495,0.00022921650589444767
-0.48462168215555723,-0.48462168215555723,1.000157850844563,0.00021156609034796145
-0.48456267300643957,-0.48456267300643957,0.9998656436090932,0.0002463416586335101
-0.48445832808938577,-0.48445832808938577,1.000011507684184,0.00021860683347788967
-0.48439400358329293,-0.48439400358329293,0.9997239833698499,0.00022931087621984038
-0.48431530939415096,-0.48431530939415096,0.9999220938399034,0.00024162305865640357
-0.4841713485584478,-0.4841713485584478,0.9999460855219798,0.0002374856155342903
-0.48404311978229086,-0.48404311978229086,0.9999225005045689,0.0002179034630182655
-0.48391732081508965,-0.48391732081508965,1.0001451881253798,0.0002782371709410859
-0.4837788232951425,-0.4837788232951425,0.9997680113163394,0.00022797877909453844
-0.4837410643864132,-0.4837410643864132,1.0000410585365835,0.0002596408778695547
-0.48366337872212173,-0.48366337872212173,1.0003516668402876,0.00023597566356784618
-0.4834725687025639,-0.4834725687025639,0.9999911342554475,0.00021385238981520057
-0.48331408722442576,-0.48331408722442576,0.9994888288948232,0.00026138932603218085
-0.4831770738477644,-0.4831770738477644,0.9999243147677378,0.00021981648565375756
-0.4830491999928199,-0.4830491999928199,0.9999413254101805,0.00022878571213904084
-0.4828728109423537,-0.4828728109423537,0.9999975371310658,0.0002242226741868747
-0.4827697096501652,-0.4827697096501652,1.0000825001093485,0.00021900441250055793
-0.48262129808063037,-0.48262129808063037,0.9999359159005541,0.0002123790213134925
-0.4825171708384005,-0.4825171708384005,1.000086035635522,0.00022310108757224323
-0.4823685345087142,-0.4823685345087142,0.9999811097680983,0.00021107609553529683
-0.4822123727906728,-0.4822123727906728,1.0001477486833554,0.00022553813253807552
-0.4821040252572857,-0.4821040252572857,0.999981534985672,0.0002132517957205091
-0.48201354334451024,-0.48201354334451024,0.9997089168658334,0.000243562081912888
-0.48195192157727434,-0.48195192157727434,0.9999378450381744,0.00022373315327105903
-0.4818547438910173,-0.4818547438910173,0.9998802999145949,0.0002137049288815581
-0.481763951729954,-0.481763951729954,1.0000877448915761,0.00022684365585377004
-0.4816641375873587,-0.4816641375873587,1.0000050538012162,0.00022088925085917343
-0.4816035613519489,-0.4816035613519489,1.0003399364147971,0.00023136975024522214
-0.481549466978322,-0.481549466978322,0.9998984600322418,0.00023921631554888533
-0.48142739724062267,-0.48142739724062267,0.999927043537889,0.0002319428992810418
-0.4812906131744967,-0.4812906131744967,1.0000589142525853,0.00024246505296911816
-0.4811274321415112,-0.4811274321415112,0.9998497530689743,0.00024058426787112362
-0.48099753553033225,-0.48099753553033225,0.9996482797772035,0.0002516206944295495
-0.4808572586371156,-0.4808572586371156,1.0001545414401072,0.00022380642893877301
-0.4807606901653344,-0.4807606901653344,0.9999901487542375,0.00022704251465636418
-0.4806811900001776,-0.4806811900001776,1.0001244145475665,0.00023421773646389982
-0.4805407676467439,-0.4805407676467439,1.0002927444923304,0.00021738462033794734
-0.48036216919135766,-0.48036216919135766,1.0000050014766633,0.00023339052549133237
-0.48026308430635256,-0.48026308430635256,1.0000289165892429,0.00023794029213969488
-0.48015741922790767,-0.48015741922790767,0.9999943770886277,0.00021086878320851634
-0.4800547450628073,-0.4800547450628073,1.0002801713186418,0.00023512741144843529
-0.4799122995980724,-0.4799122995980724,0.9998834296783461,0.00022107096620113299
-0.4797987282865506,-0.4797987282865506,0.9999457003751179,0.00022238798297538197
-0.479671893890918,-0.479671893890918,0.9999649243000921,0.00021631140632376924
-0.47955379506092866,-0.47955379506092866,0.9998601094400825,0.00022118797288302964
-0.47941188728291306,-0.47941188728291306,0.9999905212700465,0.000218403243049094
-0.4792682080413215,-0.4792682080413215,0.9999149910603522,0.00021297615804356766
-0.4791669764883409,-0.4791669764883409,0.9997997675926215,0.0002183806302098525
-0.479025906832976,-0.479025906832976,1.0002727854712599,0.00023472055010426984
-0.4789432528858015,-0.4789432528858015,0.9999090546900632,0.00022342930493978835
-0.4788322784894262,-0.4788322784894262,1.0000888413243918,0.00020887356475230408
-0.4787514863550314,-0.4787514863550314,1.000266301531608,0.00022817360033525343
-0.4786708571598865,-0.4786708571598865,1.0001278654022354,0.00021442207121004727
-0.47862190936430127,-0.47862190936430127,0.9997973650174273,0.00023801489185527907
-0.47859002847617377,-0.47859002847617377,1.0000600666091763,0.00023109814912484632
-0.4785043177311309,-0.4785043177311309,0.9996361511614849,0.0002272299692000389
-0.47838325433112916,-0.47838325433112916,0.9997400096740436,0.00024892033077993694
-0.4782320410580724,-0.4782320410580724,1.000050072611031,0.00022765591747930233
-0.4780944582002121,-0.4780944582002121,0.9998001215105761,0.00026425361553321407
-0.4778991031751502,-0.4778991031751502,0.9998209096656143,0.00022794295434802755
-0.4777616690189461,-0.4777616690189461,1.0001836359230825,0.00023413033917210908
-0.47766125073467264,-0.47766125073467264,0.9996300752817099,0.00022842567939640977
-0.4774690863050637,-0.4774690863050637,1.0000141579225923,0.0002344910169079774
-0.4773439148142643,-0.4773439148142643,0.9998853129310644,0.00023780037816036032
-0.4771936998120509,-0.4771936998120509,0.9998272321274427,0.00021745782561188322
-0.4770773567688593,-0.4770773567688593,0.9997546358778926,0.00023441971732931404
-0.4769593694647483,-0.4769593694647483,0.9997480255932443,0.00024241760706347225
-0.47678131474676777,-0.47678131474676777,1.0000783072190162,0.00022766092170635428
-0.4765918190911179,-0.4765918190911179,1.0000614773944334,0.00021185400288146255
-0.4765263353154296,-0.4765263353154296,0.9998601659263257,0.0002175280751427713
-0.4763827058915922,-0.4763827058915922,1.0002462675286825,0.0002208515352303877
-0.4762678859078733,-0.4762678859078733,1.0001466955033262,0.00021563560598453305
-0.47611301032302433,-0.47611301032302433,0.9998637344457821,0.00021204194230426158
-0.476015061794169,-0.476015061794169,0.9998972251687196,0.00023007246669354335
-0.4759216678052326,-0.4759216678052326,0.9999490255298845,0.0002218520648974922
-0.4758543476826162,-0.4758543476826162,0.9996542374864005,0.00021167324909403203
-0.4757751004326565,-0.4757751004326565,0.9999792208738556,0.0002154409721098857
-0.47569400864304046,-0.47569400864304046,0.9999212422748425,0.00024188479695137869
-0.4756369814487698,-0.4756369814487698,0.9999918446801164,0.00022747237900141477
-0.4755815093005367,-0.4755815093005367,1.0003246492944435,0.0002298176111131165
-0.4755119532128447,-0.4755119532128447,1.000052231884092,0.00022107988526820244
-0.4754271302263078,-0.4754271302263078,1.0000063020633263,0.00024532585924060994
-0.47531610484438713,-0.47531610484438713,0.9997037382577316,0.000227338190038959
-0.4752061154336843,-0.4752061154336843,1.000409382317016,0.00024949163794593784
-0.4750470603161375,-0.4750470603161375,0.9996426272140123,0.00024135365052505484
-0.47491922626504673,-0.47491922626504673,1.000024822321454,0.00022528273577663142
-0.47479144069729956,-0.47479144069729956,1.000341915838243,0.00023609163567469156
-0.47466073347750354,-0.47466073347750354,0.999947597959412,0.0002173886507389474
-0.4745105280802818,-0.4745105280802818,0.999952496579916,0.00024484590232789203
-0.4743791028828127,-0.4743791028828127,1.0001377067858326,0.0002398524969497196
-0.4742508763090882,-0.4742508763090882,0.9996220095565198,0.00021572747433412073
-0.47409099713768227,-0.47409099713768227,0.9999867379774677,0.00023547459072224304
-0.47401780261352544,-0.47401780261352544,0.9999984825049342,0.0002078591636538462
-0.4738495778394281,-0.4738495778394281,1.000176194694244,0.00024227521921686167
-0.47362565959847414,-0.47362565959847414,1.0002858560617502,0.0002197882376708767
-0.47356254546903076,-0.47356254546903076,0.999865798415356,0.00020463938637979608
-0.47349421665858243,-0.47349421665858243,0.9997513697919123,0.00021999495553982402
-0.4733848462143214,-0.4733848462143214,1.0002846344968515,0.00021465645958401776
-0.4732575495036144,-0.4732575495036144,0.9997665524585806,0.00021941797604731853
-0.4731035241311474,-0.4731035241311474,1.0005314146938111,0.00021585678012047866
-0.47297243691064067,-0.47297243691064067,0.9998337595621939,0.0002262450634517961
-0.4728693508899596,-0.4728693508899596,0.999994739166366,0.00020405026894826646
-0.4728006109042326,-0.4728006109042326,0.999900031633023,0.00020784350700524582
-0.47271601681932224,-0.47271601681932224,1.0001965221936362,0.00024397416660333512
-0.4726368462026585,-0.4726368462026585,0.9998825619998251,0.00023240285221421872
-0.472531285500736,-0.472531285500736,0.9995990073413787,0.0002202350284436733
-0.4724702413594059,-0.4724702413594059,1.0000956391420026,0.00023568218149779078
-0.47237246027943913,-0.47237246027943913,1.0001031319156526,0.00021612334950929187
-0.4722931400479865,-0.4722931400479865,1.0001186184015152,0.00023159963767441298
-0.47213389393727995,-0.47213389393727995,0.9997483705875515,0.00023986902243287858
-0.47200259720993926,-0.47200259720993926,1.0000089827865553,0.00023137259584011591
-0.4718692029491649,-0.4718692029491649,0.9998161510724186,0.000230281395092967
-0.47172690501247416,-0.47172690501247416,0.9998421748088214,0.00023199371475095195
