time,time,flux,flux_err
-0.4988521751159472,-0.4988521751159472,1.0003407176305286,5.1118592899364174e-05
-0.4970577658435407,-0.4970577658435407,1.000178571726692,5.1065300830376695e-05
-0.4955027630341647,-0.4955027630341647,1.000137187974897,4.6493427347415454e-05
-0.4942198317439761,-0.4942198317439761,1.0002052236925758,4.6714768149266126e-05
-0.49231723153425266,-0.49231723153425266,1.0000653174757625,4.662948976823528e-05
-0.4909137803530029,-0.4909137803530029,0.9999063674539208,4.6735694214814695e-05
-0.48941379770767524,-0.48941379770767524,1.000150978991567,4.6490461879835794e-05
-0.4882566144748125,-0.4882566144748125,1.0000707503657726,4.7624057778497546e-05
-0.4868966187517799,-0.4868966187517799,1.000017677152681,4.65937487630745e-05
-0.48522453676123406,-0.48522453676123406,1.0000294862015462,4.6735983410087344e-05
-0.4838356132575427,-0.4838356132575427,1.0000362463874009,4.669153353991147e-05
-0.482657829146774,-0.482657829146774,1.000561269400404,4.655460865728375e-05
-0.4813740433593921,-0.4813740433593921,0.9999378621907594,4.670773498086714e-05
-0.4797296101314714,-0.4797296101314714,1.0000630238453887,4.6425046043769414e-05
-0.47836800824079545,-0.47836800824079545,0.9998391630272575,4.6768667812413086e-05
-0.4765970553649822,-0.4765970553649822,1.0000175829771125,4.656267157253309e-05
-0.475347410019458,-0.475347410019458,0.9999018274309146,4.676559643727463e-05
-0.4734936829256185,-0.4734936829256185,1.0000338522585293,4.6482436541707486e-05
-0.4719581796518469,-0.4719581796518469,1.000100323558971,4.677198984942948e-05
-0.470319535354065,-0.470319535354065,1.001031096171638,4.661305523424987e-05
-0.46871803787798855,-0.46871803787798855,1.00029919792897,4.6771990822521065e-05
-0.4671468576634652,-0.4671468576634652,0.9999632675886915,4.6587843635875866e-05
-0.4657410193212854,-0.4657410193212854,1.0000238155344339,4.6584519599377006e-05
-0.4644205864227843,-0.4644205864227843,0.9999537514680679,4.668225624007811e-05
-0.46249294454682965,-0.46249294454682965,1.000095443847874,4.674902282529404e-05
-0.4606699050425959,-0.4606699050425959,0.9999013497892759,4.6699568750885636e-05
-0.45894421867924395,-0.45894421867924395,1.000058299360969,4.6735249119745603e-05
-0.4569934186845785,-0.4569934186845785,1.0001057083408558,4.665021263941108e-05
-0.45533077317741116,-0.45533077317741116,1.0000840836692646,4.673557020374062e-05
-0.4535578108538175,-0.4535578108538175,1.0000895476737093,4.647955776903938e-05
-0.4516990547723253,-0.4516990547723253,1.0001288648092757,4.671374936352214e-05
-0.44956645189158734,-0.44956645189158734,0.9999175527896206,4.6704276819770006e-05
-0.4480333937361138,-0.4480333937361138,1.0001980621478546,4.6632232712486864e-05
-0.4465314119493996,-0.4465314119493996,0.9999315360601149,4.654306313563968e-05
-0.4448193473916035,-0.4448193473916035,1.0001437926925694,4.6696379464546816e-05
-0.44292095922792213,-0.44292095922792213,0.9999678264666905,4.6706087570298374e-05
-0.44140410208128744,-0.44140410208128744,1.00002389953761,4.6624603122515695e-05
-0.4400830057660642,-0.4400830057660642,1.0001168091717227,4.647979648298823e-05
-0.4387031080776069,-0.4387031080776069,1.000084453584576,4.6755344988515005e-05
-0.4368914060985844,-0.4368914060985844,1.0000557553929306,4.661179739792038e-05
-0.4356662820326164,-0.4356662820326164,1.0001354291228766,4.672049238549444e-05
-0.43408050796570025,-0.43408050796570025,0.9999656964274527,4.657774689493187e-05
-0.4328294436534634,-0.4328294436534634,0.9998209601971102,4.6556727175658e-05
-0.43162350588318077,-0.43162350588318077,1.000092112528399,4.6600170854290596e-05
-0.42990402357536367,-0.42990402357536367,0.999957504211934,4.669364268522022e-05
-0.42874841731536434,-0.42874841731536434,1.0001349854134527,4.662111463528575e-05
-0.4272796071258199,-0.4272796071258199,1.0000356225727909,4.668203577048472e-05
-0.42609801340149717,-0.42609801340149717,1.000019859071783,4.671892893753641e-05
-0.42435259200865405,-0.42435259200865405,1.0000230433720414,4.649422315893566e-05
-0.42281750549955177,-0.42281750549955177,1.0000054686904902,4.677605831172201e-05
-0.4211741943916422,-0.4211741943916422,0.9999746062079863,4.659390226889369e-05
-0.4199132581867161,-0.4199132581867161,0.9999979935515304,4.672167772192379e-05
-0.4180710647146043,-0.4180710647146043,1.0000830387478366,4.660930048368355e-05
-0.41636613324808425,-0.41636613324808425,0.9999578886235323,4.666885695563035e-05
-0.4148736454480968,-0.4148736454480968,1.0001305877529696,4.658495312394057e-05
-0.4129464528625249,-0.4129464528625249,1.0000675481603598,4.678689366020287e-05
-0.41124126885697476,-0.41124126885697476,1.0000163451730824,4.6637658225562456e-05
-0.4095529519101547,-0.4095529519101547,0.9999538814158025,4.6757834325414976e-05
-0.40776640071489967,-0.40776640071489967,0.9999493739208176,4.667345117640021e-05
-0.40589155158013457,-0.40589155158013457,0.999919138362112,4.6741206289490046e-05
-0.40403651201559115,-0.40403651201559115,0.9999817605514572,4.664267685815244e-05
-0.40255188918599744,-0.40255188918599744,0.9999675119621294,4.670244122179383e-05
-0.40043278019729767,-0.40043278019729767,0.999854783305629,4.669371037496287e-05
-0.3988587731626467,-0.3988587731626467,0.99995170212443,4.669785508528407e-05
-0.3970158575160895,-0.3970158575160895,1.000041780602387,4.657593590732164e-05
-0.3952832762763137,-0.3952832762763137,0.9999995564394315,4.6621159179317866e-05
-0.39357952477948854,-0.39357952477948854,1.0010545458879392,4.6740848065857716e-05
-0.39190505771839523,-0.39190505771839523,1.0006753052833812,4.663972139119336e-05
-0.3905891159818566,-0.3905891159818566,1.000043332433393,4.6492402544912945e-05
-0.38930519948989967,-0.38930519948989967,1.000150057548492,4.6712369723231044e-05
-0.3874036337292637,-0.3874036337292637,1.0000943432541607,4.663328971933237e-05
-0.3859989556280198,-0.3859989556280198,0.9999673085470324,4.6734634300076496e-05
-0.38449958672208595,-0.38449958672208595,0.9998635915606986,4.648755916292957e-05
-0.3831970587365504,-0.3831970587365504,0.9999839149004093,4.6654116344400054e-05
-0.3815645250128,-0.3815645250128,1.0001356639464112,4.659178682226511e-05
-0.38009224114066453,-0.38009224114066453,1.0001398694453019,4.6744143201764234e-05
-0.3786536946754495,-0.3786536946754495,1.0003963028329914,4.663079101451549e-05
-0.3775539621572534,-0.3775539621572534,1.0002497684881988,4.652675050254735e-05
-0.3760849160804355,-0.3760849160804355,1.00003351735895,4.668641421809103e-05
-0.3744888722358155,-0.3744888722358155,0.9999481076067788,4.6583464903911644e-05
-0.37329473894060355,-0.37329473894060355,1.0001823768390614,4.674940335056509e-05
-0.3716826656855119,-0.3716826656855119,1.000076517372089,4.656029262681469e-05
-0.37043318467840436,-0.37043318467840436,0.9999335141554788,4.676424386534214e-05
-0.36857956789244783,-0.36857956789244783,1.00002175178241,4.6479936031402175e-05
-0.3670441043032042,-0.3670441043032042,0.9999581498843287,4.6775904414318866e-05
-0.36540499399925463,-0.36540499399925463,1.0007512172665693,4.660351279594995e-05
-0.3638037782089668,-0.3638037782089668,0.999978571505844,4.677142757601102e-05
-0.3622323593634064,-0.3622323593634064,1.000123337907106,4.65887671880967e-05
-0.3608272245284752,-0.3608272245284752,0.9999936207642499,4.658490190486295e-05
-0.3595060757405008,-0.3595060757405008,0.9999642278400376,4.668333440665736e-05
-0.3575790110233356,-0.3575790110233356,1.0002114485499938,4.6741395922300314e-05
-0.35575526013053604,-0.35575526013053604,1.0000834927026738,4.670424766970084e-05
-0.3540300763539562,-0.3540300763539562,0.999975677584746,4.673018204849265e-05
-0.35207986168170463,-0.35207986168170463,0.9998392692567094,4.664852869824134e-05
-0.3504163424120634,-0.3504163424120634,0.9998834855348321,4.673101574173402e-05
-0.34864304634102156,-0.34864304634102156,0.9999449961487411,4.6470545127392425e-05
-0.34678433106601003,-0.34678433106601003,1.0000845460806815,4.6704562445451235e-05
-0.3446530761073518,-0.3446530761073518,0.9999277730018112,4.67021834915197e-05
-0.3431191669886175,-0.3431191669886175,0.9998848357883879,4.6630402618027695e-05
-0.34161677913944005,-0.34161677913944005,1.0000705423739622,4.65466909265722e-05
-0.33990416555825503,-0.33990416555825503,1.0000454224051911,4.6689246515862824e-05
-0.3380075474276964,-0.3380075474276964,0.9999421141679153,4.670411045113863e-05
-0.336489836221881,-0.336489836221881,1.0000490718069783,4.662301332326121e-05
-0.33516886991274075,-0.33516886991274075,0.9998864901617937,4.647573543911854e-05
-0.33378889399318723,-0.33378889399318723,1.0001533741840238,4.6755672107247334e-05
-0.3319772342205397,-0.3319772342205397,1.0000598324033576,4.661139109015651e-05
-0.3307510003032803,-0.3307510003032803,1.0000596885104696,4.67274840980112e-05
-0.32916617231676354,-0.32916617231676354,0.9999517077192255,4.657925381219941e-05
-0.3279156443604734,-0.3279156443604734,1.0002647257689286,4.6562269382827615e-05
-0.3267093950802519,-0.3267093950802519,0.9999308976092399,4.65954725906849e-05
-0.324990183195041,-0.324990183195041,0.9999137267551459,4.669334572382636e-05
-0.3238329957261158,-0.3238329957261158,0.9999631462161422,4.6614099880207245e-05
-0.3223654805602564,-0.3223654805602564,0.9999798523035839,4.66815067797115e-05
-0.320940447931207,-0.320940447931207,0.9998904254189954,4.671772637523665e-05
-0.3190419757142081,-0.3190419757142081,0.9999133163610185,4.6449612673865616e-05
-0.3176866536385205,-0.3176866536385205,0.9999595641322502,4.677158651530546e-05
-0.3159122358330933,-0.3159122358330933,0.9999326953609102,4.65691677071598e-05
-0.3146612797107082,-0.3146612797107082,1.0000031592575531,4.676737280107277e-05
-0.3128066684424994,-0.3128066684424994,1.0001439658788154,4.648006897349474e-05
-0.31127083873798256,-0.31127083873798256,0.9999072273201957,4.6758304960868165e-05
-0.30951465723410365,-0.30951465723410365,1.0000753669210531,4.663310804492911e-05
-0.30803217743668937,-0.30803217743668937,1.0000210844064186,4.6788166357987024e-05
-0.30632667797326574,-0.30632667797326574,0.9998453854811048,4.663782773015286e-05
-0.304638829844771,-0.304638829844771,1.0000123889304438,4.675967225223804e-05
-0.30285233324175354,-0.30285233324175354,0.9999898886729255,4.668023289024427e-05
-0.3009772806515684,-0.3009772806515684,0.9999316412787612,4.6741851972202394e-05
-0.2989028832293116,-0.2989028832293116,0.9999768017251529,4.661891442838855e-05
-0.29723204384499696,-0.29723204384499696,0.9998770387240603,4.6641439189674804e-05
-0.2953011354285991,-0.2953011354285991,0.9999466848150288,4.669630578327618e-05
-0.29347532467290877,-0.29347532467290877,0.9998605949395918,4.669463236876835e-05
-0.29182019775689694,-0.29182019775689694,1.000133132538357,4.6657913970780613e-05
-0.2899376034969464,-0.2899376034969464,0.9999743701156009,4.656102661998395e-05
-0.28839608551206763,-0.28839608551206763,1.000394796625797,4.6768295939678244e-05
-0.2866513006796595,-0.2866513006796595,1.0001450844092146,4.6572608230394565e-05
-0.2854165437340271,-0.2854165437340271,0.9999969077964816,4.652307566706029e-05
-0.2840690653909405,-0.2840690653909405,0.9999827310969428,4.668213919771803e-05
-0.28222832482060767,-0.28222832482060767,1.0001569761004205,4.669199851887482e-05
-0.28072116592447854,-0.28072116592447854,1.000189485761147,4.666535126811207e-05
-0.2793933289969573,-0.2793933289969573,0.9999736433070918,4.643029262093138e-05
-0.27801686745588083,-0.27801686745588083,0.9998903428622509,4.678080269647466e-05
-0.27620484186409155,-0.27620484186409155,0.999951825532953,4.659888298670291e-05
-0.27498858231265333,-0.27498858231265333,1.0000857016513462,4.671368083888817e-05
-0.2733952607050014,-0.2733952607050014,1.0001576458157722,4.657292943841902e-05
-0.2723844594685943,-0.2723844594685943,1.00009534409259,4.660459548281559e-05
-0.2709364469454158,-0.2709364469454158,1.0000276285233705,4.660853775948847e-05
-0.26921503617195414,-0.26921503617195414,0.9999513919065273,4.6609388668424824e-05
-0.26807161583346895,-0.26807161583346895,1.0001865293714811,4.6701031448113427e-05
-0.26659268157018234,-0.26659268157018234,1.0000107895180776,4.668016929609045e-05
-0.2651660134186386,-0.2651660134186386,0.9999224733996958,4.6745266964826954e-05
-0.26326851232734044,-0.26326851232734044,1.000051101963739,4.646267444180837e-05
-0.2619202447756834,-0.2619202447756834,0.9999831058978834,4.674793266479539e-05
-0.2601419497812458,-0.2601419497812458,1.0001143420127754,4.658486887832747e-05
-0.258889519663353,-0.258889519663353,0.9998942857946908,4.677163523760898e-05
-0.2571034663305909,-0.2571034663305909,0.9999449490985922,4.654214885748819e-05
-0.25567813413217666,-0.25567813413217666,1.000057452374705,4.668239864574153e-05
-0.25418546848595724,-0.25418546848595724,0.9999814188578865,4.6596063619153334e-05
-0.25226071736469746,-0.25226071736469746,0.9999789471771395,4.679326922125184e-05
-0.25055806993623264,-0.25055806993623264,0.9999944890601611,4.662291827955858e-05
-0.24886597822915063,-0.24886597822915063,0.9999635309996826,4.675848927256457e-05
-0.2466394001712615,-0.2466394001712615,0.9999714312869461,4.661956486532437e-05
-0.24517482122100773,-0.24517482122100773,0.9999666243406752,4.676243857640128e-05
-0.24332452274757088,-0.24332452274757088,0.9999521670433629,4.651016671558999e-05
-0.2414623715376365,-0.2414623715376365,1.0000457256888806,4.664525816882888e-05
-0.23952631595893764,-0.23952631595893764,0.9999739668116264,4.6720063030200694e-05
-0.23784677208386712,-0.23784677208386712,0.999971965650929,4.663316224282676e-05
-0.23633197478338844,-0.23633197478338844,1.0000669541221712,4.6580263940947756e-05
-0.2345999797071272,-0.2345999797071272,0.9999305825258384,4.661473506336179e-05
-0.23289109286342863,-0.23289109286342863,0.9999462120124537,4.672846578253426e-05
-0.23122032795727138,-0.23122032795727138,0.9999315090158483,4.6641027989446145e-05
-0.2298983650209266,-0.2298983650209266,1.0000584707237086,4.6494611009850665e-05
-0.228622303645534,-0.228622303645534,0.9999975925859802,4.6718847975549176e-05
-0.2267137524257123,-0.2267137524257123,1.0001534928100397,4.6700502799062046e-05
-0.22552483128019957,-0.22552483128019957,1.0000521644247364,4.6638102162426186e-05
-0.22403803510096623,-0.22403803510096623,1.0000593208003785,4.654327020769018e-05
-0.22276163843125688,-0.22276163843125688,1.0001567554543498,4.663218535479927e-05
-0.22129590065014781,-0.22129590065014781,0.9998962569690851,4.658792077889216e-05
-0.2196226505555387,-0.2196226505555387,0.9999509151515433,4.674039873981538e-05
-0.21824354073687574,-0.21824354073687574,0.9998914742388584,4.670112430864924e-05
-0.2170539869024651,-0.2170539869024651,1.000034018920741,4.656138944251482e-05
-0.21519925709581003,-0.21519925709581003,0.9999336849865749,4.6672417919185975e-05
-0.21344201374595287,-0.21344201374595287,1.0000167879781559,4.65968463018073e-05
-0.2120715167169692,-0.2120715167169692,1.0000046567750578,4.668552432291917e-05
-0.21062233550983364,-0.21062233550983364,1.000035529093735,4.664964675135219e-05
-0.2089760521950666,-0.2089760521950666,1.0002124011256666,4.670430243131245e-05
-0.20717328929968062,-0.20717328929968062,1.0000999944643953,4.6571534191075684e-05
-0.20579622660807217,-0.20579622660807217,0.9999641813592406,4.666073466561651e-05
-0.20413064456588473,-0.20413064456588473,0.9999523674621434,4.657419396728308e-05
-0.20242178537300787,-0.20242178537300787,0.9999407619359328,4.683720596709295e-05
-0.20061485915866797,-0.20061485915866797,1.0001487943433283,4.661608795959111e-05
-0.1993383786691993,-0.1993383786691993,1.0000122445139785,4.6726416493825796e-05
-0.1975043498794548,-0.1975043498794548,0.9998485601232394,4.663171001465212e-05
-0.19579414274630835,-0.19579414274630835,1.0000308604849075,4.682666637845482e-05
-0.1939884623127,-0.1939884623127,1.0000106510942248,4.6616823912100656e-05
-0.19231757058441873,-0.19231757058441873,1.0000601910042157,4.664462732193604e-05
-0.19038723680059774,-0.19038723680059774,1.000024960982968,4.67020599661448e-05
-0.18856019039376407,-0.18856019039376407,0.9999997822838627,4.669495468242373e-05
-0.18690584184223552,-0.18690584184223552,0.9999531394341977,4.665389611273998e-05
-0.18502354278316488,-0.18502354278316488,1.0001628534876006,4.656317542749597e-05
-0.18348135533597087,-0.18348135533597087,1.0001742889722594,4.6769596208389407e-05
-0.18185149394266772,-0.18185149394266772,0.9999691059395135,4.663868838971073e-05
-0.18076182946897462,-0.18076182946897462,0.999987891783648,4.6493882980166235e-05
-0.1794759389325918,-0.1794759389325918,0.9999494373961089,4.670563154584621e-05
-0.1775764428981347,-0.1775764428981347,0.9999668794142232,4.663313955031676e-05
-0.1761693123538862,-0.1761693123538862,0.9999163904385823,4.673879626924968e-05
-0.17467117346532177,-0.17467117346532177,1.0000349458339666,4.6485499484216845e-05
-0.17336899780348175,-0.17336899780348175,0.9999600519955519,4.664854272413198e-05
-0.17173676490492654,-0.17173676490492654,1.0000000709305947,4.658743332157875e-05
-0.17026251485658578,-0.17026251485658578,0.9999492897505634,4.67426796707486e-05
-0.16882475069651265,-0.16882475069651265,1.0002544063650736,4.663337962801716e-05
-0.1677266069869802,-0.1677266069869802,0.9999648434574506,4.6520167894654e-05
-0.16625681462246575,-0.16625681462246575,1.0000264283352758,4.6687956525857526e-05
-0.16466044237822644,-0.16466044237822644,0.9998281240634335,4.658653196573156e-05
-0.16346409752804902,-0.16346409752804902,1.0001795732657368,4.674658622664342e-05
-0.16185389251477317,-0.16185389251477317,1.0000649056669377,4.655860584740542e-05
-0.16060473934703623,-0.16060473934703623,1.000020348121758,4.676077205612799e-05
-0.15875133952504256,-0.15875133952504256,0.9999908302858092,4.647808151563624e-05
-0.15721595923023415,-0.15721595923023415,1.0000719529617303,4.677780888779939e-05
-0.15557591522810982,-0.15557591522810982,0.9997976928059131,4.6592379178608295e-05
-0.1543155688435945,-0.1543155688435945,0.9999659110186944,4.6727770048785514e-05
-0.15247096908133245,-0.15247096908133245,1.00003492300096,4.661102870848317e-05
-0.1507641274438356,-0.1507641274438356,1.0000119104160201,4.667420126051173e-05
-0.14927148402421153,-0.14927148402421153,1.0000997973071413,4.6591389396990755e-05
-0.14734642758776317,-0.14734642758776317,1.000031537659646,4.679631234463767e-05
-0.14564346217011917,-0.14564346217011917,0.9999459525726367,4.661993313365833e-05
-0.14395184434615657,-0.14395184434615657,1.0000411073524607,4.6752036303644046e-05
-0.14172588621877366,-0.14172588621877366,0.9999068390471211,4.6615759461949147e-05
-0.14026008963410277,-0.14026008963410277,1.000024732995992,4.676790586821809e-05
-0.13817019796624663,-0.13817019796624663,1.0001089720848346,4.660816363142605e-05
-0.1361043859338679,-0.1361043859338679,1.0000193634305774,4.660828472295347e-05
-0.1343341447209241,-0.1343341447209241,0.9999925556856943,4.6795879962270566e-05
-0.13259437929373236,-0.13259437929373236,0.9998815373129727,4.655815352152674e-05
-0.13113511483825277,-0.13113511483825277,0.9999627012506493,4.6657637640734725e-05
-0.1292501514304604,-0.1292501514304604,1.0000048831521056,4.6564007040725896e-05
-0.1277139863188495,-0.1277139863188495,0.9999639140607302,4.6765455753445905e-05
-0.1259655798196036,-0.1259655798196036,0.999856458159987,4.659201128385855e-05
-0.12472642846478266,-0.12472642846478266,0.9999707293027755,4.652600892753621e-05
-0.12338513510112534,-0.12338513510112534,0.9998915798566959,4.667767377902354e-05
-0.12153580945232534,-0.12153580945232534,0.9999161599317823,4.669249551826579e-05
-0.12028784095746232,-0.12028784095746232,0.9998771576934414,4.669573455550363e-05
-0.11889910810205037,-0.11889910810205037,0.9999321602153216,4.6482382728184506e-05
-0.11759533546646708,-0.11759533546646708,0.9999515798541239,4.665458740465245e-05
-0.11596174141232041,-0.11596174141232041,1.0001353645273323,4.6583583837840017e-05
-0.11449632801886764,-0.11449632801886764,1.000179946735092,4.675148125485709e-05
