time,time,flux,flux_err
-0.49984827924345154,-0.49984827924345154,0.9999005989879173,0.00021414505024978155
-0.4996213577767776,-0.4996213577767776,0.9997998145450202,0.00020184649991468535
-0.4993267129175365,-0.4993267129175365,1.0003268592606518,0.00020694282124628034
-0.49922322454076495,-0.49922322454076495,1.0000648011538185,0.0002079890893877942
-0.49912089564604684,-0.49912089564604684,1.000104679019118,0.00020315441663236057
-0.498991520691925,-0.498991520691925,0.9997564463318082,0.00021370611758961445
-0.4988462752007763,-0.4988462752007763,0.9997963079305109,0.0002041001826396524
-0.4986280314711621,-0.4986280314711621,0.999675002354663,0.0001988145528785373
-0.49845104274791086,-0.49845104274791086,1.00001031134958,0.00020008504697650994
-0.4982560644901241,-0.4982560644901241,1.0001665829350488,0.00021036180363659932
-0.49809882021072555,-0.49809882021072555,0.9996618845261281,0.0002124584560427713
-0.49795869346271504,-0.49795869346271504,1.0002382080717431,0.00021039252437845423
-0.49776640184500137,-0.49776640184500137,0.9996996093815694,0.0001990321492465207
-0.49746833632743803,-0.49746833632743803,0.9995877436605927,0.00020121315592772914
-0.49721014297392685,-0.49721014297392685,1.0001125590912705,0.0002048588692380846
-0.49702268717155673,-0.49702268717155673,1.0001638491178404,0.00020323239571690458
-0.496873778499139,-0.496873778499139,1.0004297641138487,0.00019981067603641443
-0.49675056087216946,-0.49675056087216946,0.9999861230233984,0.00021553146699501122
-0.4966042109314003,-0.4966042109314003,0.9999018546799496,0.0001943093421570287
-0.4965263664831582,-0.4965263664831582,1.0002832518662126,0.00020720405121383927
-0.4963914893683977,-0.4963914893683977,1.000141090432539,0.00019842192534327168
-0.49618732499147883,-0.49618732499147883,0.9997763748081658,0.00021047087225454903
-0.49604806767238185,-0.49604806767238185,0.9999327564073294,0.00020873930806275808
-0.4958088901868905,-0.4958088901868905,1.0000499837998806,0.00019851326986423213
-0.4956099824397825,-0.4956099824397825,0.9999229845328614,0.00020487534764135435
-0.49534448412814525,-0.49534448412814525,1.0002040581418192,0.00022237354152610666
-0.49520337989160906,-0.49520337989160906,1.0002654378351816,0.0002025266979644631
-0.49500770560262025,-0.49500770560262025,1.000073428320786,0.00020074307549501364
-0.4949040368439455,-0.4949040368439455,0.9999488081047507,0.00020271765321682716
-0.4947518258457421,-0.4947518258457421,0.999902355881263,0.0002074223938177324
-0.4946402101813874,-0.4946402101813874,0.999860176969651,0.00019913978747508162
-0.49454920511780076,-0.49454920511780076,0.9998558063277331,0.00019678714722515999
-0.4944466999309952,-0.4944466999309952,0.9999620182707571,0.00020603906626782135
-0.49419963577165615,-0.49419963577165615,0.9997654321177885,0.00020980815865326486
-0.49404158920951885,-0.49404158920951885,0.9999761653670636,0.00021820213999206852
-0.4939417630179378,-0.4939417630179378,1.0000238070133167,0.00020354432856168177
-0.49366893882252044,-0.49366893882252044,0.9996170762072047,0.00020078386223541025
-0.4934056195190351,-0.4934056195190351,1.0000662539850955,0.00019829425129631864
-0.4932037579907046,-0.4932037579907046,0.9999222163717519,0.00021577087567737713
-0.49308112900253037,-0.49308112900253037,0.9998939778370245,0.0001945281653436308
-0.492943093116628,-0.492943093116628,0.9999345795676046,0.00020010122619057254
-0.49281185782238024,-0.49281185782238024,1.000015142382877,0.00020561728213915878
-0.4927063569739403,-0.4927063569739403,0.9999328327079298,0.00020248282891152718
-0.4925911018101033,-0.4925911018101033,1.000106807433644,0.00019746294672592425
-0.49236748728581003,-0.49236748728581003,1.0000636610270188,0.00020304338317238976
-0.4921917037048843,-0.4921917037048843,0.999838573906203,0.0002155478811906607
-0.49205753651549455,-0.49205753651549455,1.0002168541801701,0.0002000004294287285
-0.49191044556500857,-0.49191044556500857,1.0000006660246754,0.0002004486100009778
-0.49161604040491513,-0.49161604040491513,1.0000305913797018,0.00020104988653142975
-0.49132250228940394,-0.49132250228940394,0.999726656730522,0.00020410034946835419
-0.4911561677217833,-0.4911561677217833,0.9999158176628834,0.00020023354684568618
-0.4910267817635031,-0.4910267817635031,0.9999560219295713,0.0002103854559058746
-0.4908618610643316,-0.4908618610643316,1.0000639141257015,0.0002099165634426299
-0.4907358905467845,-0.4907358905467845,0.9999982586310437,0.00020694416344421135
-0.4906106941336475,-0.4906106941336475,1.0001295552702598,0.00020369821749718938
-0.4904140640421247,-0.4904140640421247,1.0002887524445898,0.00021271141126200454
-0.4902823503805848,-0.4902823503805848,0.9999830451107214,0.0002058341878416091
-0.49014756247051994,-0.49014756247051994,0.9998898269568178,0.00020524817142097675
-0.4900793106178753,-0.4900793106178753,0.9997856008805315,0.00021061222308310073
-0.4899872516391042,-0.4899872516391042,0.9995142394999809,0.00023045426033409825
-0.48987177223389156,-0.48987177223389156,1.000070437241813,0.00020343508550724616
-0.48967850263652507,-0.48967850263652507,1.0001415063596375,0.00020443535428367154
-0.4895124337257585,-0.4895124337257585,1.0000173959172842,0.00019945286415276763
-0.48929830316774314,-0.48929830316774314,1.0001307225017766,0.00021126257646606424
-0.48920338245734457,-0.48920338245734457,1.0002097773099747,0.000202889102989873
-0.48908475303760496,-0.48908475303760496,0.9999928973204446,0.00020128074311663645
-0.48892588166563655,-0.48892588166563655,0.9998432313326149,0.0002158723300091083
-0.48871500248860683,-0.48871500248860683,1.0001537588485583,0.00020633279156327496
-0.4884197188242979,-0.4884197188242979,0.9998878769731945,0.00020084218381647966
-0.48823602825723356,-0.48823602825723356,0.9999704596023078,0.0002111789196008903
-0.4881394161377102,-0.4881394161377102,0.9996865297531491,0.0002042445061577227
-0.48803956680058036,-0.48803956680058036,0.9997737605537484,0.00020317350982328587
-0.48788483338357763,-0.48788483338357763,0.9999554446338953,0.00021547490518951037
-0.48771780138777104,-0.48771780138777104,0.9998757900134805,0.00020158623979378362
-0.48750554088983333,-0.48750554088983333,0.9999057547066936,0.0002043106210839093
-0.48738809231945196,-0.48738809231945196,0.9997910060673674,0.0002000387142819104
-0.4871991901141882,-0.4871991901141882,0.9998790232788668,0.00020548726766640582
-0.48706026721629314,-0.48706026721629314,0.999902103565347,0.0002124039925696231
-0.486916075454792,-0.486916075454792,1.0000807734855923,0.0002162165016805241
-0.4867710697588336,-0.4867710697588336,0.999965129940799,0.0002255584157584396
-0.48640120081981875,-0.48640120081981875,0.9998758604194558,0.00019950798474407472
-0.48619587567518463,-0.48619587567518463,1.0002444285548315,0.00020737900791036507
-0.4860147772757045,-0.4860147772757045,1.0000707181700537,0.00019961706116269104
-0.48586370304910814,-0.48586370304910814,1.0000372217115785,0.00020770012380040524
-0.4857290025960538,-0.4857290025960538,1.0000629798721334,0.0001995058234303303
-0.48558702310692753,-0.48558702310692753,0.9998439290231194,0.0002012016857043838
-0.485464677055279,-0.485464677055279,0.999843590501186,0.00020236383455037176
-0.48532453620646265,-0.48532453620646265,0.9997015640957605,0.0001984109368954618
-0.4851238916082366,-0.4851238916082366,1.00005868085477,0.00021094618966535617
-0.4850108270482451,-0.4850108270482451,0.9999624209385752,0.0002042079160314792
-0.4848354412446497,-0.4848354412446497,0.9999353158149159,0.0002017528501774148
-0.48465851905930324,-0.48465851905930324,0.9998212956352376,0.00020269841765113987
-0.4845239279355155,-0.4845239279355155,1.0003285711506777,0.00021091417934298025
-0.48430156794784124,-0.48430156794784124,1.0001578826422493,0.00022391889412248602
-0.48417314399339373,-0.48417314399339373,0.9995839630088899,0.00020287837334106719
-0.48400129954316073,-0.48400129954316073,0.9998809869497899,0.00020169208055556112
-0.48387031293532345,-0.48387031293532345,0.9999828481759317,0.0002002120437449559
-0.48375322064530335,-0.48375322064530335,1.0000430943479837,0.00020540247442782437
-0.4836146162073419,-0.4836146162073419,0.999890729070894,0.00021070315383284484
-0.48354571613817826,-0.48354571613817826,0.9997103965876903,0.00020102449475107773
-0.4834421318490058,-0.4834421318490058,0.9998454145233107,0.00019864932362876516
-0.483253085600154,-0.483253085600154,1.0000873920402351,0.00021224213403520862
-0.483031349140947,-0.483031349140947,0.9998002564367757,0.00021726819827238008
-0.48290549427256335,-0.48290549427256335,1.0001239077926698,0.00020647887239630706
-0.48277560841597733,-0.48277560841597733,0.9999838056890974,0.0002009969975265881
-0.4823916052999266,-0.4823916052999266,0.9998770812143896,0.00020023900178495918
-0.4822320096754993,-0.4822320096754993,1.0001610162605539,0.0001955307551031113
-0.48210092492809054,-0.48210092492809054,1.0000344940166221,0.00021584102373507723
-0.4819954046542989,-0.4819954046542989,0.9999078323364492,0.00019447003350295155
-0.4818067160354985,-0.4818067160354985,1.0002067526578304,0.00020586556075058822
-0.48171173772279874,-0.48171173772279874,0.9998086583956519,0.0002023075680829026
-0.4815991142895655,-0.4815991142895655,0.9997992095657212,0.0001962676549907311
-0.48143724205292526,-0.48143724205292526,0.9998426297799888,0.00019784127608979415
-0.4812393115913437,-0.4812393115913437,0.9998532331419557,0.00020982844014082137
-0.48109765251720094,-0.48109765251720094,1.000214355083817,0.00021142321794726267
-0.4809593531899736,-0.4809593531899736,0.9999192502078073,0.00020136605955439686
-0.4807314228026371,-0.4807314228026371,0.9998461877732854,0.00020139177982774953
-0.4804344208008843,-0.4804344208008843,1.0000102750430555,0.00019972378195445693
-0.48016749293601607,-0.48016749293601607,0.9997958480111674,0.00020032200423613866
-0.480033469209593,-0.480033469209593,1.0001972494161246,0.00021018222603391717
-0.4799025348489522,-0.4799025348489522,1.000258826943341,0.00020598550982878818
-0.4797303775681939,-0.4797303775681939,0.999898147066536,0.00020186219190524883
-0.4795989778154762,-0.4795989778154762,1.0001748647687163,0.00020201414206321897
-0.4793815622877446,-0.4793815622877446,0.9999905007295865,0.00021259387789251597
-0.4791736013525224,-0.4791736013525224,1.0001026142390927,0.0002070482728333953
-0.4790280922308739,-0.4790280922308739,1.0001786943820667,0.00020188348761451705
-0.4789288161111472,-0.4789288161111472,1.0001864384970707,0.00023891894977256224
-0.47880359899791075,-0.47880359899791075,1.000191473106817,0.0002035086094388116
-0.47862200356757967,-0.47862200356757967,0.9996881219765873,0.00020295135334506015
-0.4784110956519726,-0.4784110956519726,0.999855694810357,0.00020461747487936322
-0.47821417694358387,-0.47821417694358387,0.9995893632349195,0.00021296937094726962
-0.4780773804646742,-0.4780773804646742,1.0000331829844635,0.00019837915661792587
-0.4779511221393477,-0.4779511221393477,1.0001439021407967,0.00020939969917755787
-0.4777363588946173,-0.4777363588946173,1.0001376356980018,0.00021777640080138157
-0.4775682209794468,-0.4775682209794468,1.0001764493257137,0.00020322551585130475
-0.47726798790463365,-0.47726798790463365,1.0000328560274125,0.00019691609349568035
-0.47713149192204585,-0.47713149192204585,0.999933767640767,0.00021683421309839774
-0.47705361300177174,-0.47705361300177174,1.000121541989051,0.00020842767642434263
-0.4768911633611424,-0.4768911633611424,1.0000375047703747,0.00021356468405905318
-0.47671327331481733,-0.47671327331481733,1.000008680707839,0.00020409016467299858
-0.47649077798996586,-0.47649077798996586,1.0000442157927718,0.00020071493462688186
-0.476294446697284,-0.476294446697284,0.9998575844828561,0.00020488041443802416
-0.4761145876873343,-0.4761145876873343,1.000392730206416,0.00020815841672884545
-0.4760004559349909,-0.4760004559349909,1.0000286735941066,0.0002195934159075111
-0.47588036348242896,-0.47588036348242896,0.9997399888668996,0.00021213528080371233
-0.4756400729304005,-0.4756400729304005,0.9999432312301293,0.0002066003438798539
-0.4752926123110228,-0.4752926123110228,0.9998400223051,0.0001984141685637676
-0.47508698787569303,-0.47508698787569303,0.9999949989893626,0.00021214511416340324
-0.47495325685158607,-0.47495325685158607,0.9999861569821951,0.0002013068287412647
-0.4748458433605265,-0.4748458433605265,0.9997348143483608,0.00020369210400776909
-0.4747552806562453,-0.4747552806562453,0.999772826280258,0.0002146463868125476
-0.47460083994155866,-0.47460083994155866,1.0000742944736944,0.00020589375060906526
-0.47445219204819294,-0.47445219204819294,1.000174510452629,0.00019368719579071562
-0.4743171790323686,-0.4743171790323686,1.0001092286991475,0.00020240302075720152
-0.4741516698544729,-0.4741516698544729,0.9998160611111953,0.00020797898952255338
-0.47397681522343194,-0.47397681522343194,0.999769772258011,0.00020623566822036953
-0.47380549240770053,-0.47380549240770053,1.000008974963158,0.00020174606140478842
-0.47365017197080306,-0.47365017197080306,1.0000715554422677,0.00020167261224808363
-0.4734993257072347,-0.4734993257072347,0.9997706228441038,0.00021041917296219908
-0.47327091107144953,-0.47327091107144953,0.9998974016068235,0.00022502821334119267
-0.47311760038719514,-0.47311760038719514,0.9998907254728273,0.00020920723661564528
-0.47296114496712105,-0.47296114496712105,0.9998012371314531,0.00020406172680130313
-0.4728542867269425,-0.4728542867269425,1.0000338351810658,0.00019747556317681534
-0.47272316952221444,-0.47272316952221444,1.0000885525037044,0.000206459324770607
-0.472576894651138,-0.472576894651138,1.0002547109448923,0.00019954146831610515
-0.47247905512704164,-0.47247905512704164,1.0002193205627485,0.00020117501102162065
-0.4723799065403,-0.4723799065403,1.0000084447438717,0.0001968830996307358
-0.47218799944894274,-0.47218799944894274,0.9999708771692951,0.00021316877638214224
-0.47194691658078225,-0.47194691658078225,1.0000197165570053,0.00021548668145690268
-0.4718028691968357,-0.4718028691968357,1.0001095875785746,0.0002032434008089967
-0.47157258834777166,-0.47157258834777166,1.0001482992668893,0.0002001286270583268
-0.4712936394957069,-0.4712936394957069,0.9998411716964613,0.00020099353809742475
-0.47113613292458467,-0.47113613292458467,0.99984877004945,0.0001986872864537819
-0.47102019354570074,-0.47102019354570074,0.9998834374015881,0.00021498648513844937
-0.470912737063918,-0.470912737063918,0.9999099970925919,0.0002041823966332765
-0.47074672600647316,-0.47074672600647316,1.0000698207498964,0.00020602006827997823
-0.4706420023772807,-0.4706420023772807,1.0000404293631648,0.00020648317945745365
-0.4705176871648291,-0.4705176871648291,1.0001436901853966,0.0001922278423259687
-0.4703600492095575,-0.4703600492095575,0.9998678893976042,0.00020188309116230406
-0.4701414314113208,-0.4701414314113208,0.9997501586284635,0.00021334293959744178
-0.4699371662536578,-0.4699371662536578,0.9999663674975009,0.00020386301083131762
-0.46976213149828255,-0.46976213149828255,0.9999179904949974,0.00020156497486287155
-0.46948749404691625,-0.46948749404691625,0.9998871997873137,0.00020024332886055154
-0.46925766451313394,-0.46925766451313394,0.9999591898435527,0.00020003843367889644
-0.469051212836348,-0.469051212836348,0.9998486378499146,0.000212553268131875
-0.46889205711122484,-0.46889205711122484,1.0004764032884872,0.0002012195080628035
-0.4687121508795826,-0.4687121508795826,1.0000307615920687,0.000205538191782464
-0.46856784560586673,-0.46856784560586673,1.0001721373026273,0.00020250406498217372
-0.4683148584510491,-0.4683148584510491,1.0000996298881517,0.0002123287393734909
-0.4681532253911428,-0.4681532253911428,0.9999070490995493,0.0002051105756217576
-0.46798953299148704,-0.46798953299148704,1.0001186109729276,0.00020681155611894549
-0.4678906648026896,-0.4678906648026896,0.9997661312625746,0.00024057535539287415
-0.467762780146586,-0.467762780146586,1.0000805205749983,0.00020281124414074804
-0.4675970327167306,-0.4675970327167306,0.9999165878231153,0.0002045746411228139
-0.46743168500979665,-0.46743168500979665,0.9999198338441225,0.00022893099752295344
-0.46724624305643375,-0.46724624305643375,0.999755733076876,0.00021031841776706451
-0.46708673176617593,-0.46708673176617593,0.9997867456485501,0.00019986390797570086
-0.4669612801546464,-0.4669612801546464,0.9999675606846665,0.00020471679248159963
-0.46683872420253464,-0.46683872420253464,0.9998490031548404,0.0002152415592741954
-0.46659323795392993,-0.46659323795392993,0.9998109132079371,0.0002000326157120305
-0.4663214486099605,-0.4663214486099605,0.9998790655586003,0.0002004865408575331
-0.46610152237990404,-0.46610152237990404,0.9998936880600133,0.00021838371520304045
-0.4660143024244462,-0.4660143024244462,0.9999460617748441,0.00021055108362832164
-0.4658341007125273,-0.4658341007125273,1.0001296054809337,0.00021430059507003668
-0.4656723902691738,-0.4656723902691738,1.0000281921047849,0.00020248926204032583
-0.46550199289195004,-0.46550199289195004,1.0002741615669086,0.00019921900386837276
-0.4652784953643277,-0.4652784953643277,0.9993687055780811,0.00022390848033619924
-0.46513060373908954,-0.46513060373908954,0.9997747765533014,0.00021141875485179424
-0.46502965295658216,-0.46502965295658216,0.9998620619743909,0.00020879232763189567
-0.46487499068534816,-0.46487499068534816,1.0002347488583165,0.00021188283202535027
-0.46478610090343864,-0.46478610090343864,0.9999751803799004,0.00021554850267989402
-0.46448083172144833,-0.46448083172144833,1.000069741073984,0.0002025518122652379
-0.4641944662151218,-0.4641944662151218,0.9997721577500955,0.0001999638149712627
-0.4640450359795068,-0.4640450359795068,0.9999060091029625,0.00020641973571282313
-0.4638917322627094,-0.4638917322627094,0.9996276713115618,0.00020349733536914627
-0.46378749622017496,-0.46378749622017496,0.9998384195683563,0.00020373443908623068
-0.4636944042198593,-0.4636944042198593,0.9996793530705945,0.0002151146161077597
-0.4635342173096433,-0.4635342173096433,1.0000807941312901,0.00020593537835680788
-0.46338819697339206,-0.46338819697339206,0.9999656945467773,0.0001936417738415416
-0.4632516884041252,-0.4632516884041252,0.9998419393068024,0.0002023846164115049
-0.46308982471891796,-0.46308982471891796,0.9999815304687332,0.00020557217878348512
-0.4629282780566427,-0.4629282780566427,0.9999911384635576,0.00021033674838841777
-0.4628039433126105,-0.4628039433126105,1.000347983770839,0.0002058539935378977
-0.46261526329108166,-0.46261526329108166,0.9998347856104906,0.0002184206319992516
-0.4624562683369732,-0.4624562683369732,0.9999799353259139,0.00021197561133888787
-0.46233187484540395,-0.46233187484540395,1.0000548048668505,0.0002063652350053552
-0.4621243901521666,-0.4621243901521666,1.0002260056106285,0.00021177711720175933
-0.46197463416538087,-0.46197463416538087,1.0002061220602743,0.0001953067063883842
-0.46184089203889017,-0.46184089203889017,0.9998123971897913,0.00020650255570513242
-0.4617211689204851,-0.4617211689204851,1.0003016624049343,0.00020436806068662968
-0.4615693711333734,-0.4615693711333734,1.0000749970475247,0.00020458463434809673
-0.46144704838225153,-0.46144704838225153,0.9999786002639919,0.00020089949119680455
-0.46135739408418885,-0.46135739408418885,0.9999111543987882,0.00019480916340499055
-0.46122948099146016,-0.46122948099146016,1.0001288296163247,0.0002173095472136805
-0.4609705304697854,-0.4609705304697854,1.0001787159512538,0.00020267923210786414
-0.46079150682198816,-0.46079150682198816,0.9997725127338036,0.0002117423338431058
-0.46067765802145005,-0.46067765802145005,1.0000280558609094,0.00020099894549736852
-0.46036686246152386,-0.46036686246152386,0.9997797252086477,0.00020119015856543318
-0.4602008626847237,-0.4602008626847237,1.0002094760478148,0.00020063771486480395
-0.46002045696805,-0.46002045696805,0.9997567016665133,0.00021823236649260767
-0.45988514566561206,-0.45988514566561206,0.999827573818713,0.00019451098020448998
-0.4597259269467031,-0.4597259269467031,1.0001865289316052,0.00020475111872750147
