time,time,flux,flux_err
-0.4991474269675867,-0.4991474269675867,1.000436672806272,0.0007968960751363943
-0.49767921922951547,-0.49767921922951547,1.0005082027189964,0.0007805596740341359
-0.4958182981523957,-0.4958182981523957,1.0001153011447612,0.0007796888720318926
-0.49390364453574875,-0.49390364453574875,1.000301003839928,0.0007806655777395808
-0.4920550915441709,-0.4920550915441709,1.000120443621088,0.0007124007148076376
-0.4908947057032492,-0.4908947057032492,1.0003039139716516,0.0007123661689011807
-0.48947766969795337,-0.48947766969795337,0.9993885310800232,0.0007119648524197079
-0.487876623054035,-0.487876623054035,0.9992415118250146,0.0007120621808215255
-0.48628382169699763,-0.48628382169699763,1.0009775621563803,0.0007119975747310741
-0.48511688787548335,-0.48511688787548335,1.0001164911801221,0.0007124906535588315
-0.4835771004814887,-0.4835771004814887,1.0001727461893077,0.0007129717686982994
-0.48207962510350627,-0.48207962510350627,1.0010859931966098,0.0012014207091268284
-0.48081084730802104,-0.48081084730802104,1.0004308745326664,0.0007128711037691466
-0.47948452589043883,-0.47948452589043883,1.0004185287518,0.0007737741072668115
-0.47815153693954926,-0.47815153693954926,0.9993356292963537,0.0007126825640201377
-0.4763821531902067,-0.4763821531902067,0.9998533352821367,0.0007121304349242655
-0.47509589924884493,-0.47509589924884493,0.9998730762909529,0.0007255831996400304
-0.47400790100509765,-0.47400790100509765,1.000855843272954,0.0007123192900951307
-0.4723913788184291,-0.4723913788184291,0.9995588916487261,0.0007117028958756368
-0.4712301719002426,-0.4712301719002426,1.0004510568472977,0.0008206520762575407
-0.4698567965126131,-0.4698567965126131,0.9999419954502246,0.0007125345989543901
-0.46825143071764613,-0.46825143071764613,1.0007883560248687,0.0007156498613009137
-0.46726023591472765,-0.46726023591472765,1.0006193983748877,0.000712415663510096
-0.46594174349156675,-0.46594174349156675,1.001138852376861,0.0007123336740875853
-0.46434276111249345,-0.46434276111249345,0.9987491834942617,0.0007118745876983344
-0.4626581464661285,-0.4626581464661285,0.9999534545029803,0.0007118752563025645
-0.46147344885976055,-0.46147344885976055,1.000028500044921,0.0007117792910730308
-0.4601062209490919,-0.4601062209490919,1.0008516883600307,0.0007124540627180821
-0.45838910979218783,-0.45838910979218783,0.9998588918806466,0.0007115931869995699
-0.4569379398686578,-0.4569379398686578,1.0003836755327449,0.0007121366082513928
-0.4555844072776381,-0.4555844072776381,1.0006641514834356,0.0007118650754407984
-0.4539785412838683,-0.4539785412838683,0.9998630103687136,0.0007125908099442762
-0.45229688517865724,-0.45229688517865724,1.000636323116239,0.0007123155355956778
-0.45119024651357903,-0.45119024651357903,1.0003315331121092,0.0007213530765225301
-0.45015320941165554,-0.45015320941165554,1.0012698724661466,0.0007120948272596693
-0.44853210137807764,-0.44853210137807764,0.9997146991554919,0.0007118274027252504
-0.4473550826893188,-0.4473550826893188,1.0005091366726517,0.0008815815219554553
-0.44599879419256466,-0.44599879419256466,1.0000259907669438,0.0007112840677348171
-0.4444023074465804,-0.4444023074465804,1.0005780808382614,0.0007205626182717735
-0.44338688972347884,-0.44338688972347884,1.0001207383405792,0.0007129932080598919
-0.4418316309893271,-0.4418316309893271,0.999884376437097,0.0007115713116468469
-0.44044411776412745,-0.44044411776412745,1.000161504019831,0.0007193019918939442
-0.4387978305021534,-0.4387978305021534,0.9985417993635604,0.0007119668490753925
-0.4376074653380783,-0.4376074653380783,0.9990441119956307,0.0007114925440919538
-0.43590211143891794,-0.43590211143891794,0.9990848931216185,0.0007126259404336623
-0.4339812919322867,-0.4339812919322867,0.9998720682275033,0.0007120360552754782
-0.43282363909238486,-0.43282363909238486,1.0009339095888365,0.0007120427188692368
-0.4313642848166637,-0.4313642848166637,1.0001167566625848,0.0007114998205974739
-0.4298187167354627,-0.4298187167354627,0.999772258519753,0.000712844199338261
-0.42829954375047236,-0.42829954375047236,1.0006009157199878,0.0007168837873881278
-0.4273039121675538,-0.4273039121675538,1.0002287200034528,0.0007172104633035161
-0.4262803207268007,-0.4262803207268007,1.0003411057534897,0.0007129190537775636
-0.42467338996357284,-0.42467338996357284,0.9999868548944754,0.0007116315219835574
-0.4234800809965236,-0.4234800809965236,1.000025957194446,0.0009636044542193772
-0.4221605523984181,-0.4221605523984181,0.9998338365682112,0.0007116896060040604
-0.42055183232587295,-0.42055183232587295,1.0006396882465172,0.0007295788576619486
-0.4194087987241801,-0.4194087987241801,0.9997292597570795,0.0007134198127043607
-0.41765546119422653,-0.41765546119422653,0.9995742880953964,0.0007147259478644236
-0.41625868149567397,-0.41625868149567397,0.9998592034450988,0.0007123665808588523
-0.4145340271672467,-0.4145340271672467,0.9998955031201835,0.0007110253769218699
-0.4131443695630878,-0.4131443695630878,1.0003904319342103,0.0007136943173454443
-0.4114365820918465,-0.4114365820918465,0.9994597219907646,0.0007113964794555538
-0.4098828631162178,-0.4098828631162178,0.9987528063217328,0.000712215588316333
-0.4087506263575051,-0.4087506263575051,1.0000352203513896,0.0007131127551093301
-0.4071234454109799,-0.4071234454109799,1.0000510749917284,0.0007115563815917437
-0.4058359927672427,-0.4058359927672427,1.0005162847842084,0.0007126077158691515
-0.4044390754774213,-0.4044390754774213,0.9995745330324999,0.0007207250570532732
-0.40342227634973826,-0.40342227634973826,0.9991674885212035,0.0007150492453488325
-0.40240386919758747,-0.40240386919758747,0.9996071786544611,0.0007126397771391083
-0.40059859258471986,-0.40059859258471986,0.9999614720982045,0.0007109200620484975
-0.39938611573015803,-0.39938611573015803,1.0009535361364659,0.0010661532086453855
-0.3982177024881821,-0.3982177024881821,0.9999542719814972,0.0007122103706689721
-0.3967187311587622,-0.3967187311587622,1.0002342653676721,0.0007456352800026907
-0.3956221113592619,-0.3956221113592619,1.0005052700324992,0.0007119274477138183
-0.39381404787709473,-0.39381404787709473,0.9990410299648268,0.0007130425285964556
-0.3926816039573168,-0.3926816039573168,0.9995573233537913,0.0007314378221998471
-0.3910106932191411,-0.3910106932191411,0.999923432798767,0.0007122842925482061
-0.3895526385458652,-0.3895526385458652,1.0003019620768778,0.0007123327314819186
-0.3879166751896264,-0.3879166751896264,0.9998985923455933,0.0007121968340514462
-0.38624758124060465,-0.38624758124060465,0.9992185954730644,0.000712393538093425
-0.3850874856027076,-0.3850874856027076,1.00012703740052,0.0007125562649051013
-0.3836662043293472,-0.3836662043293472,1.0001081435053552,0.000711744388858656
-0.38207071969809475,-0.38207071969809475,1.00009574251087,0.0007123211358877081
-0.3804737654165365,-0.3804737654165365,0.999906974826127,0.0007116012926695867
-0.37931519740086517,-0.37931519740086517,0.9995644304306921,0.0007127052054182215
-0.3777714381692931,-0.3777714381692931,0.9988327323879,0.0007123853299735867
-0.3762654338992434,-0.3762654338992434,0.9997146035301387,0.0011706589744642079
-0.37500935949210545,-0.37500935949210545,1.0000573860724085,0.0007129404450995399
-0.37372986787813717,-0.37372986787813717,1.0004074885628857,0.0007120434782838658
-0.3725094198860461,-0.3725094198860461,1.0006037982075622,0.0007680476065404249
-0.3710321443650173,-0.3710321443650173,1.000406423231945,0.0007123545956926407
-0.3694802727550268,-0.3694802727550268,1.0009875663652346,0.0007261648631960558
-0.3685158339358168,-0.3685158339358168,0.9995241498769929,0.0007126492502639631
-0.36683606899750887,-0.36683606899750887,1.0003579051686893,0.0007113916729148716
-0.3655094684450887,-0.3655094684450887,0.9997282804787924,0.0008105317487436904
-0.36404944568057546,-0.36404944568057546,0.9999001698453686,0.000712343063057158
-0.3624390599521575,-0.3624390599521575,0.9997964839804379,0.0007145030474000636
-0.36145357945060824,-0.36145357945060824,0.999243369502954,0.0007122146734134636
-0.360133209041669,-0.360133209041669,0.9986040115250647,0.0007117300537605026
-0.3585338956734631,-0.3585338956734631,0.9997607274099508,0.0007121555458207258
-0.35684940333885606,-0.35684940333885606,0.999818389343799,0.0007120208900759574
-0.3556659733119886,-0.3556659733119886,0.9998139154255622,0.0007118452907230112
-0.35430161155818496,-0.35430161155818496,0.999860281336395,0.0007126229181544157
-0.35281930868222844,-0.35281930868222844,1.0001592285919485,0.0007120562267563012
-0.3513802065543132,-0.3513802065543132,1.0005238349455907,0.0007129843542087379
-0.3501183901244076,-0.3501183901244076,0.9989059861960458,0.000711559449499904
-0.34847198822244535,-0.34847198822244535,1.000440000980986,0.0007123593020970909
-0.3467679604247678,-0.3467679604247678,1.0007798899026228,0.0007120813925019897
-0.34559359537670387,-0.34559359537670387,1.0002588800195684,0.0007221726410172246
-0.3446451362920925,-0.3446451362920925,0.9995290698151817,0.0007125399118713421
-0.3429878508351976,-0.3429878508351976,1.0004893508863966,0.0007111812286493699
-0.34175485265732275,-0.34175485265732275,0.9994515517596249,0.0008658775973334062
-0.34056035469402557,-0.34056035469402557,1.000386709251165,0.0007119067977681536
-0.33883134259667713,-0.33883134259667713,1.0006048205360476,0.0007192079670073967
-0.3377789126272546,-0.3377789126272546,0.9991829560323472,0.0007123255793815861
-0.33635295428975953,-0.33635295428975953,0.9994242670143183,0.0007117442503247375
-0.3348655785113806,-0.3348655785113806,0.9997208178698948,0.0007199184134265091
-0.33332041626854336,-0.33332041626854336,1.0005045713922418,0.0007115726248969939
-0.3320642635691911,-0.3320642635691911,0.999966287832537,0.0007121154978358448
-0.330516664791503,-0.330516664791503,0.9999747854489947,0.0007127977041496141
-0.3284482378541725,-0.3284482378541725,0.9998008490691666,0.0007125617941954109
-0.3272597918490646,-0.3272597918490646,1.0001590273000347,0.0007120563036752646
-0.32591262234491297,-0.32591262234491297,0.9996028789352905,0.0007119600809135762
-0.3243081186839845,-0.3243081186839845,1.000002041938941,0.000711914279746483
-0.3227204251481453,-0.3227204251481453,1.0001822819818427,0.000716556749098484
-0.32170755120168903,-0.32170755120168903,1.0000248464795525,0.0007178801333222053
-0.3207749135239283,-0.3207749135239283,0.9996995399887574,0.0007126968480974541
-0.3191507010924397,-0.3191507010924397,1.0004704850364612,0.0007121375152156948
-0.3181230613059597,-0.3181230613059597,0.9998785755325035,0.0009431371385950831
-0.3169524438912049,-0.3169524438912049,0.9995376029240817,0.0007124451538758947
-0.3153142670489615,-0.3153142670489615,1.0000952334658773,0.0007266343930296554
-0.314151729317382,-0.314151729317382,1.000374032553048,0.0007124679281422829
-0.3128509470494464,-0.3128509470494464,0.9993721118320821,0.0007118991568039927
-0.3112144528015051,-0.3112144528015051,1.0003174016684795,0.0007160881377706053
-0.3097749742359156,-0.3097749742359156,0.9996800524631724,0.000711891364783595
-0.30820710876141677,-0.30820710876141677,0.9988639556760065,0.000711249558804276
-0.30668888114450965,-0.30668888114450965,1.000492738370321,0.0007127723666582713
-0.3049293331860099,-0.3049293331860099,0.9997914995831667,0.0007117315966528982
-0.3036004228080856,-0.3036004228080856,1.0001738586873974,0.0007129470091288983
-0.30239840937720147,-0.30239840937720147,1.000837052596672,0.0007118820334951509
-0.3007260670274263,-0.3007260670274263,0.9993002300481877,0.0007120701170832616
-0.2994472443620907,-0.2994472443620907,1.0000321056744041,0.0007205034868923942
-0.2982284926227294,-0.2982284926227294,1.0002162398754115,0.0007115896912210908
-0.297297368911677,-0.297297368911677,0.9999702214582824,0.0007156181100546208
-0.2958407655620249,-0.2958407655620249,0.9996262790018082,0.0007123567776847556
-0.2942872143670684,-0.2942872143670684,0.9989013346047388,0.0010398989808793734
-0.29310167724324854,-0.29310167724324854,0.9995453930519534,0.0007127804050872849
-0.2917831999744521,-0.2917831999744521,0.9999251171731911,0.0007121583872939669
-0.29054665596049745,-0.29054665596049745,1.0003398221801245,0.0007412017897567643
-0.28948345614480786,-0.28948345614480786,0.9998408866359361,0.0007146102532773971
-0.28765449626371264,-0.28765449626371264,1.0007538654814987,0.0007337857915283187
-0.28658067859360015,-0.28658067859360015,0.9997850891307468,0.0007123995833420526
-0.2848734645871446,-0.2848734645871446,0.9991507464959977,0.0007110795491111988
-0.28343927491805515,-0.28343927491805515,1.0002064295876412,0.0007131599690444781
-0.28177222158410586,-0.28177222158410586,0.9991646740896207,0.00071144735874852
-0.28020655950240325,-0.28020655950240325,0.9995564282688341,0.0007123744928269487
-0.2790573021396995,-0.2790573021396995,0.9996438463701235,0.0007131614396526169
-0.277467376345885,-0.277467376345885,0.9999259355202135,0.0007117717849002383
-0.2759464618022321,-0.2759464618022321,0.9991991724632874,0.0007126494169089327
-0.27460850022907835,-0.27460850022907835,1.0001379212088963,0.0007258328663223962
-0.27368725898559204,-0.27368725898559204,0.9997742721103833,0.0007132885744334471
-0.2723650878091576,-0.2723650878091576,0.999999557089898,0.0007127297547283153
-0.27071303697885013,-0.27071303697885013,0.9989463302557718,0.001150277729468372
-0.26946890383260325,-0.26946890383260325,0.9989237168720114,0.0007128403536773174
-0.2681963592855027,-0.2681963592855027,0.9989396458425743,0.000711880449132754
-0.2668800545798149,-0.2668800545798149,0.9991814544413733,0.0007620139181733814
-0.2656769160821568,-0.2656769160821568,1.0007733064738233,0.0007126972074649377
-0.2637808173050871,-0.2637808173050871,0.9996470123851424,0.0007266757743247496
-0.2627093849238008,-0.2627093849238008,1.0002110806180193,0.0007125479514896072
-0.2610246264084708,-0.2610246264084708,0.9994515002813877,0.0007113362583163588
-0.25970731507695743,-0.25970731507695743,1.00026057046496,0.0008013581816010956
-0.25824212124862245,-0.25824212124862245,0.999691272494367,0.0007121811763360498
-0.2566267023590626,-0.2566267023590626,0.9996372336142902,0.0007135563140260539
-0.2556469505710993,-0.2556469505710993,0.9999716537219495,0.0007125417997336706
-0.2543247021647403,-0.2543247021647403,1.0004814086400908,0.0007126024665469714
-0.2527250554179773,-0.2527250554179773,1.0004027871619505,0.0007124384220733041
-0.25104068899527193,-0.25104068899527193,1.0000441920436558,0.000712087175790628
-0.24985852295067162,-0.24985852295067162,0.9989368816456526,0.0007113133937314241
-0.24849702976353,-0.24849702976353,0.9988340745381128,0.0007125474292996837
-0.2467730554169975,-0.2467730554169975,0.9994357584195992,0.0007117952449179137
-0.2453255935164634,-0.2453255935164634,1.0003313765225585,0.0007123275244740608
-0.24396843686408828,-0.24396843686408828,0.9997956135558337,0.0007120216269392546
-0.2423617757653119,-0.2423617757653119,0.9998891314846855,0.0007125975581295634
-0.24061520880495663,-0.24061520880495663,0.9990623531928542,0.0007120998130177114
-0.23939510078635068,-0.23939510078635068,0.9995032280969041,0.0007238734695786292
-0.23817312026803847,-0.23817312026803847,0.9999186242705111,0.0007123268944556395
-0.2366449718014337,-0.2366449718014337,1.0003072958057924,0.0007109631326471131
-0.23554295898939018,-0.23554295898939018,0.9999985750609092,0.0008523921509125329
-0.23406534000241663,-0.23406534000241663,0.9998955324824562,0.0007116253800923312
-0.23254899620078504,-0.23254899620078504,1.0004757197954333,0.0007185039245964516
-0.2315458784578368,-0.2315458784578368,0.9999374838689612,0.0007118770455405259
-0.23015869836090133,-0.23015869836090133,0.9993562521248938,0.0007114124596048264
-0.2288334887009114,-0.2288334887009114,1.0008592328041812,0.0007209117153344355
-0.22718012240948154,-0.22718012240948154,1.0003909071188202,0.0007119053980346649
-0.2259922792261932,-0.2259922792261932,1.000250479750901,0.0007121622288746103
-0.22461787394713612,-0.22461787394713612,0.9998614540924617,0.000712513763514313
-0.22264311520266347,-0.22264311520266347,1.0005111550517893,0.0007123946177349063
-0.22145351433136967,-0.22145351433136967,1.0006404967520024,0.0007124408654508256
-0.22018112518417182,-0.22018112518417182,0.9996918946960536,0.000712014264774732
-0.21879276809340809,-0.21879276809340809,1.000636050304245,0.0007124870722152295
-0.2170989984908374,-0.2170989984908374,1.0005057809491922,0.000711810809318113
-0.2159043928841129,-0.2159043928841129,0.9994440587763203,0.0007187018037797943
-0.21496825586364138,-0.21496825586364138,1.0000977914067517,0.0007126515153784617
-0.21332846949226222,-0.21332846949226222,0.9997368945293648,0.0007110523919341907
-0.21208748448116238,-0.21208748448116238,0.999857668245164,0.0009244649598023185
-0.21088269833708181,-0.21088269833708181,0.9997327953834825,0.0007118193375092197
-0.20917202241544147,-0.20917202241544147,0.9997322696874041,0.0007247552740547861
-0.2081082645629067,-0.2081082645629067,0.9996480129148818,0.0007122855007194618
-0.2066796055645682,-0.2066796055645682,0.9999646632105975,0.0007117412308924165
-0.20518145833339077,-0.20518145833339077,0.9991102391720353,0.0007173359734641506
-0.20361628206446766,-0.20361628206446766,1.0002272653548252,0.0007117962465535724
-0.20212660988618153,-0.20212660988618153,1.001256083962068,0.0007121162083002841
-0.20056543666578364,-0.20056543666578364,1.0007410875994849,0.000712146106217459
-0.1987664177955594,-0.1987664177955594,0.9999473373192952,0.0007126628669299593
-0.19758195204194634,-0.19758195204194634,1.0011466670480202,0.0007121666658223755
-0.19624118520587217,-0.19624118520587217,0.999324843458103,0.000711783633160213
-0.1946380042907549,-0.1946380042907549,1.0000401755218156,0.0007119694596374978
-0.19304079379944597,-0.19304079379944597,0.9993277904763588,0.0007192955212297593
-0.1920212770171929,-0.1920212770171929,1.0000773369000442,0.0007119043630811514
-0.19109556277981027,-0.19109556277981027,0.999440391813617,0.0007170463925112178
-0.18948112195939756,-0.18948112195939756,0.9995119109599182,0.0007110691079668908
-0.18822947222797665,-0.18822947222797665,0.9978650206814372,0.0010168094815733802
-0.1870470623311121,-0.1870470623311121,0.9997712716966276,0.0007124079861016445
-0.1856577539962018,-0.1856577539962018,0.9999530543002029,0.0007380601932202205
-0.184477862532367,-0.184477862532367,0.9994043622340026,0.0007133407227394146
-0.18281439795391635,-0.18281439795391635,0.9998615280902371,0.0007120401544812553
-0.18146902532316744,-0.18146902532316744,1.00032241123925,0.0007365104529175728
-0.1800999693979975,-0.1800999693979975,1.0005489414498827,0.000712255647912729
-0.17854083066922613,-0.17854083066922613,0.9996062042453758,0.0007115030980185653
-0.17699984415376094,-0.17699984415376094,1.0002387130465507,0.0007130944036068145
-0.1752613677905174,-0.1752613677905174,1.0000099451260147,0.0007118965487671748
-0.17390884466003625,-0.17390884466003625,1.0005647935558208,0.0007133735469012556
-0.17273013698868453,-0.17273013698868453,1.000336103560112,0.0007121063971604676
-0.17104766716947778,-0.17104766716947778,0.9998044367048399,0.0007124254038068482
-0.1697610459465068,-0.1697610459465068,1.000165916577009,0.0007251057406715952
-0.16864056914637332,-0.16864056914637332,1.0000851128177106,0.000711199598616505
-0.16771192438027355,-0.16771192438027355,1.0001858619989923,0.0007137690690080707
-0.1665554265549872,-0.1665554265549872,0.9995585504242335,0.0007119848186724967
-0.16489971401169895,-0.16489971401169895,1.0024206965572025,0.001128034863240435
-0.16366693034360652,-0.16366693034360652,1.000086124955459,0.0007128018722930129
-0.1623907821252942,-0.1623907821252942,1.0001436608537837,0.0007124042890562178
-0.16106763102579863,-0.16106763102579863,0.999250302804354,0.0007564993249973523
-0.15987352869997268,-0.15987352869997268,1.0006363934548916,0.0007128137186966672
-0.15797491515113507,-0.15797491515113507,0.999947432581126,0.0007279060472132918
