time,time,flux,flux_err
-0.49995088229479734,-0.49995088229479734,1.000487502185103,0.0003726641322802161
-0.49985344807100773,-0.49985344807100773,1.0002731190259964,0.000436136043032667
-0.49970825987038553,-0.49970825987038553,0.999603596517268,0.0004280843189236422
-0.4996295296019525,-0.4996295296019525,1.0000387980600078,0.000433175168456126
-0.49955955292170984,-0.49955955292170984,1.0000641906348866,0.00034484883756085984
-0.4994708382961107,-0.4994708382961107,1.0000795810079115,0.00040888804227320137
-0.499323511403054,-0.499323511403054,0.9999790067604101,0.00037824785926634017
-0.49918290023197187,-0.49918290023197187,1.00008779985061,0.0003497145217494251
-0.4990672112820903,-0.4990672112820903,1.0003741074969799,0.0003948855870874674
-0.49888657630290256,-0.49888657630290256,1.0003824666747692,0.0005160537849108872
-0.4987712610454764,-0.4987712610454764,0.9997171662102492,0.00033891595954637125
-0.4987004242175317,-0.4987004242175317,1.0004477532200637,0.0003927063690636177
-0.4986485775298206,-0.4986485775298206,1.0001955051885292,0.00032239453820952376
-0.498598970513558,-0.498598970513558,0.9996505828042956,0.00039264527318287715
-0.4984726704242348,-0.4984726704242348,0.999602889380905,0.00033939021235003037
-0.49836304131313225,-0.49836304131313225,0.9999352931831007,0.0003239259907602617
-0.49821885526616827,-0.49821885526616827,0.9995061071574991,0.00040268194821529166
-0.4981776915366936,-0.4981776915366936,0.9999878778769334,0.00033701380665912637
-0.49809669529422534,-0.49809669529422534,1.0000140286902628,0.0003632017041885544
-0.4978978479746729,-0.4978978479746729,1.0000931349345221,0.00033636323630913616
-0.49782382117628005,-0.49782382117628005,0.9997256151468928,0.00033777407827448194
-0.4977312232287659,-0.4977312232287659,1.000415425818772,0.0003956758577731705
-0.49755308568201145,-0.49755308568201145,1.0005381346228694,0.0003290312020412609
-0.49748112048982873,-0.49748112048982873,1.000012845621798,0.00033281212620160324
-0.4974154622934293,-0.4974154622934293,0.9997194567506182,0.0003231736017702569
-0.49726987417452617,-0.49726987417452617,1.0004791936419137,0.00040918751381397226
-0.4971514952601865,-0.4971514952601865,1.000373803946419,0.00046389912196436237
-0.49704804264110863,-0.49704804264110863,1.0001196019762997,0.00032850186746089725
-0.49688718688703376,-0.49688718688703376,1.0001454152050322,0.00040945535446361956
-0.4967267988569802,-0.4967267988569802,0.9998563535459561,0.00040733751358579837
-0.49664506117333074,-0.49664506117333074,1.0002687470326452,0.0003283163718072765
-0.4965066626959015,-0.4965066626959015,1.0000048577633176,0.0004986797302407974
-0.4962811188524938,-0.4962811188524938,1.0000995510836683,0.0004184695368792805
-0.496140782351722,-0.496140782351722,1.0002914528816742,0.0004091819921727867
-0.49598563450781513,-0.49598563450781513,1.0000365837800214,0.0003944774432023459
-0.495866307651886,-0.495866307651886,0.9998908378588695,0.0003896282096604217
-0.4957236698777706,-0.4957236698777706,1.0002150346457224,0.0003998750598476229
-0.4956040044227848,-0.4956040044227848,1.0000857388740525,0.0003966769823797848
-0.4954458903921477,-0.4954458903921477,1.0001700087002572,0.00038351946637288706
-0.49533887377838254,-0.49533887377838254,1.0003207147748423,0.0003254807127186042
-0.4952349063110887,-0.4952349063110887,0.9999085822825193,0.0003985183858116966
-0.49505335767098585,-0.49505335767098585,0.9995979844723836,0.0004718216591190967
-0.4949272890982684,-0.4949272890982684,1.0000713076413175,0.000364489945159993
-0.49478929327451626,-0.49478929327451626,1.000059964476916,0.0004030154606008784
-0.49470505069184584,-0.49470505069184584,1.000171472593983,0.00036885213549028227
-0.49455846934506553,-0.49455846934506553,0.9997340526916438,0.0004725263656586735
-0.4944206590007525,-0.4944206590007525,0.9993708808223356,0.00036582165215337634
-0.49433851509384114,-0.49433851509384114,0.9995483244739317,0.0003479337054196377
-0.49428008045797467,-0.49428008045797467,1.0001305947601273,0.0004574397163092008
-0.4941075654453016,-0.4941075654453016,1.000408685051126,0.00035496760145927456
-0.4940123321750434,-0.4940123321750434,1.0004249584454237,0.00041129317985307825
-0.4939305710933695,-0.4939305710933695,0.999977853734381,0.0003470383725884908
-0.4938086953196034,-0.4938086953196034,1.000312219758813,0.00041725380805855927
-0.4936603203699633,-0.4936603203699633,1.0001975841442705,0.00034157028247786307
-0.493558048880368,-0.493558048880368,1.0002059889669255,0.00032240746058827773
-0.4934293802274624,-0.4934293802274624,1.000140937038169,0.0003247923684415738
-0.49332462878373917,-0.49332462878373917,1.000193137089281,0.0003491349449343909
-0.4932370180329599,-0.4932370180329599,0.9999295813578714,0.00041896170978935655
-0.4931257483731315,-0.4931257483731315,0.9999585974529396,0.0003476446188921681
-0.49296062652938416,-0.49296062652938416,0.999599179909854,0.00032489639503607007
-0.49282438409136375,-0.49282438409136375,0.9999180219800416,0.0003418430428182188
-0.49268968655742357,-0.49268968655742357,1.000141982735246,0.00040170874183354064
-0.49257211438962256,-0.49257211438962256,0.9994837994309146,0.00040410483283639714
-0.49250140786898555,-0.49250140786898555,1.0002406168846936,0.000365218229164738
-0.4924226462295337,-0.4924226462295337,0.9996984168795302,0.0003177936420459065
-0.49223603766004087,-0.49223603766004087,1.0005059147433752,0.0004048195342225253
-0.49214866007096136,-0.49214866007096136,0.9997650329675978,0.00033788006598045584
-0.4920372622735158,-0.4920372622735158,0.9994612147740061,0.00036009716535279513
-0.49188152200222246,-0.49188152200222246,0.9999905192880469,0.0003523422080474901
-0.49172645896105677,-0.49172645896105677,1.0000016928339588,0.0003589350618437888
-0.49161243290873247,-0.49161243290873247,1.0002172523251576,0.0003623608272764603
-0.4915266564450576,-0.4915266564450576,0.9997611988456795,0.00038448200521750694
-0.4914384239062201,-0.4914384239062201,1.0000476023250202,0.0003317012205621863
-0.49133574102961575,-0.49133574102961575,0.9999543382667901,0.0003674986330467889
-0.4912562250487099,-0.4912562250487099,0.9997417857147107,0.00042169712873147655
-0.49118717788151117,-0.49118717788151117,0.9994941027093536,0.00038517769939678685
-0.4911270522461564,-0.4911270522461564,0.9995087157170219,0.0004796563720416029
-0.4910468255293381,-0.4910468255293381,0.9996900473297426,0.0004079103590492148
-0.49097513005908694,-0.49097513005908694,0.9997743939552717,0.00034355155604377574
-0.4908922448019439,-0.4908922448019439,1.0006265898240543,0.00043340174638455424
-0.4908229346627195,-0.4908229346627195,0.9997961727102673,0.0003523054207378427
-0.4907515440150746,-0.4907515440150746,0.999847169360268,0.0004016772959394138
-0.4906669678399339,-0.4906669678399339,0.9998143322460887,0.00037063870066322504
-0.4905740990376216,-0.4905740990376216,1.0002715224062322,0.00031842520811996424
-0.4904817494607414,-0.4904817494607414,1.0004612610378232,0.0004036284474421473
-0.49040905200745327,-0.49040905200745327,1.0001669740303274,0.00044729593384439814
-0.49031873952262683,-0.49031873952262683,1.0003013323890897,0.00036112963475892166
-0.4902039861459343,-0.4902039861459343,0.9998338936791926,0.0004043625909051565
-0.49005980699657814,-0.49005980699657814,0.9995395490453015,0.0003595909223714837
-0.48997111956050504,-0.48997111956050504,1.0002210364038269,0.0003348381837810901
-0.48980934638748297,-0.48980934638748297,1.0001844940466307,0.000315409087005643
-0.48968450108077377,-0.48968450108077377,0.999879908313083,0.0003618243832733261
-0.48955019138229544,-0.48955019138229544,0.9999260052504703,0.0003234149160156028
-0.48938071675802347,-0.48938071675802347,0.9996157595941885,0.00040464959176903317
-0.4892692516565148,-0.4892692516565148,1.0002668135914077,0.0003226281365838816
-0.4891313441628881,-0.4891313441628881,1.000370928876884,0.0003376509170288877
-0.4889347326250572,-0.4889347326250572,1.0002816796731566,0.0003921106670072968
-0.48883854058512954,-0.48883854058512954,1.0000612522655745,0.0003383683626768135
-0.48867682888230773,-0.48867682888230773,0.9999068965038875,0.0003250410199383079
-0.4885001618677052,-0.4885001618677052,1.0001788396662445,0.00036345391768446836
-0.4882814571428753,-0.4882814571428753,0.9999864490090813,0.0003854575306495015
-0.48812940581483416,-0.48812940581483416,1.000253525134148,0.0003798337351823678
-0.48792424282219143,-0.48792424282219143,0.999758535184856,0.00035993491321176035
-0.48783348378638036,-0.48783348378638036,0.9999614805869887,0.000377432083896031
-0.48769517236505633,-0.48769517236505633,0.9999128824816484,0.0004244268109670726
-0.4876029594641295,-0.4876029594641295,1.0003220990517532,0.00037832855191979436
-0.48747688747243956,-0.48747688747243956,1.0001824976611067,0.00043212594465635683
-0.48736129812677975,-0.48736129812677975,1.000227618709289,0.0003468084415401699
-0.48732156730329734,-0.48732156730329734,1.0003693888015168,0.00036149085671372515
-0.48724069164964023,-0.48724069164964023,1.0002853861523504,0.0003820892613464806
-0.48712735876033547,-0.48712735876033547,0.999784201202232,0.00041807173809224417
-0.4870072112957132,-0.4870072112957132,1.000023205822115,0.00045666458609442225
-0.4869689331710106,-0.4869689331710106,1.0002015522421732,0.00035411714311525845
-0.4869049333421572,-0.4869049333421572,0.999924969586241,0.0004366855984900891
-0.4867368360290129,-0.4867368360290129,0.9999910852421383,0.0003735067852283878
-0.4866649801013409,-0.4866649801013409,0.9999402852702666,0.00035990116636502856
-0.48654390937153946,-0.48654390937153946,1.0001490562599096,0.0003828794698178656
-0.48641546982253203,-0.48641546982253203,0.9998398883925722,0.00036975648507598513
-0.486360572729609,-0.486360572729609,1.0001337789976075,0.0004412231512937855
-0.48624882965377764,-0.48624882965377764,0.9998629505313975,0.0003021174849764778
-0.4860803800678696,-0.4860803800678696,0.9997611978794707,0.00038689268940491896
-0.4859400147695851,-0.4859400147695851,1.000502370668877,0.0003449017226924607
-0.4858259655738948,-0.4858259655738948,1.000190806083753,0.000405351379412991
-0.4856218394219468,-0.4856218394219468,0.9998614454315236,0.00036081101026437057
-0.4854976920039917,-0.4854976920039917,0.9997388585807354,0.00031886158701218114
-0.48542015907223685,-0.48542015907223685,1.0007069496147873,0.00039593520331023056
-0.485350590213784,-0.485350590213784,1.000060656451455,0.00033534479398695394
-0.485220653336728,-0.485220653336728,1.0000594004819119,0.0003334909579199656
-0.4851319834669994,-0.4851319834669994,1.0001787251940584,0.00032434212354207835
-0.484988326576422,-0.484988326576422,0.9999323564290321,0.0003984431190670182
-0.48493908679301967,-0.48493908679301967,1.0002445309430648,0.00032929317404956787
-0.4848741919042368,-0.4848741919042368,1.0001030512408675,0.0003558076446209602
-0.484671841753152,-0.484671841753152,1.0000567812104393,0.00034605157841962106
-0.4845846467971569,-0.4845846467971569,1.0002049975442415,0.00033070299130694885
-0.48451155666261914,-0.48451155666261914,1.0003406678136737,0.0003743196464965602
-0.4843541556678247,-0.4843541556678247,0.9997576704557692,0.0003998003881574664
-0.48427875498746287,-0.48427875498746287,0.9997559497638153,0.0003204551066057764
-0.4842002276927815,-0.4842002276927815,1.0005763216478996,0.00034689338755980204
-0.484039289377688,-0.484039289377688,1.0001301754021665,0.00033720640003350973
-0.48395222439576174,-0.48395222439576174,1.000103601184522,0.00041722370000552304
-0.48382404987642075,-0.48382404987642075,1.0005574177765801,0.0003400623730893186
-0.48367985986842543,-0.48367985986842543,1.0003869326022379,0.0003456062728858829
-0.4835305669119407,-0.4835305669119407,0.9998844424505547,0.0004193275027275757
-0.48343306622409726,-0.48343306622409726,0.9999582487507377,0.00038490375009028624
-0.48335554676887116,-0.48335554676887116,1.0001710203070993,0.00046814283766607177
-0.4832154024508782,-0.4832154024508782,0.9999858719377158,0.0004566755450356763
-0.483057105304033,-0.483057105304033,0.9997273332406603,0.00033703896381557337
-0.4829136548207316,-0.4829136548207316,0.9997682819412483,0.00041440800738867394
-0.4827511781128123,-0.4827511781128123,1.0002877901262006,0.0004570756119512263
-0.48257343835721256,-0.48257343835721256,0.9999796814859693,0.00039617225148490834
-0.48246160864509874,-0.48246160864509874,0.9997281617125843,0.0004066650004270523
-0.48227580266466247,-0.48227580266466247,0.9993066472648799,0.00045131901754794237
-0.48206911773086175,-0.48206911773086175,0.9997420891472544,0.0004414289556034825
-0.48193134068642396,-0.48193134068642396,0.9999366611065568,0.0003990369095953408
-0.48176650246387,-0.48176650246387,1.0003872715301108,0.0004709469438028388
-0.48160390496996114,-0.48160390496996114,0.9993714516982648,0.00034763408599393543
-0.4815369749747333,-0.4815369749747333,0.9996832179490636,0.0004367344913448107
-0.4814664299476135,-0.4814664299476135,1.0003235379850217,0.0004171926428212473
-0.4813160548117594,-0.4813160548117594,1.0001421991761346,0.00040486345117216787
-0.4811594360835443,-0.4811594360835443,0.9998457214419485,0.0003671631469201784
-0.48106713557281183,-0.48106713557281183,0.9998570170999086,0.0003446506188815216
-0.48093451517052016,-0.48093451517052016,0.9998592153363189,0.00047636542215335207
-0.4807988675762317,-0.4807988675762317,1.0004770261070575,0.00034866464332346204
-0.4807439704891294,-0.4807439704891294,0.9997772814229012,0.0004084953799919767
-0.4806202455118182,-0.4806202455118182,0.9999421389168429,0.0003493945255528182
-0.48051981901953694,-0.48051981901953694,1.0002542054434067,0.0004051797503760642
-0.48036234808168954,-0.48036234808168954,1.0000691209863226,0.0003718377942900847
-0.48019341963299667,-0.48019341963299667,1.0000470728741568,0.0003437679290434163
-0.48007394110318274,-0.48007394110318274,0.9999072178515529,0.0003565327140600282
-0.4799734534964955,-0.4799734534964955,1.0004071536995884,0.0004169217485142324
-0.4798194229049841,-0.4798194229049841,1.0000257984451735,0.00043546635143214274
-0.47968927432229974,-0.47968927432229974,0.9999805951547343,0.00031204785076270185
-0.47958455798507205,-0.47958455798507205,1.0003531821330895,0.00041158207798909464
-0.4794340722350171,-0.4794340722350171,1.0004519321300458,0.0003930847001889151
-0.47936165478822657,-0.47936165478822657,0.9995750261602518,0.00043934647895359994
-0.47927230415225497,-0.47927230415225497,0.9998483915808292,0.0003822526420902855
-0.479208074327471,-0.479208074327471,0.9995898702151598,0.0003409792826225938
-0.47912412923251396,-0.47912412923251396,0.9996159116035198,0.00038661994302611774
-0.47892203020965096,-0.47892203020965096,1.0001278013969066,0.00042121431458238135
-0.4788197000634682,-0.4788197000634682,1.0001202796490603,0.0003526128124741039
-0.4787099986773683,-0.4787099986773683,1.0002883807783116,0.000324445056714715
-0.4786226924341463,-0.4786226924341463,0.9998216515337335,0.0003376264118956685
-0.4784797280553903,-0.4784797280553903,0.9998906118067735,0.00037777642482211685
-0.47836340257854315,-0.47836340257854315,0.9999628239283723,0.00034602093565213487
-0.47827800733575715,-0.47827800733575715,1.000386418111455,0.00038979804676538823
-0.47818152063046,-0.47818152063046,0.9998535786435244,0.00033711464628722454
-0.47809628945615257,-0.47809628945615257,1.0003772284558259,0.00036001985144438824
-0.47803678575364755,-0.47803678575364755,0.9998011994119615,0.0003282811901343317
-0.47797818736362385,-0.47797818736362385,1.0004197266242112,0.00040174815704483905
-0.4779307724063983,-0.4779307724063983,1.0004222934679363,0.00037220571770375566
-0.47783431332791226,-0.47783431332791226,1.0001984594720654,0.0003518716855737294
-0.47774916536945966,-0.47774916536945966,0.999779416348737,0.00042088456667522254
-0.4776572230861348,-0.4776572230861348,1.0000194161775569,0.0003318809063970629
-0.477561265227996,-0.477561265227996,1.0003378268001937,0.0003463226908041922
-0.4774815000702802,-0.4774815000702802,1.0000267177843907,0.00041597881233469377
-0.4774237441168225,-0.4774237441168225,1.0000576028714292,0.00036584241157834813
-0.4772680389069137,-0.4772680389069137,1.0003391177092376,0.00039644863707581884
-0.4771568339616351,-0.4771568339616351,1.0001530965941472,0.00045136532319475363
-0.47704500185209325,-0.47704500185209325,0.9997557120912383,0.00036537826499271616
-0.47685817432939076,-0.47685817432939076,1.0000250567707236,0.00035352166215467205
-0.4767594763005036,-0.4767594763005036,0.9996618155189667,0.000323143923824374
-0.4766217713542574,-0.4766217713542574,1.0001219946752204,0.00032729241464835696
-0.4764862440184515,-0.4764862440184515,1.0004017661890146,0.0003432045845028264
-0.4763817018741975,-0.4763817018741975,1.000585929517834,0.0003312166108157998
-0.4761528054914379,-0.4761528054914379,0.9993350488107133,0.00039457141999783135
-0.47602778657965245,-0.47602778657965245,0.9996908821395056,0.00035682666585259753
-0.4758545225049602,-0.4758545225049602,0.9998515175196727,0.00033634705779213146
-0.4756385788561602,-0.4756385788561602,0.999806098902917,0.00045582602358753795
-0.475455236187554,-0.475455236187554,0.9996183557639036,0.00040907923613392103
-0.47535972948753624,-0.47535972948753624,1.0004465111280272,0.00039831032772073393
-0.4751518670062069,-0.4751518670062069,0.9999428026217354,0.0004539012262295249
-0.4749928623772576,-0.4749928623772576,1.0001789493962316,0.0003861752588700496
-0.47483619429476676,-0.47483619429476676,1.0000644568508752,0.00034661208688611245
-0.47467005173311916,-0.47467005173311916,1.0004649007511701,0.00038819029489542276
-0.47454556458033037,-0.47454556458033037,1.000775359097828,0.0003691041751885234
-0.47444648685195717,-0.47444648685195717,0.9997758467990826,0.00037214615856862385
-0.4743779142743733,-0.4743779142743733,0.9994167633976867,0.0004269576804582815
-0.4742723792020115,-0.4742723792020115,1.000401784262856,0.0004952057715035692
-0.4741264808639244,-0.4741264808639244,0.9999577803087284,0.00043428398697933045
-0.47408642556401903,-0.47408642556401903,1.0000231346824047,0.0003671165728160948
-0.4739634154102532,-0.4739634154102532,1.000229410156185,0.00045512456519400114
-0.4738256515309331,-0.4738256515309331,1.000073823768021,0.00043643365764696256
-0.473732760718849,-0.473732760718849,1.0004689450820305,0.0003481768853090436
-0.47363429359029396,-0.47363429359029396,1.0002302847949327,0.00043653681962092447
-0.4735141120305343,-0.4735141120305343,0.9997610310528003,0.000417644102440166
-0.4734251649111684,-0.4734251649111684,0.9995293932232642,0.0003470756425621725
-0.47327725551003824,-0.47327725551003824,0.9994841978691532,0.00044065588056678483
-0.4731629776804766,-0.4731629776804766,1.0002108355577861,0.00042931901949487913
-0.47310654666653135,-0.47310654666653135,1.00016739199159,0.00044145667696422286
-0.472992278640595,-0.472992278640595,1.0004710793106644,0.0003021678311693137
-0.47284459390502886,-0.47284459390502886,0.9996477701347993,0.0004131895100753568
-0.47272852197129395,-0.47272852197129395,0.999927645590815,0.00036855981194276337
-0.4725981682422571,-0.4725981682422571,0.9999732025148365,0.000319073965122153
-0.4725416077992122,-0.4725416077992122,0.9998611437040712,0.00039010872969618516
-0.4723858941018989,-0.4723858941018989,0.9997885029655578,0.000360840704766295
-0.4722580203968391,-0.4722580203968391,1.000078415821389,0.00031877295439358265
-0.47215078634399105,-0.47215078634399105,0.9994628709673419,0.0003923309794109267
-0.4720860981862643,-0.4720860981862643,0.999494084760953,0.000331086207228483
-0.47200084381765917,-0.47200084381765917,1.0002054762009194,0.0003349684190763316
-0.47192696388519834,-0.47192696388519834,1.0001807959066036,0.0003438094736478077
-0.4718204367112776,-0.4718204367112776,0.9998148627202564,0.00040462581948717705
-0.47171929995020034,-0.47171929995020034,1.0002651832549652,0.0003490987492344767
-0.4716606336987752,-0.4716606336987752,1.00023917825633,0.0004134583321073916
