time,time,flux,flux_err
-0.4999727027323388,-0.4999727027323388,1.0000082372563726,6.910489392430614e-05
-0.49985031997784973,-0.49985031997784973,1.0000343790608306,6.789463953368244e-05
-0.4996610368223628,-0.4996610368223628,0.9999131005148885,6.748966891180057e-05
-0.49960392522261826,-0.49960392522261826,0.99983663041074,6.85999628640195e-05
-0.49950857593430553,-0.49950857593430553,1.00000572186805,6.980205789725217e-05
-0.4993544042321446,-0.4993544042321446,0.9999236517125079,6.836425114629309e-05
-0.4992249467191868,-0.4992249467191868,0.9999332954491509,6.829442615590545e-05
-0.4990836937118729,-0.4990836937118729,0.9998957058663471,6.825998598158389e-05
-0.4989156634379469,-0.4989156634379469,0.9999715225995051,6.896420713926796e-05
-0.49873730007384437,-0.49873730007384437,0.9999509131836437,6.776987089721897e-05
-0.49859626982433836,-0.49859626982433836,1.0000197334940608,6.942236865254446e-05
-0.4984797956283728,-0.4984797956283728,1.0000520442173082,7.060502200487473e-05
-0.4983368060136854,-0.4983368060136854,0.9999162028824179,7.168741966870818e-05
-0.4981435601817793,-0.4981435601817793,0.999979957662449,6.928365494719379e-05
-0.4980318949950743,-0.4980318949950743,1.000032069577203,6.893432595435784e-05
-0.4979181215101562,-0.4979181215101562,0.999964200059092,6.914608051132432e-05
-0.4978184767489438,-0.4978184767489438,1.0000082418709728,6.822974588361343e-05
-0.4977399317576783,-0.4977399317576783,0.9999773051975183,7.002676696875383e-05
-0.4975986817931698,-0.4975986817931698,1.0000450575012134,6.937302471866021e-05
-0.4974936124854139,-0.4974936124854139,0.9999446432720525,6.93243882823431e-05
-0.4973317887539451,-0.4973317887539451,0.9999996969900922,6.9170094916089e-05
-0.49719562515456345,-0.49719562515456345,1.0000606110899892,7.024223197805705e-05
-0.49704468456984613,-0.49704468456984613,1.000012486802044,7.014122705382701e-05
-0.4969100533322489,-0.4969100533322489,0.9999925793475428,6.937148823521221e-05
-0.49683876328563203,-0.49683876328563203,0.9999306727161651,7.036949337730123e-05
-0.49667589036471327,-0.49667589036471327,0.9999749699287144,6.838581426725252e-05
-0.4966081019549165,-0.4966081019549165,1.0000622254790952,6.766735057251258e-05
-0.4964470672530297,-0.4964470672530297,1.0000115323195353,6.890058856246131e-05
-0.4963188777444884,-0.4963188777444884,0.9999454538235056,6.861338139625524e-05
-0.4961608367651934,-0.4961608367651934,0.99999218939323,6.835963960516052e-05
-0.49594021507291475,-0.49594021507291475,1.0000990859620942,6.821196306958037e-05
-0.4957960631305468,-0.4957960631305468,0.9999955163200696,6.897474702225942e-05
-0.4956852765761141,-0.4956852765761141,0.9998388162670745,6.762772033922148e-05
-0.49558354332402815,-0.49558354332402815,0.9999449182443796,6.852599140087256e-05
-0.49548104163550305,-0.49548104163550305,1.0000535269681483,6.770135940677514e-05
-0.49541562389276805,-0.49541562389276805,1.0000230134963681,6.764963172534493e-05
-0.49529382562541285,-0.49529382562541285,0.9999597086963525,7.25119756957374e-05
-0.4951645451204968,-0.4951645451204968,0.9999176317424009,6.780572658690236e-05
-0.4950414244216518,-0.4950414244216518,1.0000689574412713,6.965167238011841e-05
-0.4948768617687165,-0.4948768617687165,1.000046975408654,6.844523409994693e-05
-0.494756348564988,-0.494756348564988,1.0000360309554868,6.840325065260082e-05
-0.49466247199234203,-0.49466247199234203,0.9998999782098418,6.847504369135232e-05
-0.4945874769488,-0.4945874769488,0.9999631575914737,6.830286495838821e-05
-0.4945109044179844,-0.4945109044179844,1.0000071476525458,6.892999499721874e-05
-0.4943522312911227,-0.4943522312911227,0.999985222174567,6.867924517950595e-05
-0.49415244596093544,-0.49415244596093544,0.999973974391752,6.78343503194413e-05
-0.49402676864847306,-0.49402676864847306,0.999956386629043,7.108281364864829e-05
-0.49389910452300684,-0.49389910452300684,1.0000390857837398,6.737333957644579e-05
-0.49380251273032627,-0.49380251273032627,1.0001303731507065,6.969512927885692e-05
-0.49370289907601544,-0.49370289907601544,1.0001271190002654,6.867400947718431e-05
-0.4935581647696381,-0.4935581647696381,0.9999285314155764,6.849877266465468e-05
-0.49342541946389246,-0.49342541946389246,0.9999719249740788,6.853143450249653e-05
-0.49332040441149727,-0.49332040441149727,0.9999991034439315,6.896729778745755e-05
-0.4931094281477272,-0.4931094281477272,0.9999283599844793,6.810889194173726e-05
-0.4929166775866179,-0.4929166775866179,0.999969797713951,6.784830604980311e-05
-0.4927465829299763,-0.4927465829299763,1.0001053224050067,6.889424483888542e-05
-0.4926682830751815,-0.4926682830751815,0.9998935256049183,6.848085506649337e-05
-0.4923830019404704,-0.4923830019404704,0.9999869760051266,6.8171465076641e-05
-0.49225872647512003,-0.49225872647512003,0.9999148037684036,6.885692532669353e-05
-0.4921161506041244,-0.4921161506041244,0.9999552655546434,6.862496942464855e-05
-0.49202772781209203,-0.49202772781209203,1.0000160585507405,6.937850475446386e-05
-0.49193563290682507,-0.49193563290682507,1.000109385252566,6.892864105159298e-05
-0.49178883238928395,-0.49178883238928395,1.0000108323572952,6.904086902461105e-05
-0.49161614547192584,-0.49161614547192584,0.999996018193254,6.826549627239286e-05
-0.49144617931888207,-0.49144617931888207,1.0001014881810115,7.089784955258405e-05
-0.4912926958160824,-0.4912926958160824,0.9999299573125426,6.800017168505034e-05
-0.49114358642909794,-0.49114358642909794,0.9999827548389323,7.093335020902644e-05
-0.49108851067940124,-0.49108851067940124,1.0000151041004508,6.873153737052732e-05
-0.49101722049890667,-0.49101722049890667,1.0000230129297225,6.995025150603721e-05
-0.4908458883379353,-0.4908458883379353,1.0000690880464567,6.746194052234967e-05
-0.49074663883802716,-0.49074663883802716,0.999977102419231,6.779452275223596e-05
-0.49061784914374584,-0.49061784914374584,0.9997853360776704,6.879970204937412e-05
-0.49049104006480776,-0.49049104006480776,0.9999960845667287,6.911310021905498e-05
-0.4902898799809918,-0.4902898799809918,0.9998737928326143,6.82439200582517e-05
-0.49010163035054577,-0.49010163035054577,0.9998907388871776,6.858008066034881e-05
-0.48999809671367983,-0.48999809671367983,1.000032330296499,6.900783390498817e-05
-0.4898658885475015,-0.4898658885475015,1.0000498474875408,6.770773070917345e-05
-0.48972719598386905,-0.48972719598386905,0.9998897727198077,6.76785555797555e-05
-0.4896536546657444,-0.4896536546657444,1.0001043712943947,6.795959385104645e-05
-0.48958241009750053,-0.48958241009750053,0.9998810759697202,7.606547927414672e-05
-0.48946613285152124,-0.48946613285152124,0.9999553353399337,6.788956215146664e-05
-0.4893632196428371,-0.4893632196428371,0.9999702993787654,6.839088737634733e-05
-0.48928106795501664,-0.48928106795501664,1.0000416601570485,7.016217209888732e-05
-0.4891031670056691,-0.4891031670056691,1.0000231114822289,6.780187423419264e-05
-0.48895650553677117,-0.48895650553677117,0.9999918355195545,6.949807759731798e-05
-0.4888513288417016,-0.4888513288417016,1.0001202452407891,6.769951125088178e-05
-0.48879604802568793,-0.48879604802568793,0.9999791979138737,6.83205142316154e-05
-0.48867411288738366,-0.48867411288738366,1.0000858443176586,6.969747523672517e-05
-0.48856640664162115,-0.48856640664162115,1.0000362478894238,6.870087713883452e-05
-0.48843660777711195,-0.48843660777711195,0.9999255063764364,7.497762610682006e-05
-0.48834004170275874,-0.48834004170275874,0.9998870007608401,6.78257575443392e-05
-0.48821472170893687,-0.48821472170893687,0.9999274222092829,6.878171568547236e-05
-0.48810727360541933,-0.48810727360541933,0.9999828807607128,6.795167829060992e-05
-0.48799268535804,-0.48799268535804,0.9999395718223427,6.91243216873885e-05
-0.48791726031922733,-0.48791726031922733,1.0000884872658873,6.870589446613038e-05
-0.4878145730923279,-0.4878145730923279,0.9999867956219589,6.804953809837739e-05
-0.4876593225606484,-0.4876593225606484,1.0000455430525406,6.853552859322851e-05
-0.4875915852309845,-0.4875915852309845,1.0000559047946365,6.877999203012255e-05
-0.4874219105906377,-0.4874219105906377,1.0000585967642601,6.858383654889787e-05
-0.4871441366878571,-0.4871441366878571,1.0000482866876323,6.80206618576303e-05
-0.48691243562789166,-0.48691243562789166,1.000130704062796,6.854089040414895e-05
-0.48683502539934126,-0.48683502539934126,1.0000392533272084,6.850837283758145e-05
-0.48657883944615604,-0.48657883944615604,0.9999802014882324,6.785350674256047e-05
-0.48647200476843866,-0.48647200476843866,1.0000960920455526,6.993416165623032e-05
-0.48635474087350306,-0.48635474087350306,1.000017898424546,6.83902305935028e-05
-0.4862813755098614,-0.4862813755098614,1.0000556153613591,6.939430811545655e-05
-0.48618470740111663,-0.48618470740111663,1.0000917325370053,6.926520566710864e-05
-0.48603426551562734,-0.48603426551562734,1.0000109101820331,6.805734548271914e-05
-0.485858523985371,-0.485858523985371,0.999978482963847,6.993193416243541e-05
-0.4857020059258502,-0.4857020059258502,0.9999828095445291,6.823059337140171e-05
-0.485565214070084,-0.485565214070084,1.0001094070757923,6.990470670414529e-05
-0.4853678831248544,-0.4853678831248544,0.9999731268655374,7.102236244995293e-05
-0.48532142410549567,-0.48532142410549567,1.0001144855084156,6.895968351118098e-05
-0.4852741904731374,-0.4852741904731374,0.9999587090792387,6.857315446382405e-05
-0.4851740007252374,-0.4851740007252374,1.0000714153784263,6.900289966315719e-05
-0.48503683725721203,-0.48503683725721203,0.99998367729654,6.708820063142757e-05
-0.48492471425270195,-0.48492471425270195,1.0000302191570476,6.928926603167208e-05
-0.48476442161991146,-0.48476442161991146,0.9999820728754127,6.976682736826137e-05
-0.4845775783258432,-0.4845775783258432,1.0000378665919563,6.822532946163746e-05
-0.48435858436350826,-0.48435858436350826,0.9999717087433779,6.960267384321606e-05
-0.48424678847004543,-0.48424678847004543,0.999933694872424,6.862081378168023e-05
-0.4841370111418655,-0.4841370111418655,0.9999958818982584,6.706729812956661e-05
-0.483972731015092,-0.483972731015092,0.9999282972556216,6.834113972290847e-05
-0.4838966972864,-0.4838966972864,1.0000485851919578,7.407471498144605e-05
-0.4837601784834987,-0.4837601784834987,0.9999683982184102,6.933843037399747e-05
-0.4836600684284349,-0.4836600684284349,1.0001145782556449,6.830801616221361e-05
-0.48354608043227926,-0.48354608043227926,1.000091269851594,6.871886297372331e-05
-0.4834273359745566,-0.4834273359745566,1.0001528602790277,6.808354176112138e-05
-0.48327306397841313,-0.48327306397841313,0.9999594228131163,6.779082366493587e-05
-0.48312920110547564,-0.48312920110547564,1.0001189740427574,6.966120997990019e-05
-0.4830587324249791,-0.4830587324249791,1.0000432017989398,6.697723242865699e-05
-0.4829729371733265,-0.4829729371733265,1.0000814601737493,6.911020174769108e-05
-0.48287790603208125,-0.48287790603208125,0.9999858581150652,6.808397142877467e-05
-0.4827849884888565,-0.4827849884888565,0.9999737367813305,6.875320914579133e-05
-0.48267103723119364,-0.48267103723119364,0.9999281340154005,7.368954751121156e-05
-0.4825146931070776,-0.4825146931070776,0.9999900681029554,6.937433020897475e-05
-0.4823975582869025,-0.4823975582869025,0.9999738687069069,6.766778122512531e-05
-0.4823183328539017,-0.4823183328539017,0.9999964542527728,6.89293250927734e-05
-0.48224328557698753,-0.48224328557698753,1.000016640788615,6.735507463604835e-05
-0.4821396543949959,-0.4821396543949959,1.0000923665393509,6.873206985644363e-05
-0.4820479061709193,-0.4820479061709193,0.9999912791487073,6.904272775112254e-05
-0.481920351019653,-0.481920351019653,1.00005657523866,6.808343745087925e-05
-0.4818262484353909,-0.4818262484353909,1.0000062396346205,6.856408878070836e-05
-0.48165994302835313,-0.48165994302835313,1.0001247899904129,6.891174627854809e-05
-0.481478979523672,-0.481478979523672,0.9998854437233,6.775375708888362e-05
-0.48125801413625596,-0.48125801413625596,1.0001139499952294,6.877276680645999e-05
-0.4810783680099121,-0.4810783680099121,1.000085422597683,6.826625664997494e-05
-0.4808896414433548,-0.4808896414433548,1.0000061581025386,6.854142704885756e-05
-0.4807455538088107,-0.4807455538088107,1.0000443927024576,6.855328957197783e-05
-0.4805879578620079,-0.4805879578620079,0.9999423411086287,6.94015495966222e-05
-0.4804834348076838,-0.4804834348076838,0.9999075000010513,6.936703013232123e-05
-0.4803407647144923,-0.4803407647144923,0.9999818730090755,6.890248448095839e-05
-0.4802067746561079,-0.4802067746561079,1.0001625059523414,6.913591751250284e-05
-0.4800577213296492,-0.4800577213296492,1.0000622651412616,6.824387956907672e-05
-0.4798777018120745,-0.4798777018120745,0.9999514993268018,6.796091580568325e-05
-0.47974080646745276,-0.47974080646745276,1.0000493102859696,6.946314972288374e-05
-0.47959688613045726,-0.47959688613045726,0.9999998113778051,6.984749783030944e-05
-0.47955369210103527,-0.47955369210103527,0.9998902868151326,6.892470446827106e-05
-0.4795046276063658,-0.4795046276063658,0.9999358344868318,6.918715781018429e-05
-0.4794122092833277,-0.4794122092833277,1.0000699313381916,6.948403234893321e-05
-0.4792587473610183,-0.4792587473610183,0.9999819372829759,6.786590793165559e-05
-0.4791422304158914,-0.4791422304158914,1.000061689842425,6.826620248011629e-05
-0.47897350672792527,-0.47897350672792527,1.0000558563676358,6.902150566102559e-05
-0.4788045632070862,-0.4788045632070862,0.9999555070011563,6.915923039778693e-05
-0.47867991977691415,-0.47867991977691415,0.9999846441741507,6.933009527611111e-05
-0.47850933458321376,-0.47850933458321376,1.0000482739299057,6.921938718025523e-05
-0.47840386074967683,-0.47840386074967683,1.000021828095003,6.741149966055457e-05
-0.47824420673787243,-0.47824420673787243,0.9999780792980804,6.766539382706113e-05
-0.4781145840745012,-0.4781145840745012,1.0001030836507128,7.28996992719846e-05
-0.47792734546819704,-0.47792734546819704,0.9999396839817498,6.846805792594768e-05
-0.47783261938093347,-0.47783261938093347,1.0000727422933096,6.845375901268493e-05
-0.4777205019709072,-0.4777205019709072,1.0000649108079214,6.859977698582008e-05
-0.47753578666379326,-0.47753578666379326,1.0000580352468753,6.838422857104575e-05
-0.4774002910067793,-0.4774002910067793,1.000139626331685,6.902519953266967e-05
-0.4773274844083062,-0.4773274844083062,0.9999709528520071,6.841093170862665e-05
-0.4772540973266587,-0.4772540973266587,1.0001957881976966,6.895143812038338e-05
-0.4771887736824283,-0.4771887736824283,0.9998883771984856,6.934014249245006e-05
-0.47707250955936614,-0.47707250955936614,0.9999496087729016,6.821715455221837e-05
-0.4769542503352568,-0.4769542503352568,0.9999257652149197,6.851068063204892e-05
-0.47684961535196635,-0.47684961535196635,0.999974300920487,7.588836409093113e-05
-0.4767361568105116,-0.4767361568105116,1.0000295584694512,6.83233860918056e-05
-0.4766273072258628,-0.4766273072258628,0.9999443993029677,6.785982752587904e-05
-0.4765860723869991,-0.4765860723869991,0.9999848920461302,6.847626039557128e-05
-0.47650500832969556,-0.47650500832969556,1.0001020151938314,6.904677828863623e-05
-0.4763711757477722,-0.4763711757477722,1.0000495782392802,6.852770589097981e-05
-0.47630688786957764,-0.47630688786957764,1.000029567125869,6.88311855210032e-05
-0.4762683881090197,-0.4762683881090197,0.9999868039886527,6.924839369622623e-05
-0.47615218978680784,-0.47615218978680784,1.0001631809058862,6.819922775689641e-05
-0.4760425815424242,-0.4760425815424242,1.0000156324897382,7.138072214630078e-05
-0.47587917113414735,-0.47587917113414735,0.9999409577311301,6.869976121290175e-05
-0.47572159355913757,-0.47572159355913757,0.999835805642304,6.753543210985632e-05
-0.4755467452421726,-0.4755467452421726,1.000006786596319,6.920493554085527e-05
-0.4754079999147507,-0.4754079999147507,1.0000340335085656,6.92174857747482e-05
-0.4752764345794276,-0.4752764345794276,0.9998970429445239,6.920601527648162e-05
-0.4751440980035113,-0.4751440980035113,1.0000082741391867,7.836729256926867e-05
-0.47502658603189046,-0.47502658603189046,0.9999182714906054,6.794718043544044e-05
-0.47488832875606024,-0.47488832875606024,1.000030221910037,6.893936137240381e-05
-0.47473791050360886,-0.47473791050360886,0.9999920038030332,6.785127789662226e-05
-0.4746175000378571,-0.4746175000378571,0.9999612810841565,6.95687273058374e-05
-0.47447740755960693,-0.47447740755960693,0.9999855059634417,6.875049370738605e-05
-0.47438232485437765,-0.47438232485437765,1.0000132624052607,6.956263210890791e-05
-0.4742640013224445,-0.4742640013224445,0.999963013404981,6.841931202883876e-05
-0.47412173940174396,-0.47412173940174396,0.9999250681949083,6.979179656573405e-05
-0.47395507554829236,-0.47395507554829236,0.9998648080218983,6.99611376356068e-05
-0.4738232404539303,-0.4738232404539303,1.0000352073445762,6.923370991209321e-05
-0.47377830564728357,-0.47377830564728357,0.9999281336250876,6.86859090768477e-05
-0.4736838562726916,-0.4736838562726916,1.000092996033371,6.974230249423902e-05
-0.4735689138804446,-0.4735689138804446,0.999881253757415,6.832779090816929e-05
-0.47347894013073527,-0.47347894013073527,0.9999369855790731,6.849932742630205e-05
-0.47341194567925415,-0.47341194567925415,0.9999065090139307,6.939448516386395e-05
-0.473309927812079,-0.473309927812079,1.0001483174411274,6.849361918421751e-05
-0.4731312969139253,-0.4731312969139253,0.9999671066131122,6.857115645764284e-05
-0.4729558791295858,-0.4729558791295858,0.9999298388184055,6.807024533816114e-05
-0.47283257587987465,-0.47283257587987465,1.000065216043975,7.063371194610732e-05
-0.47269901312320145,-0.47269901312320145,1.0000832823513952,6.836814663292253e-05
-0.472553860219341,-0.472553860219341,0.9999827132357708,6.799671597453578e-05
-0.47234214891650483,-0.47234214891650483,1.0000149858107985,6.875867068636488e-05
-0.47216523509778197,-0.47216523509778197,1.0000248095730517,6.854425885938607e-05
-0.47206891939713386,-0.47206891939713386,0.9999849629634776,7.137209395591725e-05
-0.4718775045381335,-0.4718775045381335,1.0000666524159203,6.833089521496904e-05
-0.4716968549073499,-0.4716968549073499,1.0000139288752943,6.916673078108813e-05
-0.47161330310191263,-0.47161330310191263,1.000038894177139,6.947805055665577e-05
-0.4715265242914029,-0.4715265242914029,1.0000778159119101,7.154674732774336e-05
-0.4714384979546594,-0.4714384979546594,1.000016141812001,6.880312389958445e-05
-0.47126768883754266,-0.47126768883754266,1.0000761720909832,6.76349159707873e-05
-0.47117690709419546,-0.47117690709419546,0.9999421189588098,7.413186967551877e-05
-0.4710908865170495,-0.4710908865170495,0.999866494697755,6.813862713523069e-05
-0.47099637812789297,-0.47099637812789297,1.0000433753156774,6.867048520153663e-05
-0.47086264992685756,-0.47086264992685756,0.9999352995917767,6.803528252649257e-05
-0.47079853794421067,-0.47079853794421067,1.0000566516500013,7.003455119999338e-05
-0.4707446213855292,-0.4707446213855292,1.0000171463682679,6.774025259500905e-05
-0.47062239342485557,-0.47062239342485557,1.000009348397411,6.82125990747407e-05
-0.47053204262192594,-0.47053204262192594,1.0000796350985346,6.776922798886177e-05
-0.470464819517656,-0.470464819517656,1.000112284492494,6.955141398936862e-05
-0.47035606350837045,-0.47035606350837045,0.9999266549165773,6.801413221886492e-05
-0.47021531939462874,-0.47021531939462874,0.9999210516464927,6.796543720164701e-05
-0.4700781218103657,-0.4700781218103657,0.9999578185593085,6.859440558262228e-05
-0.4699764230434084,-0.4699764230434084,0.9999323775081763,6.75070473499267e-05
-0.46981820158325716,-0.46981820158325716,1.0000938726308273,6.828953533696857e-05
-0.4696471896633739,-0.4696471896633739,1.0000277392258852,6.909348845377852e-05
-0.46950518303710853,-0.46950518303710853,0.9999810978087631,6.967727494681852e-05
-0.4693760655034566,-0.4693760655034566,0.9999895907287428,7.208973877386024e-05
-0.4691948059065908,-0.4691948059065908,1.0000135043608678,6.854848309679818e-05
-0.46902402113992137,-0.46902402113992137,0.9999948428215613,6.89392078880227e-05
-0.46892126462698797,-0.46892126462698797,1.0000689018490276,6.891821906956427e-05
