time,time,flux,flux_err
-0.49978181288255047,-0.49978181288255047,0.9999408261863788,0.00023494605037327796
-0.49948080698656366,-0.49948080698656366,0.999768842387834,0.000230369309537995
-0.4994253512348223,-0.4994253512348223,0.9998367615202332,0.00021130855185834738
-0.4993369187563076,-0.4993369187563076,1.0001597794384869,0.00021057473623358874
-0.4992183739028405,-0.4992183739028405,1.0001994904755969,0.00021735443573463789
-0.4991501807009627,-0.4991501807009627,1.0001149446619404,0.00020806267638868534
-0.49910393822356125,-0.49910393822356125,1.0001575896969097,0.00021660518785554333
-0.49903511294251074,-0.49903511294251074,0.9999188764981763,0.000205053918258069
-0.4989574295053899,-0.4989574295053899,0.999822573791603,0.00021860986178401154
-0.4988546568107267,-0.4988546568107267,1.000055402720078,0.00020348059590442408
-0.4987900003630784,-0.4987900003630784,1.0000129449450224,0.0002097497551438387
-0.4987195761626936,-0.4987195761626936,0.9998176363964071,0.00020346408309939004
-0.4986541989572288,-0.4986541989572288,0.9999892345547183,0.00019559586829445003
-0.49857852028726485,-0.49857852028726485,0.999807032526167,0.00021156172926136847
-0.498467010276363,-0.498467010276363,1.0003224996405358,0.00023407332384520673
-0.4983256344377878,-0.4983256344377878,1.0002490271490991,0.00021317563558628116
-0.49814219679756205,-0.49814219679756205,0.9999977484506353,0.0002279415771189029
-0.4979655424845987,-0.4979655424845987,1.0001746276223868,0.0002285059744599738
-0.4978081539658888,-0.4978081539658888,0.9998534316161101,0.00022218903300623766
-0.49764407842958464,-0.49764407842958464,1.0001977959185533,0.00021650741775966134
-0.49749421991291454,-0.49749421991291454,0.9999967024081773,0.0002132901708020192
-0.49735893887409477,-0.49735893887409477,0.9999484968531338,0.00021117440367558583
-0.4972602518675558,-0.4972602518675558,0.9999148200212689,0.00019182016736317165
-0.49719811804534403,-0.49719811804534403,1.0002156610575679,0.00021052272568477517
-0.4970985792140709,-0.4970985792140709,0.9999037248726019,0.00020474737786837358
-0.49698123729249344,-0.49698123729249344,1.0001663381458055,0.00020586539310219783
-0.49685281747297266,-0.49685281747297266,0.9998548070425735,0.0002158661654367054
-0.49674138618793223,-0.49674138618793223,1.0001096130989295,0.00021853193312328578
-0.49660083704948194,-0.49660083704948194,1.000009189492793,0.00021388857132751058
-0.4965189628630469,-0.4965189628630469,1.0002287654206017,0.00022852411359427417
-0.49642823626491006,-0.49642823626491006,0.999763589479507,0.00019569806980327667
-0.4963376858853735,-0.4963376858853735,1.00019729178292,0.00020965799757664667
-0.4962236226485402,-0.4962236226485402,1.0002733946347622,0.00023734563364442968
-0.49606549463933336,-0.49606549463933336,0.9996425001642033,0.00020873248520308978
-0.49594686614436795,-0.49594686614436795,0.9999563720790665,0.00021178900195825532
-0.4958611151319928,-0.4958611151319928,0.9998534321719074,0.0002067422570968135
-0.49577974827916477,-0.49577974827916477,0.999703397552063,0.0002093811040168747
-0.49568980470648966,-0.49568980470648966,0.9998938571830382,0.0002262353777646624
-0.49557149162792485,-0.49557149162792485,0.9998426668112641,0.000203739855890429
-0.4954507615584589,-0.4954507615584589,1.0000750328174863,0.00020388199306277946
-0.4953326974893571,-0.4953326974893571,1.0002052457305788,0.000212550914048456
-0.49526878083925113,-0.49526878083925113,1.0000466961854992,0.00020668883302679816
-0.4951980816178548,-0.4951980816178548,1.0000722634243264,0.00021633607270860213
-0.4950430235359818,-0.4950430235359818,0.9999760618547431,0.00020766533064046165
-0.4948057292633166,-0.4948057292633166,1.0002227104594528,0.0002221533965852458
-0.4947058550118527,-0.4947058550118527,1.0000626212982364,0.0002031857963302429
-0.49453726231658945,-0.49453726231658945,0.9998290089308176,0.00022197837729003256
-0.4943552096170606,-0.4943552096170606,1.000022998755538,0.0002051037203689403
-0.4941897362092277,-0.4941897362092277,1.0000826451205782,0.00020689838357391935
-0.49399932879387054,-0.49399932879387054,0.9999093536869005,0.00020499809394309217
-0.4938645984562754,-0.4938645984562754,1.0000385323920484,0.0002107298613909815
-0.49376148403898695,-0.49376148403898695,1.0002517027751447,0.0002125969021532848
-0.493638031782757,-0.493638031782757,0.9998059522165221,0.0002279356350593962
-0.49345799166258075,-0.49345799166258075,0.9999637032049481,0.00020955344468850433
-0.49328297899701284,-0.49328297899701284,0.9999834573360149,0.00021811961923731758
-0.4931892988555774,-0.4931892988555774,1.0000129514508076,0.00019542385702535215
-0.49311754025766275,-0.49311754025766275,1.00026523161736,0.00022951988566427133
-0.49303506902142546,-0.49303506902142546,1.0000234410942344,0.00021441695821585393
-0.4929075905121863,-0.4929075905121863,1.0000876402990453,0.00021352797062093443
-0.49279626251372977,-0.49279626251372977,1.000166321275087,0.00021241987418005328
-0.49266567960730756,-0.49266567960730756,0.9998851532761728,0.00021628925508013737
-0.49253790447546636,-0.49253790447546636,1.000214483047357,0.0002321004605436419
-0.49238630442123393,-0.49238630442123393,1.0000609516228465,0.0002107897277285861
-0.49220899944848495,-0.49220899944848495,1.0000720527831457,0.00021123724921197465
-0.492113844317646,-0.492113844317646,1.000176110612713,0.0002131190537224815
-0.49209403582353844,-0.49209403582353844,0.9999119076702823,0.0002137478221710524
-0.49202874366746985,-0.49202874366746985,1.0000706600703597,0.00021186610920886066
-0.49194569859537296,-0.49194569859537296,1.0001857928660294,0.00022150699963560338
-0.4918924870988121,-0.4918924870988121,0.9998718582905856,0.0002093331798945864
-0.4918341896489437,-0.4918341896489437,1.0002902144155632,0.00021495257881871483
-0.49171555615903345,-0.49171555615903345,0.9998838413586325,0.00022519260089563266
-0.49165005076356466,-0.49165005076356466,1.0000829437892853,0.00031104431967508416
-0.49158458916135717,-0.49158458916135717,1.0001617590421958,0.000205925719126441
-0.49153718480301906,-0.49153718480301906,0.9997430345705501,0.00020767198665969138
-0.4914798758778488,-0.4914798758778488,1.0001530575147375,0.00023211390591332796
-0.49145522033504674,-0.49145522033504674,0.9999583958949418,0.00021133426047946434
-0.491387625727657,-0.491387625727657,1.0000534960703322,0.0002480826972600139
-0.49131092496972995,-0.49131092496972995,0.9999377671160257,0.0002053927082528659
-0.49124666614006857,-0.49124666614006857,1.000119359051822,0.00020068358246062094
-0.4911532895486744,-0.4911532895486744,0.9999547499277615,0.00020152182077738673
-0.4910196506658394,-0.4910196506658394,0.999991987146515,0.0002312061781522632
-0.4908818315641838,-0.4908818315641838,1.0000584794775396,0.00020709371418043735
-0.4905887145418092,-0.4905887145418092,1.0002688416860823,0.0002018732519195368
-0.49037153875469813,-0.49037153875469813,0.9999802220973466,0.0002064033174193097
-0.49026709893587395,-0.49026709893587395,0.9999081985815271,0.0002162619430941182
-0.4902377288148273,-0.4902377288148273,0.9999271245769445,0.0002045433031717594
-0.4900788879051106,-0.4900788879051106,1.0002219761569369,0.00022558985787955176
-0.4899989115365315,-0.4899989115365315,1.0000221140785681,0.0002041912303640597
-0.4899496671714587,-0.4899496671714587,1.0000432376697854,0.000218605514417217
-0.489889189763926,-0.489889189763926,1.0000189670444921,0.0002076272946344091
-0.48979764427785993,-0.48979764427785993,1.0001176832518648,0.0002243183690831973
-0.4896666938402632,-0.4896666938402632,1.000129960418382,0.0002081033175548658
-0.4895962006827176,-0.4895962006827176,0.9997557505420879,0.0002072909832820366
-0.4895300485113694,-0.4895300485113694,0.9998497921547773,0.00019979480222570502
-0.4894544256741938,-0.4894544256741938,0.9999246553703568,0.000200833275118975
-0.48932813980281936,-0.48932813980281936,0.9998206923253813,0.00022860071691801015
-0.48919606931158344,-0.48919606931158344,0.9998328283411494,0.00021971233691768125
-0.4890309402901039,-0.4890309402901039,0.9998977187022919,0.00022380637944364898
-0.4888953362373286,-0.4888953362373286,1.0000175027944322,0.0002196537934372323
-0.4887236653958098,-0.4887236653958098,1.000048420973374,0.0002211276062654431
-0.4885746979023679,-0.4885746979023679,0.9999743064269062,0.0002172132322118464
-0.48847467522136867,-0.48847467522136867,1.0002284887557233,0.00021666104029144937
-0.48832675873345577,-0.48832675873345577,0.9998020784465806,0.00021807716464296553
-0.48816695397326837,-0.48816695397326837,0.999787578484435,0.00020168174500207625
-0.48806929735874294,-0.48806929735874294,0.9997781070414365,0.00019845300794499318
-0.4880137904910953,-0.4880137904910953,0.9999996886061677,0.0002046867991892125
-0.4879474048539123,-0.4879474048539123,1.0000315576351433,0.00020533879541740258
-0.4877547086623963,-0.4877547086623963,1.0000517476853605,0.000233143938655075
-0.4876400199966156,-0.4876400199966156,0.999985442340954,0.00020433201107793235
-0.48755108885088705,-0.48755108885088705,0.9998309154212425,0.00022725766326283915
-0.48742423108778893,-0.48742423108778893,0.9998929526561231,0.000227386187409712
-0.48728089087235277,-0.48728089087235277,0.9999999733445872,0.00019508462604638944
-0.4871861752704717,-0.4871861752704717,1.0003405487189034,0.00020657564628095466
-0.4870205070139491,-0.4870205070139491,1.0002713474138945,0.00022630098795424041
-0.48687648801787875,-0.48687648801787875,1.0000180884708942,0.00020664732338708018
-0.486768665631098,-0.486768665631098,0.9998643001149944,0.00021013128839562304
-0.4866996396405739,-0.4866996396405739,0.9999958806804891,0.00021585033065831699
-0.4866182761055825,-0.4866182761055825,1.000362981590334,0.0002175154160447542
-0.48649036051283473,-0.48649036051283473,1.0000072637241437,0.0002143532529578304
-0.48638505558701584,-0.48638505558701584,0.9997563588339131,0.00021008498591647918
-0.48629698948716393,-0.48629698948716393,1.0000622633723188,0.00020258720255834337
-0.48617281147744507,-0.48617281147744507,1.0000008398940756,0.00020560375381791385
-0.48610308781353523,-0.48610308781353523,1.0002655840383532,0.00020843047567612182
-0.4860335440345807,-0.4860335440345807,1.0003179577509511,0.0002062289245433356
-0.4859248857072089,-0.4859248857072089,0.9997577315096855,0.00021561019201193113
-0.4856280803898699,-0.4856280803898699,1.0001608628990524,0.0002233449531784473
-0.4855681301407458,-0.4855681301407458,1.000021706146198,0.00021074489433611578
-0.48540492816027836,-0.48540492816027836,1.0000371525138163,0.00020639451068631096
-0.48519006634523976,-0.48519006634523976,1.000171287992929,0.00020516417666293407
-0.4850233939367172,-0.4850233939367172,1.000410398049922,0.00020700264740926237
-0.4848390370854759,-0.4848390370854759,0.9997463395362833,0.00021001806759860035
-0.48471135377913016,-0.48471135377913016,1.0003470620765333,0.00021437228349927627
-0.484616148443456,-0.484616148443456,0.9997604919940761,0.0002026575815210167
-0.4845168402272975,-0.4845168402272975,0.9999308767056979,0.0002179601057767992
-0.48438121267026873,-0.48438121267026873,0.9997892447612505,0.00021599123928733388
-0.48427988986295534,-0.48427988986295534,1.000217296057015,0.00021203241694469805
-0.48414382295377434,-0.48414382295377434,0.9999122854910224,0.00021184941675458376
-0.48400321495428217,-0.48400321495428217,0.999836712972104,0.00022772135337908173
-0.48394096808478937,-0.48394096808478937,1.0001156719601965,0.00021347143440249527
-0.48379570073811917,-0.48379570073811917,0.9999909179464023,0.0002297927847135129
-0.4836889044556301,-0.4836889044556301,0.9999694190447806,0.0002252687146062761
-0.48357309734710724,-0.48357309734710724,1.0001779290031898,0.0002155387281335343
-0.4834834553577821,-0.4834834553577821,1.0003639346119577,0.00021342371197333334
-0.48334726590328503,-0.48334726590328503,0.9999070367601359,0.0002328184064465332
-0.4831910911896557,-0.4831910911896557,0.999795292563121,0.00021856849718970926
-0.48301724854609346,-0.48301724854609346,0.9998639486299055,0.00020659464080431163
-0.48293408664612797,-0.48293408664612797,1.000095144435096,0.00021254950068477505
-0.482915963272535,-0.482915963272535,0.9999148816999222,0.00020975960827501896
-0.482845619814907,-0.482845619814907,0.9999337270836802,0.00021174077130774058
-0.48275778249153517,-0.48275778249153517,0.9999959263432064,0.00021203124201875123
-0.4827042240372975,-0.4827042240372975,1.0002549413656607,0.00022059859460346409
-0.48264440010025284,-0.48264440010025284,0.9999148547704337,0.00020842285898460756
-0.4825912843793049,-0.4825912843793049,1.000100018674015,0.00020463709575916172
-0.48251350870996246,-0.48251350870996246,1.000018462199037,0.0002690831863849691
-0.4824398145923624,-0.4824398145923624,0.9999725088492999,0.00021767372467396722
-0.48237414894465475,-0.48237414894465475,1.00006818736142,0.0002054131515178804
-0.48231863839173456,-0.48231863839173456,1.0000005550059934,0.0002297433654531013
-0.48228132900039783,-0.48228132900039783,0.9999827671200233,0.00020875148873191303
-0.48224775484923155,-0.48224775484923155,1.000008635700131,0.00024629990270211993
-0.4821678721404169,-0.4821678721404169,1.0001174959348316,0.00020702761941589296
-0.4820880620602111,-0.4820880620602111,0.9997889130302404,0.00020029655935533108
-0.482003176278522,-0.482003176278522,1.000226628007665,0.00020420108054044553
-0.48182398809076404,-0.48182398809076404,0.9997682397762997,0.0002282384766109299
-0.48164429414682675,-0.48164429414682675,1.00017484120611,0.00020899412894440092
-0.4813686555164168,-0.4813686555164168,1.0000583139941317,0.00021899141266833603
-0.4811569509511173,-0.4811569509511173,1.0000610995168029,0.00021533921892002587
-0.4810852816823171,-0.4810852816823171,0.9999984412883288,0.00020448993447846176
-0.4810048488070606,-0.4810048488070606,1.0003059031247516,0.0002121753757279846
-0.4808758623352333,-0.4808758623352333,0.9996743006698272,0.00022178437882965242
-0.4807928972186346,-0.4807928972186346,0.999823516997305,0.0002134293010166097
-0.4807495232467772,-0.4807495232467772,0.9999102260340347,0.00021099527971943865
-0.4806638097958057,-0.4806638097958057,1.0001019991382976,0.00021378386132804732
-0.4805268802549108,-0.4805268802549108,1.0001448653475322,0.00021771586220258274
-0.4804532495974854,-0.4804532495974854,0.9999523559683269,0.00020630921619014766
-0.4803834502090467,-0.4803834502090467,0.9998149423502589,0.00019633484867084074
-0.4802978597595938,-0.4802978597595938,1.0000836794809291,0.000200830853011794
-0.4801828526753525,-0.4801828526753525,1.0000308160101867,0.00022696379355597926
-0.48006162027668325,-0.48006162027668325,1.0001778621274628,0.00022237350622278596
-0.4798809129730216,-0.4798809129730216,1.0002749756915374,0.00023014469716900373
-0.4797319602512289,-0.4797319602512289,1.000128184831579,0.00021961828517210445
-0.4795631651228177,-0.4795631651228177,0.9997701315192369,0.00021261795285425347
-0.479433403469011,-0.479433403469011,1.0000868043586544,0.00023004873157863527
-0.47930124506456195,-0.47930124506456195,0.9999807639781245,0.00021874023217787657
-0.4791644974364317,-0.4791644974364317,1.0001455267361352,0.00021549509550312126
-0.4790225225726317,-0.4790225225726317,1.000029242502062,0.00022387865694563003
-0.4789207466310472,-0.4789207466310472,0.9997595512735513,0.00019653541564252662
-0.4788399421464419,-0.4788399421464419,0.9999048026146129,0.0002151726912637267
-0.4787637748006091,-0.4787637748006091,0.9998723253289936,0.000202042418602157
-0.47861405585790634,-0.47861405585790634,0.9997731366794598,0.00024056433991417073
-0.4784793727645592,-0.4784793727645592,1.0000658486672007,0.00020842725418120615
-0.47836931677957184,-0.47836931677957184,0.9997420975074924,0.00022924513290184024
-0.4782052705944807,-0.4782052705944807,0.9999844058632157,0.00021731001358583376
-0.47806667646364076,-0.47806667646364076,1.0000310970326,0.00019937120642499494
-0.4779091281692672,-0.4779091281692672,1.0000137037019052,0.00022123877703136597
-0.47779140350539817,-0.47779140350539817,1.0000643348015126,0.0002086181777383905
-0.4776863143131777,-0.4776863143131777,0.9999006235645055,0.0002066285921624438
-0.47757439365668686,-0.47757439365668686,0.9998711137652059,0.00021699255321774735
-0.4774930955987656,-0.4774930955987656,0.9998691916286381,0.00021939024103602005
-0.47740062868688254,-0.47740062868688254,0.9998648933246296,0.00021575335780247865
-0.4772809239235357,-0.4772809239235357,1.0003104878521978,0.0002135340241810495
-0.4771621352148941,-0.4771621352148941,0.9998980339334966,0.00019800985822895854
-0.4770098112348933,-0.4770098112348933,1.0000861961638563,0.0002089589585042712
-0.47690760136028987,-0.47690760136028987,1.0000255748597577,0.00021164102292851465
-0.47683407436561537,-0.47683407436561537,1.0001686681236213,0.00022358274377820897
-0.4765148716738622,-0.4765148716738622,1.0000554900968792,0.0002098484047927906
-0.4764016744600667,-0.4764016744600667,0.9999196927040359,0.00019704746597198108
-0.476280900126585,-0.476280900126585,1.0003199731948087,0.00023359640865396538
-0.4760503052697459,-0.4760503052697459,0.9996260472303369,0.0002011514393966584
-0.47590753085678444,-0.47590753085678444,1.0000109880617887,0.00020366533850677066
-0.47574820312074734,-0.47574820312074734,1.000180326671666,0.0002037262289957405
-0.4756071087998862,-0.4756071087998862,1.0001931722434292,0.00021403565126156394
-0.4754820958376513,-0.4754820958376513,1.000077616249739,0.0002138961603243554
-0.47538823222421345,-0.47538823222421345,0.9998271008293742,0.00021483610365867655
-0.4752356253673497,-0.4752356253673497,0.9997487978945003,0.00022261471607993747
-0.47509807121023184,-0.47509807121023184,1.0003735143771277,0.00020996407411838746
-0.4749471756920684,-0.4749471756920684,0.9998469329279059,0.00021258552902836107
-0.47483240330548143,-0.47483240330548143,0.9999859096805277,0.00022442466693690122
-0.47477434614120284,-0.47477434614120284,0.9998982663147234,0.00021988136454841506
-0.47462530675766174,-0.47462530675766174,0.9998310225601077,0.0002301423796731926
-0.4745165752254252,-0.4745165752254252,0.99982045405121,0.00021367378486721072
-0.4743572087303619,-0.4743572087303619,1.0004017059307457,0.00022478492397342426
-0.4741508829574741,-0.4741508829574741,0.9997567581418165,0.0002194035538411264
-0.47395277330215324,-0.47395277330215324,0.9998561163674738,0.00021082055873749674
-0.47378101100111963,-0.47378101100111963,0.9997155005830347,0.00020636003771046062
-0.47375628858790153,-0.47375628858790153,1.0001687955431433,0.00021703162511533576
-0.47372007048252274,-0.47372007048252274,1.0002416479024898,0.00020185402693727702
-0.47365229137285497,-0.47365229137285497,1.000200854755022,0.00022035890647421002
-0.47356523677080986,-0.47356523677080986,0.9998415723053039,0.00021562156380645946
-0.47351937803105104,-0.47351937803105104,0.9999633677388353,0.00021200481013519036
-0.473396396683529,-0.473396396683529,0.9998717764095089,0.0002751353111063236
-0.47329665722791103,-0.47329665722791103,0.9998170523539823,0.00021928047094136482
-0.4732223530067131,-0.4732223530067131,1.000222261733603,0.0002210558394352794
-0.4731732726366317,-0.4731732726366317,1.0003337718288094,0.00023368151841121677
-0.4731159974915499,-0.4731159974915499,0.9999561694926664,0.00020873344399613332
-0.47309812472958584,-0.47309812472958584,0.9998728962154599,0.00021716464992879578
-0.47300015500877635,-0.47300015500877635,1.0001899960692773,0.00020606676079993838
-0.47291513061936713,-0.47291513061936713,0.9998863315958193,0.00020032914707704863
-0.4728190028021345,-0.4728190028021345,0.9997425715321224,0.0002187940436393668
-0.47265958210409736,-0.47265958210409736,1.0000993336107935,0.00022670166726261563
-0.47249157248952545,-0.47249157248952545,0.9998520482714188,0.00021041653700168192
-0.4721999833760492,-0.4721999833760492,0.9999161568063369,0.00021814011770706883
-0.4719575713184895,-0.4719575713184895,0.9998018064040124,0.00021420191256915828
