time,time,flux,flux_err
-0.4996354531837521,-0.4996354531837521,1.0000344530559808,2.286651013139718e-05
-0.4985504716108456,-0.4985504716108456,1.0000181251619453,2.2863996916260448e-05
-0.4975956336663027,-0.4975956336663027,1.0000021026238024,2.2864163628566886e-05
-0.49683059864109963,-0.49683059864109963,0.9999812053437717,2.0836330973100745e-05
-0.49610683238715864,-0.49610683238715864,0.9999546221979909,2.086423218788692e-05
-0.4951750519598136,-0.4951750519598136,0.9999782680139659,2.086414916507585e-05
-0.4940747382279369,-0.4940747382279369,0.9999737661993109,2.088926356174528e-05
-0.49338618285692065,-0.49338618285692065,0.9999853016521912,2.086602725796743e-05
-0.49286789476609555,-0.49286789476609555,1.0000243102380333,2.0809949730002636e-05
-0.4923558237387624,-0.4923558237387624,1.0000345914588604,2.0840744757067042e-05
-0.49176023398686086,-0.49176023398686086,0.9999731939213996,2.0813366907491903e-05
-0.4909563392560813,-0.4909563392560813,1.0000234300640307,2.081359828483834e-05
-0.49017977077455727,-0.49017977077455727,1.000027993287659,2.081384303281201e-05
-0.4894248278324085,-0.4894248278324085,0.9999745374786579,2.0840341010574942e-05
-0.4884636290560593,-0.4884636290560593,0.9999731106954158,2.0864216660385544e-05
-0.48749322585572374,-0.48749322585572374,0.999952699445531,2.0864734283297796e-05
-0.48667617064056684,-0.48667617064056684,1.0000293889699212,2.0838300799748356e-05
-0.4858062077379145,-0.4858062077379145,0.999957564317571,2.088931415462741e-05
-0.4850007996246859,-0.4850007996246859,0.9999482462229097,2.086193394637881e-05
-0.48425506837593274,-0.48425506837593274,0.9999922901380399,2.0835961808735635e-05
-0.4835303023661254,-0.4835303023661254,1.000009767327703,2.0866890456678113e-05
-0.4825333454020438,-0.4825333454020438,1.0000144934306747,2.088892219556421e-05
-0.48138249878320494,-0.48138249878320494,0.9999991467941667,2.0862410377737012e-05
-0.4808968164943508,-0.4808968164943508,1.0000003525580705,2.0844722042905123e-05
-0.4804778288140369,-0.4804778288140369,0.9999615714015706,2.083720186907163e-05
-0.4800012122715998,-0.4800012122715998,1.0000531143977929,2.0838410601017514e-05
-0.4794960957733565,-0.4794960957733565,1.0000349954781966,2.081431972638206e-05
-0.47883916429127565,-0.47883916429127565,1.000022065668136,2.081373756271904e-05
-0.47804099159911856,-0.47804099159911856,1.0000016237569713,2.0815086124756347e-05
-0.4773433873000613,-0.4773433873000613,1.0000066262685994,2.0815667215545742e-05
-0.476398132412578,-0.476398132412578,1.0000063661308327,2.0864555180129834e-05
-0.47545132238301446,-0.47545132238301446,0.9999864743067224,2.088998883698887e-05
-0.47465722773122254,-0.47465722773122254,0.9999767994643557,2.086400714568983e-05
-0.47392747605917973,-0.47392747605917973,1.0000078712636726,2.0889263999420228e-05
-0.47302434650700886,-0.47302434650700886,0.9999796584950393,2.0889025745678534e-05
-0.4722965919841954,-0.4722965919841954,0.99996363452933,2.0811052130831415e-05
-0.4717296918388456,-0.4717296918388456,1.0000395842297622,2.0864803752130744e-05
-0.47118144325213507,-0.47118144325213507,0.9999985379911921,2.083805583091071e-05
-0.4701307251722028,-0.4701307251722028,1.0000517323962608,2.0889378397620945e-05
-0.4690930696306168,-0.4690930696306168,1.0000388791608665,2.0861919083186973e-05
-0.46871065798259226,-0.46871065798259226,1.0000794226853773,2.0872380427984138e-05
-0.4683096763270441,-0.4683096763270441,0.9999177199752269,2.0838170094827508e-05
-0.4678428877661645,-0.4678428877661645,1.0000444803613902,2.081302909542166e-05
-0.4673090979558765,-0.4673090979558765,0.9999545148463703,2.0838894346048268e-05
-0.46657414729488667,-0.46657414729488667,1.0000353511899074,2.0814399228315135e-05
-0.46578196924529036,-0.46578196924529036,0.9999963047139019,2.0814896167686664e-05
-0.46511792909223004,-0.46511792909223004,1.0000136489246112,2.0788350593295513e-05
-0.4643319954542676,-0.4643319954542676,0.9999843715227007,2.088991939008295e-05
-0.46336418737701024,-0.46336418737701024,0.9999618296637836,2.0864155483480517e-05
-0.46247348880860956,-0.46247348880860956,1.0000260383292523,2.0865199404115745e-05
-0.461605827416497,-0.461605827416497,1.0000180843500408,2.0862624431921376e-05
-0.4606566631358874,-0.4606566631358874,1.0000399627058243,2.0888942173717056e-05
-0.45966766909259604,-0.45966766909259604,1.0000250583902102,2.083602677332158e-05
-0.45909161539311755,-0.45909161539311755,0.9999801063819966,2.0869953419882966e-05
-0.4585308640009316,-0.4585308640009316,1.0000078489826727,2.086319275329347e-05
-0.45743618705455447,-0.45743618705455447,1.0000218295582013,2.091492618105523e-05
-0.45677012712985743,-0.45677012712985743,0.9999653410234209,2.0862158281269264e-05
-0.4562017154865316,-0.4562017154865316,0.9999801284875591,2.0836892193346934e-05
-0.455672578910162,-0.455672578910162,0.9999334687183742,2.0815907046075066e-05
-0.4551060725374555,-0.4551060725374555,0.999969583158301,2.0836814235876214e-05
-0.45446974992592004,-0.45446974992592004,1.0000343524841095,2.0814321907409072e-05
-0.4536509013079922,-0.4536509013079922,0.9999775366508793,2.0814613502756634e-05
-0.45285163624139385,-0.45285163624139385,0.99997560177181,2.0787871830032436e-05
-0.4519064121901465,-0.4519064121901465,0.9999823708318711,2.0864985875048938e-05
-0.45094945132295833,-0.45094945132295833,0.9999605992842087,2.0889202120662187e-05
-0.45006186424943734,-0.45006186424943734,1.0000066470934657,2.0864217275809417e-05
-0.44907451242470414,-0.44907451242470414,0.9999176602878439,2.086198786877125e-05
-0.44820870113690037,-0.44820870113690037,1.0000042412540906,2.0861264727361715e-05
-0.4472968365807901,-0.4472968365807901,0.9999710637318854,2.0874126334749276e-05
-0.44665622997126775,-0.44665622997126775,0.999965850574822,2.083733664981574e-05
-0.44563188177053237,-0.44563188177053237,1.0000318672818784,2.0890089565367785e-05
-0.44452112081635275,-0.44452112081635275,1.0000134212478784,2.0889411212862074e-05
-0.44382624806894455,-0.44382624806894455,0.9999809438930172,2.0835227288486595e-05
-0.44340456803329287,-0.44340456803329287,1.0000436490820057,2.0818363072675328e-05
-0.4428392141853692,-0.4428392141853692,1.000010187275588,2.083732666327863e-05
-0.44220588657917687,-0.44220588657917687,1.0000609376698932,2.081429378237766e-05
-0.44136242282474997,-0.44136242282474997,1.0000239832466842,2.0789439775594285e-05
-0.4404442418759572,-0.4404442418759572,0.9999902791435945,2.0813829457466862e-05
-0.43932978163356895,-0.43932978163356895,0.9999641224428405,2.08395064014499e-05
-0.4382914937516034,-0.4382914937516034,0.9999588778601278,2.0889802340989264e-05
-0.4374726637288404,-0.4374726637288404,0.9999930356459548,2.0863539928436355e-05
-0.4364438859629445,-0.4364438859629445,0.9999657423194346,2.0887098297332003e-05
-0.43558804398271606,-0.43558804398271606,0.999991710940091,2.0862818993748837e-05
-0.43466994658956537,-0.43466994658956537,0.9999851084481326,2.0837159333684417e-05
-0.4338879514129076,-0.4338879514129076,1.0000287145649789,2.0837922482131248e-05
-0.4326285050388833,-0.4326285050388833,0.9999831180407721,2.0889362902212986e-05
-0.431783355234802,-0.431783355234802,1.0000266216471618,2.086371835611416e-05
-0.43120412631978977,-0.43120412631978977,1.000033752562922,2.0846744467308834e-05
-0.4306975949679327,-0.4306975949679327,0.9999682483324493,2.081055120974233e-05
-0.43009198162690154,-0.43009198162690154,0.9999819601519997,2.0839276928813514e-05
-0.42929328746467943,-0.42929328746467943,1.0000440268781443,2.0790760712029056e-05
-0.42831939893512755,-0.42831939893512755,0.999938250366729,2.0787476277706248e-05
-0.4275103155960096,-0.4275103155960096,1.000006679985185,2.0865005706620046e-05
-0.42645772006726473,-0.42645772006726473,0.999979235517668,2.086403103848277e-05
-0.42542744903548735,-0.42542744903548735,0.9999821217255814,2.0864236714919637e-05
-0.4243760885998199,-0.4243760885998199,0.9999639734162266,2.0888622162639134e-05
-0.42342315055793733,-0.42342315055793733,1.0000078710678235,2.0863190344808966e-05
-0.4225843342108419,-0.4225843342108419,0.9999898222869568,2.083660606447444e-05
-0.42168238942176683,-0.42168238942176683,0.9999990232666219,2.0837144597712514e-05
-0.420381051194272,-0.420381051194272,0.9999753592382665,2.0889307244510652e-05
-0.41952683729687124,-0.41952683729687124,1.000006561222117,2.0863304267440358e-05
-0.4189453869781573,-0.4189453869781573,0.9999892665333553,2.084936089498462e-05
-0.4184259518471663,-0.4184259518471663,0.9999788025481194,2.081070288839276e-05
-0.41782890903996306,-0.41782890903996306,0.9999648665683271,2.0838931013520732e-05
-0.4170446086827724,-0.4170446086827724,1.0000526261533627,2.081534614544836e-05
-0.4162155184203584,-0.4162155184203584,1.0000256249424033,2.0789748360798546e-05
-0.41552064233692365,-0.41552064233692365,0.9999628590824032,2.0812916531639398e-05
-0.4145561852608807,-0.4145561852608807,0.999971265569425,2.0864471262986627e-05
-0.41361879149335434,-0.41361879149335434,0.9999860252083295,2.088984218624177e-05
-0.4125647257133096,-0.4125647257133096,0.9999987933813831,2.0863074255517865e-05
-0.4115489875926869,-0.4115489875926869,1.0000411139933862,2.0890353839422455e-05
-0.41060902361787155,-0.41060902361787155,0.9999550956659162,2.0834675230110734e-05
-0.4098695857632265,-0.4098695857632265,1.0000262291115514,2.0838310865405662e-05
-0.40865632011264097,-0.40865632011264097,0.9999657659779979,2.0864103933971393e-05
-0.40751478976017097,-0.40751478976017097,1.000020162987711,2.0890241824363517e-05
-0.40676608636276795,-0.40676608636276795,1.000021883827182,2.083823818889968e-05
-0.40615443550050256,-0.40615443550050256,1.0000102594996232,2.0811285529451236e-05
-0.4055659612407908,-0.4055659612407908,1.000002312410292,2.0839121965815683e-05
-0.4047844957371126,-0.4047844957371126,1.0000160431705973,2.081557639954093e-05
-0.40395188099791995,-0.40395188099791995,0.9999510432327738,2.0788213058638784e-05
-0.4032605011714622,-0.4032605011714622,0.9999773239318642,2.081495947120596e-05
-0.4024315500690136,-0.4024315500690136,1.0000568910009364,2.088957684470162e-05
-0.4015323406907555,-0.4015323406907555,0.9999972533767583,2.08645557553953e-05
-0.40063666177666163,-0.40063666177666163,0.9999956444427867,2.0864351230035218e-05
-0.3996753703475406,-0.3996753703475406,0.9999447215632546,2.0888694625325925e-05
-0.398767038792721,-0.398767038792721,0.9999844488226473,2.086278932239645e-05
-0.3980569515224488,-0.3980569515224488,0.9999928581922987,2.0836343188738748e-05
-0.3973324554215651,-0.3973324554215651,0.999998400662203,2.0863475729943954e-05
-0.3964006145899475,-0.3964006145899475,1.0000162822245267,2.0864619389511606e-05
-0.39529942384251626,-0.39529942384251626,1.0000188353283057,2.088969017471955e-05
-0.39461143949010874,-0.39461143949010874,1.0000080190821312,2.0865711082869498e-05
-0.39409503988645156,-0.39409503988645156,1.000054824775479,2.080934161487423e-05
-0.39358187618272494,-0.39358187618272494,0.9999767018395914,2.084043245951508e-05
-0.3929866542428499,-0.3929866542428499,1.0000435546083941,2.081431285969174e-05
-0.39218263989678237,-0.39218263989678237,0.9999991014079692,2.0813897881272322e-05
-0.3914057101799699,-0.3914057101799699,0.9999997734186321,2.081401139906634e-05
-0.3906503229911323,-0.3906503229911323,1.0000416133638454,2.0840377807600933e-05
-0.3896892259937886,-0.3896892259937886,1.0000212974162526,2.086496079423013e-05
-0.38871896983473564,-0.38871896983473564,1.0000239213188107,2.0865916319534682e-05
-0.38790245529744427,-0.38790245529744427,0.9999340516367428,2.0837082002311277e-05
-0.38703203813056464,-0.38703203813056464,0.9999938422798229,2.0888975647837755e-05
-0.3862266811032896,-0.3862266811032896,1.0000422817122687,2.086224197073087e-05
-0.3854813295911299,-0.3854813295911299,1.0000264297446895,2.0837532560984333e-05
-0.3847557595538092,-0.3847557595538092,1.0000099040302215,2.0866438230416602e-05
-0.3837582950218348,-0.3837582950218348,0.9999831590839232,2.0889522629430492e-05
-0.38260791066786626,-0.38260791066786626,1.0000159718926445,2.0862495543509094e-05
-0.38212282112144746,-0.38212282112144746,1.000064367130228,2.0844750965488652e-05
-0.38170413612460835,-0.38170413612460835,0.9999816638743484,2.0837487590135765e-05
-0.38122762211132794,-0.38122762211132794,0.9999734388955599,2.0838226744057967e-05
-0.38072250384648215,-0.38072250384648215,0.9999534588160867,2.0813401900359284e-05
-0.3800656726431043,-0.3800656726431043,1.0000182521835528,2.081345247275956e-05
-0.3792669004025811,-0.3792669004025811,1.0000164539906182,2.0814242929298874e-05
-0.37856939042103477,-0.37856939042103477,0.9999966666906378,2.0814755733710472e-05
-0.3776235105193336,-0.3776235105193336,1.000018808437469,2.0864959863910782e-05
-0.376676428844803,-0.376676428844803,1.0000213952590102,2.0890301968423954e-05
-0.3758049829135416,-0.3758049829135416,1.0000038222716425,2.086441635203336e-05
-0.37492777226070756,-0.37492777226070756,0.9999734135302425,2.086284473482782e-05
-0.3741356553582591,-0.3741356553582591,0.9999473134620842,2.0888108699493566e-05
-0.3734065471762733,-0.3734065471762733,0.9999465504925913,2.0835226575995714e-05
-0.3729550835902046,-0.3729550835902046,1.000024359478094,2.0863966710151135e-05
-0.3724077204919013,-0.3724077204919013,0.9999373915258174,2.083712582852846e-05
-0.3715088593446126,-0.3715088593446126,1.000004951753064,2.0889800944548504e-05
-0.3704110046157439,-0.3704110046157439,1.000005466577511,2.088907415875149e-05
-0.3700357797672041,-0.3700357797672041,1.0000239648643756,2.08717852809667e-05
-0.36963546088227306,-0.36963546088227306,1.0000746498891566,2.0836775510098042e-05
-0.3691675256101007,-0.3691675256101007,0.9999825415934277,2.081613030302631e-05
-0.36859976966079555,-0.36859976966079555,0.9999846011406761,2.083648255332531e-05
-0.3679601453317446,-0.3679601453317446,1.0000351180083098,2.081477375086369e-05
-0.36716166776241155,-0.36716166776241155,0.9999941219843759,2.078947366234712e-05
-0.3664807760418626,-0.3664807760418626,0.999962880795227,2.0814101181680257e-05
-0.3657676989772881,-0.3657676989772881,0.9999514463133279,2.0863042045609524e-05
-0.3647517511803017,-0.3647517511803017,0.9999823065864216,2.0863240761295232e-05
-0.3638646545296069,-0.3638646545296069,1.0000496368603256,2.089120711245035e-05
-0.36306466278838345,-0.36306466278838345,1.000029842497401,2.0863013788821383e-05
-0.3619962410659355,-0.3619962410659355,1.000017854905294,2.0888355648439932e-05
-0.36111826763954014,-0.36111826763954014,1.0000104567836758,2.0836346959331107e-05
-0.3604213849037478,-0.3604213849037478,0.999994260289579,2.0869385835433e-05
-0.35981407226936424,-0.35981407226936424,0.9999648762463625,2.083660327835469e-05
-0.35855934894352687,-0.35855934894352687,1.0000164651528167,2.089019589115144e-05
-0.3579115657841612,-0.3579115657841612,0.9999949276460729,2.0886098688333123e-05
-0.3572844888753025,-0.3572844888753025,0.9999809360646316,2.0814788558935354e-05
-0.35679827941930853,-0.35679827941930853,1.0000040163877064,2.0811971633053493e-05
-0.3562741914545768,-0.3562741914545768,1.0000180068495566,2.0839495561968036e-05
-0.35553573866200167,-0.35553573866200167,0.999980163135044,2.0813411268142682e-05
-0.3547036922158441,-0.3547036922158441,1.0000644542398693,2.0815084150434782e-05
-0.353930165075144,-0.353930165075144,1.0000183639217908,2.0813704257377867e-05
-0.3529173254908528,-0.3529173254908528,1.000000281143126,2.0864289665856346e-05
-0.3519472280750051,-0.3519472280750051,1.0000226777902301,2.0864455576230294e-05
-0.3511025073232304,-0.3511025073232304,0.9999696594901831,2.0862682933770666e-05
-0.35011956442758674,-0.35011956442758674,1.0000441958857489,2.0889355991026848e-05
-0.34924918007527594,-0.34924918007527594,0.9999868349456789,2.0861834684314005e-05
-0.34845497025962685,-0.34845497025962685,0.9999981346477597,2.0873059495766662e-05
-0.34794537247216795,-0.34794537247216795,0.9999638239587594,2.0862251068199997e-05
-0.3471487281647569,-0.3471487281647569,1.0000097385255422,2.0863279862624008e-05
-0.34589798344750305,-0.34589798344750305,0.9999724758220758,2.0890155454769715e-05
-0.3452926556718012,-0.3452926556718012,0.9999326623467937,2.080966230462713e-05
-0.3447664564904699,-0.3447664564904699,0.9999718549314001,2.086630342239367e-05
-0.34431387359363724,-0.34431387359363724,0.9999979759405878,2.0814113804439435e-05
-0.3437529700859159,-0.3437529700859159,1.0000426653676606,2.0812437254578858e-05
-0.34293680097252943,-0.34293680097252943,1.0000520853300034,2.0815505823758743e-05
-0.3419695368233079,-0.3419695368233079,1.0000355895017963,2.079040431687138e-05
-0.34109952916624026,-0.34109952916624026,1.000019271356938,2.0864206804105994e-05
-0.33993978712169337,-0.33993978712169337,1.0000020124790876,2.0864778444259955e-05
-0.3390292798700102,-0.3390292798700102,1.0000543180362809,2.0865314115592306e-05
-0.3380372767445806,-0.3380372767445806,1.0000680582276833,2.0864305225921305e-05
-0.3371779590939695,-0.3371779590939695,0.9999594415091619,2.086106751279193e-05
-0.33623298934398915,-0.33623298934398915,1.0000665406683957,2.083806698375972e-05
-0.3354830991018389,-0.3354830991018389,1.0000300233996378,2.086342758480886e-05
-0.33431000786367804,-0.33431000786367804,0.9999830795250052,2.0888294192152316e-05
-0.3333198599721072,-0.3333198599721072,0.999996094259178,2.086481126648236e-05
-0.3326035312638851,-0.3326035312638851,0.999984357139007,2.0869286298199178e-05
-0.33216316692632974,-0.33216316692632974,1.0000499820699127,2.0812429604066764e-05
-0.3316092091059545,-0.3316092091059545,1.0000042064178838,2.081336849612568e-05
-0.3308691290614661,-0.3308691290614661,1.0000025366342373,2.081405393891446e-05
-0.3298534416608163,-0.3298534416608163,0.9999910136919736,2.0789089877896833e-05
-0.3291406345946598,-0.3291406345946598,0.999986903009715,2.081331434018059e-05
-0.3280344609906024,-0.3280344609906024,0.9999567693074255,2.0864504857665685e-05
-0.32714733520697337,-0.32714733520697337,1.0000129709569028,2.0890414413035316e-05
-0.32630387785975473,-0.32630387785975473,0.9999864565081987,2.088986058770791e-05
-0.3251974006510864,-0.3251974006510864,0.9999902313279817,2.0863237176077785e-05
-0.3240999184185057,-0.3240999184185057,1.0000065536017453,2.0835644095375017e-05
-0.3233578579791356,-0.3233578579791356,0.9999890683560043,2.0837772420475455e-05
-0.3220615981335868,-0.3220615981335868,1.0000087629627172,2.0889518022138215e-05
-0.3210665366001194,-0.3210665366001194,0.9999993115048584,2.0864517103372148e-05
-0.3203481199467205,-0.3203481199467205,1.0000329897198312,2.0872422321302657e-05
-0.3198934207313869,-0.3198934207313869,0.9999967129262425,2.0812358104872968e-05
-0.3193412836692005,-0.3193412836692005,1.0000150606195277,2.081424175937245e-05
-0.31860679544188314,-0.31860679544188314,1.0000085718059606,2.0815097992110553e-05
-0.31773224666758326,-0.31773224666758326,1.0000252090547843,2.0814893036018616e-05
-0.3170214942198072,-0.3170214942198072,0.9999877539885524,2.0814230815029457e-05
-0.31625834453006973,-0.31625834453006973,1.0000052789048675,2.083996099878364e-05
-0.31517667203079325,-0.31517667203079325,1.000056864304161,2.086525835952215e-05
-0.3142050213791663,-0.3142050213791663,1.0000064109644338,2.088987600303966e-05
-0.31315662642155073,-0.31315662642155073,1.0000009531252936,2.088868859500923e-05
-0.3122133306314936,-0.3122133306314936,0.9999951483516897,2.086285176991128e-05
-0.3113682855757361,-0.3113682855757361,1.0000127287787033,2.0837808908179694e-05
-0.3104225726507138,-0.3104225726507138,1.000031872392221,2.083797995855016e-05
-0.3092246903026535,-0.3092246903026535,0.99999135130263,2.0890183504018165e-05
-0.30819075133040313,-0.30819075133040313,1.0000433425357236,2.0863204205233177e-05
-0.3076238048786763,-0.3076238048786763,1.000012440722222,2.0812224825722326e-05
-0.30707347930438117,-0.30707347930438117,0.999950496623615,2.081361308099033e-05
-0.30634458448766966,-0.30634458448766966,0.9999704083273115,2.081556669813152e-05
