time,time,flux,flux_err
-0.49851776661004504,-0.49851776661004504,0.9999816627119711,0.00012738615275734933
-0.49561057832094474,-0.49561057832094474,0.9998561581645834,0.00012765690133814052
-0.4936293626166541,-0.4936293626166541,1.000068170282609,0.00012707515946768074
-0.4918218944464267,-0.4918218944464267,0.9999926846276072,0.000127544492003197
-0.4893187484616647,-0.4893187484616647,0.9999057244794555,0.00011642561435967107
-0.48715575186288335,-0.48715575186288335,1.0000148422565516,0.00011672748611176047
-0.48493311259517213,-0.48493311259517213,0.9998037884739077,0.00011648639405518626
-0.4832623568203417,-0.4832623568203417,1.0000771946729556,0.00011669858444772814
-0.48175827067825594,-0.48175827067825594,1.0002219543697028,0.00011650730009878649
-0.47930499692010925,-0.47930499692010925,0.9998788712903728,0.00011626088266414062
-0.47679410485579865,-0.47679410485579865,0.999816339440887,0.00011647649500671508
-0.4751693216188869,-0.4751693216188869,0.9999392342795632,0.0001159313725294282
-0.47353657691273837,-0.47353657691273837,0.9999835482778867,0.00011649791937099667
-0.4718533710212796,-0.4718533710212796,0.9999656248678516,0.00011637385044463071
-0.4691475068430009,-0.4691475068430009,1.0000076011664603,0.00011682596832511198
-0.46739455265342256,-0.46739455265342256,1.0002972543911983,0.0001165404243749961
-0.46510967260910546,-0.46510967260910546,0.9996829500938894,0.00011503341848338477
-0.4637012996718113,-0.4637012996718113,0.999891097500204,0.00011837242041552392
-0.4619879778569157,-0.4619879778569157,1.0000652968614463,0.00011626334378444031
-0.4601501268836728,-0.4601501268836728,0.9998125608560819,0.00011613285693091312
-0.4577736360239214,-0.4577736360239214,0.9998087616118017,0.00011649222333283773
-0.4561532596919278,-0.4561532596919278,0.9998845054401988,0.00011582215379052153
-0.45451294573431367,-0.45451294573431367,0.9998321883063298,0.00011650311069746636
-0.45282714450731876,-0.45282714450731876,0.9999111324181668,0.00011634299247271018
-0.4501271597051527,-0.4501271597051527,0.9999961537025601,0.0001168813231883228
-0.44837971620145256,-0.44837971620145256,0.9998548485520098,0.00011650981529003049
-0.44605139719933506,-0.44605139719933506,0.9998128944127398,0.00011646145090604871
-0.4443747236262425,-0.4443747236262425,0.9997469928455824,0.0001189326379533506
-0.44274741942208495,-0.44274741942208495,0.999935474075732,0.00011593091618879213
-0.4406648287760618,-0.4406648287760618,0.9997298941852495,0.00011647521527288933
-0.438393546493171,-0.438393546493171,1.0000239695962265,0.00011650350064116308
-0.4368613413753337,-0.4368613413753337,0.9999012063215398,0.00011566479572485892
-0.43561961568848345,-0.43561961568848345,0.9999003747736774,0.00011704170858011316
-0.43427590013234296,-0.43427590013234296,1.0000956266651158,0.00011633107294056112
-0.43222450711909915,-0.43222450711909915,1.000088030624178,0.00011643793653139224
-0.43011427592427937,-0.43011427592427937,0.9999787311031761,0.00011695697910263517
-0.42825078966779984,-0.42825078966779984,1.000238899984788,0.0001162236616436345
-0.4266472182207508,-0.4266472182207508,1.0000182277490897,0.00011645045893321475
-0.42512278926442376,-0.42512278926442376,1.000073345990868,0.00011983258826787736
-0.42268592765249197,-0.42268592765249197,1.0000499552667532,0.00011640716468157245
-0.42017538649743075,-0.42017538649743075,0.9999137997115348,0.00011649258379264358
-0.4183821976999752,-0.4183821976999752,0.9999955581724382,0.00011559047649997909
-0.4168142842703674,-0.4168142842703674,0.9997895925068463,0.00011714927257957211
-0.41565135470955283,-0.41565135470955283,1.0001164284419106,0.00011635942494564167
-0.41319340535483207,-0.41319340535483207,0.9997968181206867,0.0001164343410444245
-0.41084879688351067,-0.41084879688351067,1.0000516754947064,0.00011649358833815051
-0.40923047246105854,-0.40923047246105854,0.9998545793656095,0.0001161477775348094
-0.4078429675661027,-0.4078429675661027,0.9997141083374423,0.00011649218882663534
-0.4063292989434558,-0.4063292989434558,0.9999412224673152,0.0001212222083288271
-0.40435679346701364,-0.40435679346701364,0.9999966249111288,0.0001164349408450853
-0.40192807669882313,-0.40192807669882313,1.000127149871429,0.00011667955624233802
-0.399985834636027,-0.399985834636027,0.9998289734975394,0.00011650125197988164
-0.3986645734621561,-0.3986645734621561,1.0000795339120352,0.00011628303152999514
-0.3974462372068956,-0.3974462372068956,0.9999632255487768,0.00011660847609007076
-0.39622626441923786,-0.39622626441923786,1.0001582458943061,0.00011636717017472211
-0.39364879596978425,-0.39364879596978425,1.000088848595062,0.00011650062877637649
-0.39159889193906566,-0.39159889193906566,0.9999208256756109,0.00011656260521448301
-0.39021029799623647,-0.39021029799623647,0.9998701845776976,0.00011609295678407948
-0.38882654220869883,-0.38882654220869883,1.0001329143514759,0.00011652867769461589
-0.387309278074099,-0.387309278074099,0.9999647026948368,0.00012433520813027017
-0.3855792523623677,-0.3855792523623677,0.9998140267161542,0.0001165091959696001
-0.3831842148611031,-0.3831842148611031,0.9998220507013912,0.00011667750086957195
-0.3809685709187761,-0.3809685709187761,0.9997783469171226,0.00011650359204874439
-0.3796517265131115,-0.3796517265131115,0.999921095031872,0.00011640936574055843
-0.3784199803158117,-0.3784199803158117,0.9999864894940478,0.00011650578151660899
-0.3768139893451007,-0.3768139893451007,1.0000106083512288,0.00011632077617700408
-0.37402936693179073,-0.37402936693179073,1.0000196685716023,0.00011649243162595909
-0.3721506661720923,-0.3721506661720923,0.9998973521929914,0.00011597900904459105
-0.3704971752187703,-0.3704971752187703,0.9999506809578772,0.00011650674929546976
-0.36902526820340426,-0.36902526820340426,1.0000206924750377,0.00011640288635675423
-0.3666977053762821,-0.3666977053762821,1.0000878790593086,0.00011643472697643107
-0.3645324989112851,-0.3645324989112851,1.0002310826429048,0.00011674204821254003
-0.36231027306857866,-0.36231027306857866,0.9998958181115267,0.00011650666173606983
-0.3606389496169868,-0.3606389496169868,1.0000662550731032,0.00011664138002064554
-0.3591363227977126,-0.3591363227977126,0.9999684802267463,0.00011648180214773616
-0.3566835890858783,-0.3566835890858783,1.0000345564716988,0.00011627859282930519
-0.3541716725019796,-0.3541716725019796,1.0000828357488483,0.00011648958004558357
-0.35254633770600774,-0.35254633770600774,0.9998167779060285,0.00011592947114018155
-0.35091454088615137,-0.35091454088615137,0.999964700382694,0.00011651648177506508
-0.3492316599447804,-0.3492316599447804,0.999994244468222,0.00011637224791701941
-0.34652505771446157,-0.34652505771446157,1.0000227943024114,0.00011678834719078188
-0.34477141448514886,-0.34477141448514886,1.000100721138543,0.00011652709547451602
-0.3424874921925948,-0.3424874921925948,1.0000264371014365,0.000115035293392568
-0.3409799693072273,-0.3409799693072273,1.0000645194919124,0.00011835990553811825
-0.3389508664724417,-0.3389508664724417,1.0001866891657523,0.00011626090434583058
-0.3365662949581747,-0.3365662949581747,1.0000483235625133,0.00011647230019099623
-0.3344156476450735,-0.3344156476450735,1.0000336187491705,0.0001164900880822303
-0.33277710188122,-0.33277710188122,1.000060489431967,0.00011583461859453522
-0.3314116596309759,-0.3314116596309759,1.0000684548033096,0.0001163745342594031
-0.3291290430017398,-0.3291290430017398,1.000201143903782,0.00011642238620202116
-0.3268195964315964,-0.3268195964315964,1.0000980514885003,0.00011687666293860988
-0.3247706891430425,-0.3247706891430425,0.99983151688586,0.00011651204776981882
-0.322683459547261,-0.322683459547261,1.0000863780413594,0.00011641682310780815
-0.3211147005393286,-0.3211147005393286,1.0000332967985952,0.00011888832687987868
-0.319073646585457,-0.319073646585457,0.999807953584962,0.00011618596772774595
-0.31657352624752094,-0.31657352624752094,0.9998043454927912,0.00011649051160869995
-0.31493012097707834,-0.31493012097707834,0.9999088269026236,0.00011569069757869067
-0.31347581661830193,-0.31347581661830193,1.0000382017205882,0.00011703263119405586
-0.31239262545859675,-0.31239262545859675,0.9999886564584667,0.00011649617677276058
-0.3105436232370266,-0.3105436232370266,0.9998312672440302,0.00011626776719379737
-0.308368563917611,-0.308368563917611,1.0001309353446466,0.00011694210147245561
-0.30682797312474575,-0.30682797312474575,0.9998704581861013,0.0001161704436727288
-0.30491118931167877,-0.30491118931167877,1.0001799438198942,0.00011645856236199275
-0.30335658621697803,-0.30335658621697803,1.0000709653863986,0.00011975092177243874
-0.30166480517436867,-0.30166480517436867,0.9999535441410379,0.00011616174079597278
-0.29959136331453917,-0.29959136331453917,1.0000873606012557,0.00011641888662855617
-0.29711058010580016,-0.29711058010580016,0.9998850296211271,0.00011648761020755641
-0.29549850845723996,-0.29549850845723996,1.0001444040460852,0.00011561336157151136
-0.2939756827574456,-0.2939756827574456,0.9999826646147293,0.00011712419876576752
-0.2926208609533205,-0.2926208609533205,0.9999935054301108,0.00011636766919741347
-0.29005505851309865,-0.29005505851309865,0.9999242771826469,0.00011646776125668857
-0.2878650927625131,-0.2878650927625131,0.9999232644074084,0.00011647743080499862
-0.2862483380537014,-0.2862483380537014,0.9997389666154701,0.00011608509551916372
-0.2849880904395832,-0.2849880904395832,0.9998623491054621,0.0001165212803743958
-0.28347498586153963,-0.28347498586153963,0.9998181402228006,0.00012100740935920464
-0.2810966795470449,-0.2810966795470449,0.9997908388263006,0.00011656918610013187
-0.2789242258324521,-0.2789242258324521,0.9999932099051557,0.00011649724186818323
-0.27704330798223964,-0.27704330798223964,0.9999520865591449,0.00011542887248872988
-0.27574305485322836,-0.27574305485322836,1.000015387142179,0.00011737345639363972
-0.27469689992067287,-0.27469689992067287,1.0001286197740553,0.00011652258840640244
-0.27257522325744504,-0.27257522325744504,1.0000579676680528,0.00011629014243172246
-0.2700346956044086,-0.2700346956044086,1.0000752710875247,0.00011648878761236392
-0.268498294823803,-0.268498294823803,0.9999428957351227,0.00011617705406886682
-0.26689626778679665,-0.26689626778679665,0.9997172019848678,0.00011650041163647397
-0.26563902967900505,-0.26563902967900505,1.000019701438862,0.0001239427304473562
-0.26418932193846556,-0.26418932193846556,1.0002215382490014,0.00011643597159564578
-0.2618331472673162,-0.2618331472673162,0.9998404644584218,0.00011660424717052742
-0.2597315835329937,-0.2597315835329937,1.0000571424063127,0.00011649693703270179
-0.2577466433300287,-0.2577466433300287,0.999580311021953,0.00011529277671396155
-0.2564386275313154,-0.2564386275313154,1.000035426358744,0.0001176460565112967
-0.25533040397567675,-0.25533040397567675,0.9999856414506931,0.00011648107822434294
-0.253091022503213,-0.253091022503213,1.0001280877516074,0.00011631217591917165
-0.25063143293082246,-0.25063143293082246,1.0000147793368672,0.00011662132023533732
-0.24921770952569205,-0.24921770952569205,0.9999588461536018,0.00011603022183825047
-0.24758827852710966,-0.24758827852710966,1.000018137454061,0.00011647700651314932
-0.24599319311309956,-0.24599319311309956,1.000061849244483,0.00011638179307478652
-0.2435462397937954,-0.2435462397937954,1.0003431120772637,0.00011654145799421849
-0.24154715984041103,-0.24154715984041103,1.0001656969591524,0.00011673606799475023
-0.23923465808984473,-0.23923465808984473,1.0002259430994447,0.00011508506628499166
-0.23789073260413715,-0.23789073260413715,0.9998843954540083,0.00011791527236639703
-0.23651437819862622,-0.23651437819862622,0.9998267128601437,0.00011646082364718367
-0.23406218420932418,-0.23406218420932418,1.0000640164362395,0.00011624700093405093
-0.23154924146438133,-0.23154924146438133,0.9997837420369258,0.00011649120612767005
-0.2299233580677537,-0.2299233580677537,1.0001376015525647,0.00011594637176955262
-0.2282925088016782,-0.2282925088016782,1.0001760722485322,0.00011650488742367757
-0.22660995083861052,-0.22660995083861052,0.9998356327896525,0.00011637404389142677
-0.22390261089312843,-0.22390261089312843,0.9999423135802248,0.00011680081674329414
-0.2221482786240813,-0.2221482786240813,0.9998937811390501,0.00011651817470492477
-0.21986531473812648,-0.21986531473812648,0.9999755756869968,0.00011501401402141685
-0.2183574396003678,-0.2183574396003678,0.9998246381008606,0.00011830694956352543
-0.21632907185339717,-0.21632907185339717,1.000068487863481,0.00011624698060326357
-0.21394470688610454,-0.21394470688610454,0.9998536818028791,0.0001164681679424842
-0.21179286797632813,-0.21179286797632813,0.9999185385443378,0.00011645892154398812
-0.21015432878921275,-0.21015432878921275,1.0002086108287402,0.00011587158720669367
-0.2087895667020348,-0.2087895667020348,1.0000333561392107,0.00011640558314914455
-0.20650775685935513,-0.20650775685935513,1.0000091954054553,0.00011639892979253212
-0.2041964312993514,-0.2041964312993514,1.000118070600941,0.00011687246746099525
-0.20214807754236971,-0.20214807754236971,1.000068431483589,0.00011654737859882413
-0.20006065323541405,-0.20006065323541405,0.9999020259069884,0.00011642585325542336
-0.19849266812234417,-0.19849266812234417,1.0002608834964553,0.00011881764312430386
-0.196452251575829,-0.196452251575829,0.9999769686856377,0.00011618654295308752
-0.19395110770929022,-0.19395110770929022,0.9997684632658842,0.00011648121308785193
-0.19215709272102685,-0.19215709272102685,1.0000206307796542,0.00011574075103361105
-0.19058896748319967,-0.19058896748319967,0.9999683840943401,0.00011703207481806072
-0.18934104686122738,-0.18934104686122738,1.0000721540730988,0.00011633446468372135
-0.18698230648806202,-0.18698230648806202,1.0000239005254425,0.00011642475288210297
-0.1848677006251819,-0.1848677006251819,1.0001407439409609,0.00011695542215823123
-0.18300589076097823,-0.18300589076097823,0.9998510634172056,0.0001161948750946674
-0.1814016980235465,-0.1814016980235465,0.9999752189057688,0.00011645184208049838
-0.17987931513998773,-0.17987931513998773,0.9998315194734906,0.00011956429260852279
-0.17782004516484448,-0.17782004516484448,0.9998760405109983,0.0001161459777281267
-0.1753226152199204,-0.1753226152199204,1.0003356827705414,0.00011651452876336168
-0.17344216506171506,-0.17344216506171506,0.9999929683584761,0.00011557440506531052
-0.17183989596451282,-0.17183989596451282,0.9998441285437293,0.00011713350306577814
-0.1707493302601506,-0.1707493302601506,0.9995752111405667,0.00011647115022178543
-0.168527779008582,-0.168527779008582,1.0002005401951295,0.00011633730080343166
-0.16598908258019945,-0.16598908258019945,1.0000903161313206,0.00011649641141556373
-0.16434954629148707,-0.16434954629148707,1.0000173277467983,0.00011614534451342611
-0.16274252403381978,-0.16274252403381978,1.0001685375740954,0.00011650665542031755
-0.16140396199771204,-0.16140396199771204,1.0001914437783088,0.00012082958591406671
-0.15957638972613494,-0.15957638972613494,1.0000513763030947,0.00011642956736411707
-0.15686338530213106,-0.15686338530213106,0.999872902099756,0.00011647785859815651
-0.15474017070810078,-0.15474017070810078,1.00007302354632,0.00011650008849389698
-0.1534177975343482,-0.1534177975343482,1.0001092640311984,0.00011626590471720569
-0.1523250569087395,-0.1523250569087395,0.9998858759898772,0.00011662294845809679
-0.15098060543095926,-0.15098060543095926,0.9999523405037435,0.00011635390467007464
-0.1484057277062675,-0.1484057277062675,1.0002407769856219,0.0001165078728284781
-0.1463534072630864,-0.1463534072630864,0.9999777730383521,0.00011653668664308192
-0.14496532870252848,-0.14496532870252848,1.0000995924570626,0.00011610914783063654
-0.14358063588661024,-0.14358063588661024,1.0000514808058563,0.00011651970724008541
-0.14206427918106784,-0.14206427918106784,0.9998377169010346,0.00012330671800419554
-0.14033628145189142,-0.14033628145189142,0.9998364742256648,0.00011651157559572378
-0.13793767245151684,-0.13793767245151684,1.0000742820864403,0.00011669844476827723
-0.13572287443239475,-0.13572287443239475,0.9999021328725647,0.00011652142574112559
-0.13440493117741426,-0.13440493117741426,1.000075207120409,0.00011641023441737869
-0.13317571881198093,-0.13317571881198093,0.9999602910735839,0.00011650345067993037
-0.13156981335559975,-0.13156981335559975,0.9999424428498,0.00011632869081449986
-0.12878470417344942,-0.12878470417344942,1.0000744433395619,0.00011648881845687955
-0.1270927896897774,-0.1270927896897774,0.9998250436144499,0.0001165953582418862
-0.12557448902516627,-0.12557448902516627,0.9998573656041737,0.00011598394771674834
-0.1243400526669575,-0.1243400526669575,1.0001336748759468,0.00011651530177150811
-0.12238610848289681,-0.12238610848289681,1.0015716437055087,0.00011641237780215272
-0.11996150075938203,-0.11996150075938203,0.9999840865857677,0.00011673277113583531
-0.11814430652593728,-0.11814430652593728,0.9999241925869409,0.00011647918148566621
-0.11626580939773704,-0.11626580939773704,0.9998376079627842,0.00011508769235406634
-0.11480290684849023,-0.11480290684849023,0.9998658040278402,0.00011793631498405348
-0.11306920914212241,-0.11306920914212241,1.0000221574504393,0.00011623709398456966
-0.11035051916987867,-0.11035051916987867,1.0000549885727945,0.00011646769930392634
-0.10818794963488472,-0.10818794963488472,0.999819299424433,0.00011649116704211398
-0.10654944400157547,-0.10654944400157547,0.9998842207425536,0.00011596446518748034
-0.10519084578263574,-0.10519084578263574,0.9999039266180982,0.00011640489952194099
-0.10291627794358646,-0.10291627794358646,1.0002258980973504,0.0001164131423168239
-0.10058801677369048,-0.10058801677369048,0.9999361739232595,0.00011679281233486485
-0.09854465141397668,-0.09854465141397668,1.0000904028219397,0.00011651163867945616
-0.09669850595164461,-0.09669850595164461,1.0001126875094983,0.00011503478360388557
-0.09489444087885204,-0.09489444087885204,1.00007336566042,0.00011825998847286874
-0.092859795831464,-0.092859795831464,0.999984677693767,0.00011625442369016107
-0.09034941980571602,-0.09034941980571602,1.0000107310012167,0.00011647551774184495
-0.08855467893736205,-0.08855467893736205,1.0001520965899924,0.00011587987055299439
-0.08691777242347598,-0.08691777242347598,0.9999299061046312,0.00011648396766064415
-0.08533031644765288,-0.08533031644765288,1.0000097001790342,0.00011636351811497045
-0.08286812397418544,-0.08286812397418544,0.999792163515281,0.00011647562220043459
-0.08089657902164618,-0.08089657902164618,0.9998062949705787,0.0001168462584460726
-0.07855495861949749,-0.07855495861949749,1.0001167974480034,0.00011645751275286892
-0.07681550915003754,-0.07681550915003754,1.0001640162806267,0.00011867594331139942
-0.07509409348785993,-0.07509409348785993,1.0000046690942814,0.00011622571110434172
-0.07279863089643186,-0.07279863089643186,0.9999831576951216,0.00011647996189508058
-0.0705260751201422,-0.0705260751201422,1.0002036870584472,0.0001165014939853779
-0.06891101345318021,-0.06891101345318021,1.0002031342939863,0.00011621816171105495
-0.0676232564568636,-0.0676232564568636,1.0001220865652236,0.00011648819778825459
-0.06593582290588529,-0.06593582290588529,0.9999723950487667,0.00011635605007696923
-0.06323949775178335,-0.06323949775178335,0.9998914502042675,0.00011691834307637689
-0.06158266572238062,-0.06158266572238062,0.9999021278100446,0.00011621007369416516
-0.05972679796177545,-0.05972679796177545,0.9999713939031836,0.0001294936584609222
-0.05842034344386775,-0.05842034344386775,0.9999216367855877,0.00011642369103888033
-0.05684692395443562,-0.05684692395443562,1.0000103010543573,0.00011947443402165187
-0.05480206202191766,-0.05480206202191766,1.0002231953463279,0.00011616012796706648
-0.05230808253545547,-0.05230808253545547,1.000318711700234,0.00011649898929675419
-0.050514644436043456,-0.050514644436043456,0.999670110903984,0.00011560716701557403
-0.04894667180124088,-0.04894667180124088,1.0003740971758517,0.0001171189552501366
-0.04778308773238678,-0.04778308773238678,0.9999396426965091,0.00011635180776537501
