time,time,flux,flux_err
-0.4999558271827785,-0.4999558271827785,1.0010933815988163,0.0005333330895781766
-0.4998564477085665,-0.4998564477085665,0.9996012419390005,0.0005293271341008869
-0.4996420267789669,-0.4996420267789669,1.000053867940451,0.0005247268240298336
-0.4994814676160407,-0.4994814676160407,0.9996390674069517,0.0005792201639322023
-0.4993801269788946,-0.4993801269788946,0.9998263171723611,0.00045827428603221825
-0.49923216955276073,-0.49923216955276073,1.0002418245291698,0.000494332005226639
-0.49899282796945954,-0.49899282796945954,0.999446414032044,0.0004709970578095912
-0.4987750263012913,-0.4987750263012913,1.0001266124375392,0.0004794098950179175
-0.49864333735554284,-0.49864333735554284,1.0002859698522002,0.00047727481761798273
-0.4985820136809707,-0.4985820136809707,0.9999834913188932,0.0005063589480369139
-0.4984113377209269,-0.4984113377209269,0.9998185388084899,0.00048733140688530336
-0.4981824537096145,-0.4981824537096145,0.9997421101524907,0.0004711579035297763
-0.49804535739749556,-0.49804535739749556,0.9999414731996005,0.0005051062905882325
-0.4978160221871349,-0.4978160221871349,1.0001548679905443,0.0004754756635489409
-0.4976381256836703,-0.4976381256836703,0.9994982778733655,0.00046085820652173843
-0.49743239709441694,-0.49743239709441694,1.0003304210255055,0.0005270625826276844
-0.4972743429970706,-0.4972743429970706,1.000425577859699,0.0004869742276160316
-0.49713621678624803,-0.49713621678624803,0.9999677689340688,0.0005072560931171078
-0.4969614529245973,-0.4969614529245973,1.0000391581280164,0.0004558598613436199
-0.4968165778715047,-0.4968165778715047,1.0000013760261877,0.00043965529848767214
-0.49668985867615445,-0.49668985867615445,1.0001327851419604,0.0004533357313494696
-0.4966169120680661,-0.4966169120680661,1.0008017399444442,0.000521085585441403
-0.4964040522897449,-0.4964040522897449,1.0001690204106333,0.0004654670779460939
-0.4962806650498351,-0.4962806650498351,1.0000349316106096,0.000491744388921261
-0.49610911184763606,-0.49610911184763606,0.9991114193960277,0.000497509047104441
-0.49602800014772586,-0.49602800014772586,0.9999959821780215,0.0004948012063959852
-0.4958300993387638,-0.4958300993387638,0.9997400856105443,0.0005053311497902867
-0.4955518531906364,-0.4955518531906364,1.000303551839275,0.0004619979271923335
-0.49538402182797653,-0.49538402182797653,1.0004356112489454,0.0004812769842147794
-0.49526575240111015,-0.49526575240111015,1.0002094574804818,0.0005726429514143089
-0.4951790924727447,-0.4951790924727447,0.9999970941140603,0.000506917247820264
-0.4951131124627864,-0.4951131124627864,0.9998896215798077,0.0004665885988094359
-0.49497756128330367,-0.49497756128330367,1.0004735904345827,0.0005429008879062913
-0.49482238350606167,-0.49482238350606167,0.9996608569965273,0.0004894169611913377
-0.4947274649393876,-0.4947274649393876,0.9999838336082935,0.0004943278190197682
-0.49457594581253944,-0.49457594581253944,0.9999431461725761,0.0004825673931318073
-0.4943389032768664,-0.4943389032768664,0.9998163398594139,0.0005673926952184744
-0.4941758129837126,-0.4941758129837126,0.9991844190789951,0.00046521092969557863
-0.4940589241030466,-0.4940589241030466,0.9998041297384208,0.0004820733162896669
-0.4938950331522392,-0.4938950331522392,0.9993504422800481,0.0005028327790523701
-0.4938195192105468,-0.4938195192105468,0.9994948532696697,0.0004421595930096846
-0.49368521825558676,-0.49368521825558676,1.0001391525727497,0.0004983588467137592
-0.49353261637793366,-0.49353261637793366,0.9997926582833123,0.0005271640913745051
-0.4933980082624657,-0.4933980082624657,1.000446639057573,0.0004941918946917169
-0.4933119844456996,-0.4933119844456996,0.99970769375957,0.0004583863542793541
-0.4931640188895926,-0.4931640188895926,1.0001892908748362,0.0004944084812023846
-0.4929359299896078,-0.4929359299896078,1.0007474916838615,0.00047608056083600923
-0.4927512490225581,-0.4927512490225581,1.0006237760098364,0.0004796340503248332
-0.49258893032333617,-0.49258893032333617,0.9998007465377627,0.0004449447766298152
-0.4925224578727466,-0.4925224578727466,1.0000059883055332,0.0005211028802582764
-0.4924030914920422,-0.4924030914920422,1.000190410197915,0.00048491394636779957
-0.49214165266612325,-0.49214165266612325,1.000012565328015,0.00047654856087645924
-0.49201203676097977,-0.49201203676097977,0.9993423107573728,0.0004947970733633243
-0.4918027492701185,-0.4918027492701185,0.9994866270549287,0.0004697440435587951
-0.4915856132166027,-0.4915856132166027,0.9994754803091078,0.0004605924229005286
-0.49141708685956476,-0.49141708685956476,0.9999101935880507,0.000526610030921802
-0.4912067070755256,-0.4912067070755256,1.0001071656468,0.0005040751433916786
-0.4910531208080101,-0.4910531208080101,1.0000188109640848,0.0004892990034600089
-0.49085882079334625,-0.49085882079334625,0.9999788269196553,0.00044342153707788254
-0.490663237411718,-0.490663237411718,1.000173884196593,0.00043661950738421257
-0.4905917664883418,-0.4905917664883418,1.000270415648956,0.0004930381507665046
-0.4904876989425702,-0.4904876989425702,1.0000817835799265,0.00048775534727459117
-0.4903111267386976,-0.4903111267386976,0.9998650373014021,0.0004919976408533369
-0.49017842935568295,-0.49017842935568295,1.000082588584878,0.0005063951189557297
-0.4900233202165964,-0.4900233202165964,1.0009410910875938,0.000497758165191251
-0.48993947182925696,-0.48993947182925696,0.9992863083942263,0.0004918406411780964
-0.489678821004054,-0.489678821004054,1.000282826356915,0.00048696119370531075
-0.4894397381161525,-0.4894397381161525,1.000117705317697,0.0004487194344966832
-0.4892908998375788,-0.4892908998375788,1.0006629583678577,0.0005027541546935398
-0.4891863413438841,-0.4891863413438841,1.0001432753032051,0.0005801801837862214
-0.48911092832508984,-0.48911092832508984,1.0003756847167888,0.0005065956784207046
-0.4890449797580459,-0.4890449797580459,1.0003818924970083,0.0004654096803235086
-0.4889093921514359,-0.4889093921514359,1.0007929412625933,0.0005438342508620712
-0.48875425914452536,-0.48875425914452536,0.9998183439181003,0.0004898225350020692
-0.4886593471523611,-0.4886593471523611,0.9991815416449207,0.0004943301352515585
-0.48850782213817184,-0.48850782213817184,0.9996143232494215,0.00048214391114495374
-0.488270727733925,-0.488270727733925,1.000357366707107,0.0005672468833991201
-0.4881089991587942,-0.4881089991587942,1.000171038848773,0.0004415505958616906
-0.48801771281964645,-0.48801771281964645,0.9999925644919037,0.0004824754815980923
-0.48785025125107495,-0.48785025125107495,1.0004139290943168,0.0005063899963052853
-0.48777240852809883,-0.48777240852809883,1.0000863271004719,0.0004513975233518139
-0.4876360468727398,-0.4876360468727398,1.0004042782606803,0.0004956582670189169
-0.4874644552074642,-0.4874644552074642,1.0003480286744393,0.0005266583145090719
-0.48732988218916945,-0.48732988218916945,0.9999954921470525,0.0004937950852374484
-0.4872438419213722,-0.4872438419213722,0.9998560180029756,0.00045846430766596335
-0.487095868250708,-0.487095868250708,1.0000407743976054,0.0004945886124477028
-0.4868785768602265,-0.4868785768602265,0.9999782927319559,0.00048346107651098355
-0.4866831274512151,-0.4866831274512151,0.9998621768468425,0.0004799083305616138
-0.48650706793600873,-0.48650706793600873,1.0006648970723881,0.00047754396474406256
-0.4864456917022835,-0.4864456917022835,0.9999404265631375,0.0005061275236627324
-0.48627500628717824,-0.48627500628717824,1.0007255609821155,0.0004873660192950455
-0.48606572807916565,-0.48606572807916565,1.0002630454118144,0.0004639408815585447
-0.48589572727269115,-0.48589572727269115,0.9995802964054399,0.0004614910604723045
-0.4857081462764654,-0.4857081462764654,0.9999340507405406,0.0004473441729451893
-0.48551745604390817,-0.48551745604390817,1.0001692774405126,0.0004607695051128921
-0.4853884207745523,-0.4853884207745523,0.9999931239667343,0.0005487464418899261
-0.4851965506014949,-0.4851965506014949,0.9993960086658307,0.0005068152204663757
-0.4850509841834082,-0.4850509841834082,1.0000269318659631,0.0004911284908863566
-0.48486625629852825,-0.48486625629852825,0.9994478349755351,0.00045657131148493226
-0.4846526868753699,-0.4846526868753699,1.0010841467162463,0.00045173847459709267
-0.484533804189914,-0.484533804189914,1.0003797810798898,0.0004903165882902762
-0.4843971201869863,-0.4843971201869863,0.9998284017665959,0.0005047137309909122
-0.4841992042394395,-0.4841992042394395,1.0002645953484521,0.0004847123025349106
-0.48403250923374797,-0.48403250923374797,1.0001076635963149,0.0005080424113003341
-0.4839355366021209,-0.4839355366021209,1.0004485248926982,0.0004882418339261192
-0.4838065547037331,-0.4838065547037331,1.0000259840084804,0.0004936220580303266
-0.48355427065307593,-0.48355427065307593,0.9994182699097885,0.00047568689223675677
-0.483371603410751,-0.483371603410751,1.0000314149564986,0.00044849573778709534
-0.48322275623886524,-0.48322275623886524,1.0001348977433877,0.000502884432189211
-0.4831072304033114,-0.4831072304033114,1.0000097180798295,0.0005586838515607929
-0.4830310651688251,-0.4830310651688251,0.9997410676008496,0.0004789989494482706
-0.4829553500576367,-0.4829553500576367,0.9998284505151679,0.0004641905076738285
-0.48280228410003473,-0.48280228410003473,1.0005682789183594,0.0005533308164601343
-0.4826705722586212,-0.4826705722586212,1.0006150769578537,0.0004946976258315293
-0.4825716858802934,-0.4825716858802934,0.9993295627494699,0.0004950670271276338
-0.4824122634957348,-0.4824122634957348,0.9998960328019992,0.0005194116304636028
-0.4822025521837986,-0.4822025521837986,0.9998944429230084,0.0005672795856297883
-0.4820395583311893,-0.4820395583311893,1.000219147901962,0.00046513787276066746
-0.481922606277476,-0.481922606277476,0.9999151815838937,0.0004820940974870012
-0.4817587321792871,-0.4817587321792871,1.000482787733961,0.000502330057107182
-0.48168325048554833,-0.48168325048554833,0.999400658017757,0.00044194193661637414
-0.48153530062249955,-0.48153530062249955,1.0009022283216453,0.00048574519150629215
-0.4813962940596411,-0.4813962940596411,0.9998557006053211,0.0005263431060398727
-0.481261756126969,-0.481261756126969,1.000035231788636,0.000493383032820681
-0.4811756994134157,-0.4811756994134157,0.9997902236620414,0.0004584869312157855
-0.4810277176464751,-0.4810277176464751,1.0004251517849598,0.0004946356762124023
-0.48081041253694823,-0.48081041253694823,1.000250400823831,0.00048324819005144467
-0.4806150058927415,-0.4806150058927415,0.999893834508535,0.000480076541762919
-0.4804389332572555,-0.4804389332572555,0.9999873836093945,0.00047741913228796794
-0.4803775307305386,-0.4803775307305386,0.999822647149929,0.0005059354812786054
-0.4802068405665068,-0.4802068405665068,1.0001366221059995,0.00048724457645823733
-0.47999758097098494,-0.47999758097098494,1.000638091667167,0.0004639946463446755
-0.4798256685978231,-0.4798256685978231,1.0003174256924048,0.00046175878259636813
-0.47955628315344256,-0.47955628315344256,0.9996457962095121,0.0004893017616647779
-0.47941016714466966,-0.47941016714466966,1.0008110673270265,0.0004835411040906348
-0.47921156819124916,-0.47921156819124916,0.9998796903917382,0.0004912217874176912
-0.4790429611843138,-0.4790429611843138,0.9997726197712227,0.0005042328692705397
-0.47887819101310924,-0.47887819101310924,1.0005219050996015,0.00047317001542615474
-0.47870353067742144,-0.47870353067742144,0.9992282729414536,0.0004872503066852111
-0.47851018419396496,-0.47851018419396496,1.0005010682551003,0.00046128700183654784
-0.478431843668659,-0.478431843668659,0.9994374438049525,0.0005152361503750183
-0.47823948298705543,-0.47823948298705543,1.000059909859591,0.000484603858809995
-0.47807620969638265,-0.47807620969638265,1.0003026255011083,0.0004915865932708255
-0.47790463249953063,-0.47790463249953063,0.9999837573764173,0.0004972765710893717
-0.4778236690769518,-0.4778236690769518,0.9997931954813349,0.000495109104467981
-0.4776524710578087,-0.4776524710578087,1.0005103706136904,0.0004851175591939598
-0.47741384481478233,-0.47741384481478233,1.000347786004113,0.00045310034770817286
-0.4772732571322649,-0.4772732571322649,0.9999665329306252,0.00046185818025871875
-0.4771276056574152,-0.4771276056574152,0.9994600369420052,0.0005134647105541435
-0.4770200084421049,-0.4770200084421049,1.000017916457312,0.0005408478328098562
-0.47694917109852214,-0.47694917109852214,0.9998990461926753,0.0005039696580892959
-0.4768637978055722,-0.4768637978055722,0.9997482928598911,0.0005076692559152887
-0.47669870788113256,-0.47669870788113256,0.9991149463374935,0.0005018908615201346
-0.4765721129560916,-0.4765721129560916,0.9998255333955053,0.00049485711571853
-0.4764543149828569,-0.4764543149828569,1.0002662065649937,0.00048107115760104654
-0.4762607063885298,-0.4762607063885298,1.0001652506393812,0.0005014397673977226
-0.4760661317224276,-0.4760661317224276,1.0000444087155163,0.0005650998649842327
-0.47591642471370504,-0.47591642471370504,0.9999783857565566,0.00045579768280418366
-0.4757871309737311,-0.4757871309737311,1.0004177268069836,0.0005152774526107991
-0.47566845094729615,-0.47566845094729615,1.0005403029762907,0.0004820746883951092
-0.475573278105594,-0.475573278105594,1.0002627368691752,0.0004831257259206892
-0.47538451840191553,-0.47538451840191553,0.9998822480653754,0.00047789913426101024
-0.4752415796646801,-0.4752415796646801,1.0003087840640956,0.0005376564240078815
-0.47516046357027336,-0.47516046357027336,0.9998837126274059,0.0004695779446986805
-0.475062950776919,-0.475062950776919,1.0005091003316358,0.0004579727568471829
-0.47486023305896197,-0.47486023305896197,1.0002173858099668,0.0005057445916223573
-0.47467953424984444,-0.47467953424984444,1.0007131075713327,0.00047156693510559146
-0.4744829927812134,-0.4744829927812134,1.000680500801017,0.00047410709741832274
-0.4743560445356252,-0.4743560445356252,1.000375883633425,0.0004779302142956649
-0.4743002593369511,-0.4743002593369511,0.9992395748342744,0.0005057570231515244
-0.47407956958995784,-0.47407956958995784,1.0003962285947439,0.0004872916273191227
-0.4739042707488352,-0.4739042707488352,0.999626007364818,0.0004602566792823449
-0.47371517352585213,-0.47371517352585213,1.0007559508705852,0.0004652081746897753
-0.4734358048307513,-0.4734358048307513,1.0002904462868687,0.00047381638711760214
-0.47331614580348286,-0.47331614580348286,1.0004128724239156,0.000510327191619715
-0.47309646044977854,-0.47309646044977854,0.9998292724714097,0.00047922589158201965
-0.4729480407097526,-0.4729480407097526,0.9995974903588376,0.0005034435924032879
-0.4727723381762189,-0.4727723381762189,0.999818249988247,0.00046139584272699325
-0.4725988365412377,-0.4725988365412377,1.0001051977044864,0.0005051917380680843
-0.47241726112188187,-0.47241726112188187,0.9994459199702401,0.0004530191163118577
-0.4723442901839917,-0.4723442901839917,0.9999891748671124,0.0005200820863606922
-0.4721238522914518,-0.4721238522914518,1.0000170328685554,0.0004639596277751427
-0.4719740006548818,-0.4719740006548818,1.0002239041566694,0.0005065128831593177
-0.47181881846945545,-0.47181881846945545,0.9998735810723284,0.0004972752315276853
-0.4717350966660888,-0.4717350966660888,1.0003961522056612,0.0004920868422230396
-0.47152458854438917,-0.47152458854438917,0.9996829143961318,0.00047467154401146627
-0.47130532501391825,-0.47130532501391825,0.9995726092033397,0.0004731740142953758
-0.4711390996945738,-0.4711390996945738,0.9993410078573198,0.0004639274348835624
-0.47101409839119696,-0.47101409839119696,0.9995153119295968,0.000537142237256056
-0.4709165331049462,-0.4709165331049462,0.9997981123314339,0.000539042840323796
-0.4708574065291941,-0.4708574065291941,1.0004524652800029,0.0004849971633816323
-0.4707223548991806,-0.4707223548991806,1.0000257182332088,0.00051398091846887
-0.4705423072782196,-0.4705423072782196,1.0006732133134244,0.00047720974878380176
-0.4704354881368545,-0.4704354881368545,1.00087217407686,0.0004950544897770891
-0.47027597527985565,-0.47027597527985565,1.000052683709465,0.0005215453323881755
-0.47003749369018805,-0.47003749369018805,1.0000975354400086,0.0005531011188804066
-0.4698721764907532,-0.4698721764907532,1.0002997911449116,0.0004574441621472203
-0.46978032547472137,-0.46978032547472137,1.0002430829616809,0.0005052648458435567
-0.46961781628219795,-0.46961781628219795,0.9999835557043415,0.0004888637140930064
-0.4695279590571772,-0.4695279590571772,1.0000627051631066,0.00048272457301136527
-0.46938508521670885,-0.46938508521670885,1.000346874146525,0.0004734069899108655
-0.46922735804769217,-0.46922735804769217,1.0001165889549248,0.0005245185254510528
-0.4691089817642933,-0.4691089817642933,0.9999436795770593,0.0004891813669228649
-0.46900516638165757,-0.46900516638165757,1.0005120394543516,0.0004656809324811983
-0.468792076975933,-0.468792076975933,1.0004537454420632,0.0005059404736131658
-0.46857353473137664,-0.46857353473137664,1.0003409213415408,0.00048134964849342053
-0.46838161210312135,-0.46838161210312135,0.9995642918784278,0.0004616743693779728
-0.46827395513882947,-0.46827395513882947,1.0000224601190737,0.0004773902607440068
-0.4682100914898001,-0.4682100914898001,0.9995889066596406,0.0005087624586668637
-0.4679619896689019,-0.4679619896689019,1.0000996328327028,0.00047935785358411184
-0.46780364675305464,-0.46780364675305464,0.9996394551959966,0.0004674293309102304
-0.46765766496737343,-0.46765766496737343,0.9999575949678887,0.00046404515937685937
-0.4674199548357592,-0.4674199548357592,1.0004263806794078,0.000489435973651748
-0.4672738622899487,-0.4672738622899487,0.9997093004335189,0.00048266386721821525
-0.4670752763857763,-0.4670752763857763,1.0002136469884708,0.0004913793423287607
-0.4669067015827295,-0.4669067015827295,1.0004030461131728,0.000504246480441134
-0.4667740640382817,-0.4667740640382817,1.0000183963298983,0.00046374759163671263
-0.4666002461343851,-0.4666002461343851,0.999655363064717,0.0004976847579743034
-0.46640773735625773,-0.46640773735625773,1.0000149636195832,0.0004379195044251138
-0.4663121202841921,-0.4663121202841921,1.000335886808109,0.0005147394403048587
-0.46614853554815455,-0.46614853554815455,0.9997291683928109,0.0004794241586340924
-0.46596833577982577,-0.46596833577982577,1.00027014038095,0.0005042158888269657
-0.46579765883620894,-0.46579765883620894,1.0003345576431557,0.0005157270066972364
-0.4657311019444933,-0.4657311019444933,1.0006358075044468,0.0004881447483274386
-0.4656020820140384,-0.4656020820140384,1.0002254080195236,0.0004934277081552183
-0.4653497135031103,-0.4653497135031103,1.0003928615362014,0.0004761929394268929
-0.4651671994302887,-0.4651671994302887,0.9999988290400526,0.00044858517362351855
-0.4650183255460888,-0.4650183255460888,0.999531028164176,0.0005036061099024478
-0.46490283736193305,-0.46490283736193305,0.9996209772571134,0.0005583326035459185
-0.46482656543803386,-0.46482656543803386,0.9995193371812938,0.00047869401475196126
-0.4647509614399496,-0.4647509614399496,0.9993992539543711,0.00046106508906910775
-0.4645664073543685,-0.4645664073543685,0.999722827800554,0.0005369896193811837
-0.4644358582840141,-0.4644358582840141,0.999561191465564,0.0004948567136376688
-0.4643180800217124,-0.4643180800217124,1.000107368687678,0.00048098774068820987
-0.4641033910758324,-0.4641033910758324,1.0004082227230153,0.0005102349259117538
-0.46389894789640496,-0.46389894789640496,0.9991219417864128,0.000560726150961066
-0.4637595274603427,-0.4637595274603427,1.0002381697048235,0.00045899028986216936
-0.4636140564282414,-0.4636140564282414,1.000137141811874,0.0005144485660784654
-0.46349986939280824,-0.46349986939280824,1.0000650797350754,0.0004514386931426007
-0.463383630568751,-0.463383630568751,0.9997591935789325,0.0004953127770665736
-0.4632133202332625,-0.4632133202332625,1.0000437585400497,0.00047803382882838076
-0.46308441182213755,-0.46308441182213755,0.999455422543531,0.0005328364284778902
-0.46298450056251567,-0.46298450056251567,1.0002200377377117,0.0004712616829689469
-0.4628378042298209,-0.4628378042298209,0.9997267164992142,0.0004406297886057819
