time,time,flux,flux_err
-0.4999170600931393,-0.4999170600931393,1.00008622083637,0.00017013081866236587
-0.4997938023795238,-0.4997938023795238,1.000028086675822,0.00015442733838516763
-0.499610066752939,-0.499610066752939,0.9998473356901132,0.00015196487987887577
-0.49953660756073076,-0.49953660756073076,1.0000743806013679,0.00014621034780169562
-0.49941830844036306,-0.49941830844036306,1.0001806136383857,0.00014720408185905936
-0.4993000036374724,-0.4993000036374724,0.9999996306517118,0.00014132122286327392
-0.4992146603472065,-0.4992146603472065,1.0002751826953404,0.00015392589610494967
-0.4991191764442192,-0.4991191764442192,1.0000364895481275,0.0001386686207139833
-0.49901822786559935,-0.49901822786559935,1.0000736139983757,0.0001421697371982975
-0.498915710599249,-0.498915710599249,0.99996851354657,0.0001410919135788269
-0.4988217066296784,-0.4988217066296784,0.9999846291848709,0.0001421412850618875
-0.4987141169389361,-0.4987141169389361,1.0000305360047625,0.00013939998388779346
-0.4985646273875318,-0.4985646273875318,0.9998425671332811,0.00014610364298879905
-0.49847193482419244,-0.49847193482419244,1.0000093100197174,0.00014125175829146546
-0.49836834379384526,-0.49836834379384526,1.000174327286581,0.00013964303761202385
-0.49823738117993344,-0.49823738117993344,1.0001840288635713,0.00013989193818439866
-0.49812226026697315,-0.49812226026697315,1.000025151557418,0.00014239293103087767
-0.498000362196035,-0.498000362196035,1.0000247742533221,0.00013936826218196213
-0.4979252318924409,-0.4979252318924409,1.0001403481671227,0.00014696694054108485
-0.49779173733477367,-0.49779173733477367,1.0002279031781796,0.0001554078537396788
-0.4976195377443219,-0.4976195377443219,1.0000733465296203,0.0001500665945544054
-0.4975335745206394,-0.4975335745206394,0.9999893986801883,0.000155398178779751
-0.49737219485250533,-0.49737219485250533,0.9998871750245716,0.00014082807326306078
-0.4972713553193898,-0.4972713553193898,1.0000819862498778,0.00015384505071111538
-0.497116923941212,-0.497116923941212,1.0001134493636898,0.00014848723106678953
-0.4969757298073091,-0.4969757298073091,1.0000268707451323,0.0001384591982758343
-0.4969029821368167,-0.4969029821368167,0.999822192893793,0.00015316314661953647
-0.49679838597148773,-0.49679838597148773,0.9999454962446628,0.00014192244564368819
-0.49667703010418335,-0.49667703010418335,1.000060303883917,0.0001391686435244946
-0.496602170222468,-0.496602170222468,0.9999319886195241,0.00014260638468039196
-0.4964923713239841,-0.4964923713239841,0.9998169693200687,0.00013942171364495466
-0.4963939497793035,-0.4963939497793035,1.0000250335716037,0.0001394606431884994
-0.4962811020872323,-0.4962811020872323,0.9998642310236738,0.0001447960363330216
-0.4961706249123381,-0.4961706249123381,0.99996017133094,0.0001422928914858533
-0.49606760247988857,-0.49606760247988857,1.000103221866795,0.00013819905947057607
-0.4959210784290917,-0.4959210784290917,1.0001926970961157,0.00014108289833833807
-0.4957659360479738,-0.4957659360479738,1.0002180659656428,0.00014433539759489274
-0.49565256653877443,-0.49565256653877443,1.0001090685132663,0.00014282504950427605
-0.4955756752824527,-0.4955756752824527,1.0000299512136184,0.00014430849953861116
-0.49541915121299096,-0.49541915121299096,0.9997665792270227,0.00015715489378440912
-0.4952795953977329,-0.4952795953977329,0.9999984185567978,0.00014295445567880566
-0.4951260933186859,-0.4951260933186859,0.9997866851160261,0.00014482076921608957
-0.49494119947339643,-0.49494119947339643,1.000231862197712,0.00015037277490478868
-0.49474378308150335,-0.49474378308150335,0.9999255170201939,0.00014477018872450072
-0.4946229429893719,-0.4946229429893719,1.0000732627298685,0.0001421163956764641
-0.4945766925899079,-0.4945766925899079,0.9998754986194719,0.00014835225495456842
-0.4944826446189836,-0.4944826446189836,1.0001014872933003,0.00014201238248771252
-0.49436898195635876,-0.49436898195635876,1.0000903839613362,0.0001408230244238219
-0.4942852691056032,-0.4942852691056032,1.0001070751839016,0.00014090968143188609
-0.49412839225115024,-0.49412839225115024,1.0000640607940336,0.000140516731264815
-0.493980349481717,-0.493980349481717,1.0001163105888546,0.00014532027963681587
-0.493837883976812,-0.493837883976812,1.0001046003437157,0.00014430683273619556
-0.49373608655441786,-0.49373608655441786,0.999978960261644,0.00013798838971049832
-0.4935669027181575,-0.4935669027181575,1.00012235542897,0.00014168398426655474
-0.4934536275155551,-0.4934536275155551,0.9999465263568854,0.00014290770664414902
-0.4933517502766335,-0.4933517502766335,1.000114094151284,0.00013658847464629556
-0.49330593510094334,-0.49330593510094334,1.0002332612390492,0.00015658069121563458
-0.4932136694114888,-0.4932136694114888,1.000012083747627,0.00014174887363043305
-0.4930701155288261,-0.4930701155288261,1.0000758555072715,0.000151864133460411
-0.49294861988237243,-0.49294861988237243,1.0002233035574268,0.0001414627570984669
-0.4928149197425228,-0.4928149197425228,0.999964929436635,0.00014480406811349852
-0.49264056826868907,-0.49264056826868907,0.9998547806812189,0.00015802176266080506
-0.4924612176371738,-0.4924612176371738,1.0000790908515917,0.00014427898396518975
-0.49230850283274774,-0.49230850283274774,1.0001041043641465,0.00014205041229263207
-0.4922478735548793,-0.4922478735548793,0.9999670062055387,0.00015098265564076732
-0.4921291215432575,-0.4921291215432575,1.0002492070522888,0.00014455847186195097
-0.49200965223353704,-0.49200965223353704,0.999856752298942,0.00014004439711634182
-0.4918854479343281,-0.4918854479343281,1.0001063346380332,0.00014052364767656297
-0.4917567530799715,-0.4917567530799715,1.0000536486240985,0.00013960700089363858
-0.49163773852051235,-0.49163773852051235,1.0002024279092185,0.00014687943031151674
-0.49145454049357795,-0.49145454049357795,0.9999636507759945,0.0001383325522835801
-0.4913465292265755,-0.4913465292265755,0.9999879016113569,0.00014037953892487304
-0.49121575180761284,-0.49121575180761284,1.0000093254105644,0.000142093505148689
-0.49112507887039103,-0.49112507887039103,0.9999501327879567,0.00014035650904389168
-0.4910084763956547,-0.4910084763956547,1.000153754015763,0.00014126655205568093
-0.49096785198853465,-0.49096785198853465,0.9999236254515225,0.00014313849546260498
-0.490865845062217,-0.490865845062217,0.9997423613058899,0.0001442089317855825
-0.49068176803193636,-0.49068176803193636,0.9999428240164804,0.00014667304368961854
-0.4905775914048718,-0.4905775914048718,1.0001699131104929,0.0001420668653394204
-0.4904500245320378,-0.4904500245320378,0.9999984501968026,0.00014122958813500444
-0.49029480590616004,-0.49029480590616004,1.0002887455266933,0.00014884742450979919
-0.49010200278571575,-0.49010200278571575,0.9998705370481786,0.00014211566754402202
-0.48998769273603104,-0.48998769273603104,0.9999474127437715,0.00014118571835328798
-0.4899310286862601,-0.4899310286862601,0.9998954737323723,0.0001478605425772859
-0.4898523782700067,-0.4898523782700067,1.0001470603244034,0.00014220974307746349
-0.48973611123874433,-0.48973611123874433,0.9998878466099683,0.00014354489801430588
-0.48961996620491843,-0.48961996620491843,0.9997861133020972,0.0001399050737066722
-0.4894457584938209,-0.4894457584938209,0.999896026162924,0.00014194636213906903
-0.48930757325870217,-0.48930757325870217,0.99995256732203,0.00014441015356706345
-0.48915553408733103,-0.48915553408733103,0.9999632351341248,0.0001378195576624592
-0.488991702975909,-0.488991702975909,1.0001303952031262,0.00014742150472256315
-0.4888905088810134,-0.4888905088810134,1.0001986974412158,0.00014142517812584666
-0.48872844428478857,-0.48872844428478857,0.9999690664940744,0.00014093939518448244
-0.48866929295036243,-0.48866929295036243,1.0002131277326298,0.00014132816012880507
-0.48861224278007287,-0.48861224278007287,1.0000475001090894,0.00014554198001317942
-0.4885219730364042,-0.4885219730364042,0.9999390783435768,0.00014720569013627552
-0.48839391836518187,-0.48839391836518187,0.9999996043985611,0.000141862527921164
-0.488299919221754,-0.488299919221754,0.999807184738874,0.00015314739821194184
-0.4881765710088075,-0.4881765710088075,1.0001257334636777,0.00014358374592629713
-0.48804063575953477,-0.48804063575953477,0.999901294543557,0.00013929943242138425
-0.4878777886748139,-0.4878777886748139,1.0001409354138537,0.00014680441232228027
-0.4877147280865756,-0.4877147280865756,1.0000404708085395,0.0001432463235565087
-0.48764773381335547,-0.48764773381335547,1.0000319602904828,0.00013949365797104785
-0.4875956051037065,-0.4875956051037065,0.9999841266620606,0.00014848695916776862
-0.48751878857729025,-0.48751878857729025,1.0000498644823168,0.00014095521050040807
-0.48742386907251783,-0.48742386907251783,1.0001206336564499,0.0001434217093514665
-0.48727315663345505,-0.48727315663345505,1.0000550578578724,0.00013850869577644836
-0.4871340797515586,-0.4871340797515586,0.9999731903391874,0.00013983400431847725
-0.48704479165244263,-0.48704479165244263,1.0001110532657562,0.000145015414337914
-0.4868887360986264,-0.4868887360986264,1.0000949661736882,0.0001413250386975203
-0.48670356455331787,-0.48670356455331787,1.0001780281922266,0.00014596756897820406
-0.4865855573982117,-0.4865855573982117,1.0001759852230703,0.00014308918198162386
-0.48641345995420127,-0.48641345995420127,1.000073597397684,0.00014296227270526777
-0.48631814305335863,-0.48631814305335863,0.9998977819410216,0.00014708651504076174
-0.4862690392779768,-0.4862690392779768,1.000145309741038,0.00014249939724719153
-0.48607410470795004,-0.48607410470795004,0.9999017186601661,0.00014456138880181553
-0.48597866739073653,-0.48597866739073653,1.0002111069105464,0.00015062227867558987
-0.4858573708384938,-0.4858573708384938,0.9998591877951032,0.00014830342880736182
-0.4857381480600452,-0.4857381480600452,1.000131378993831,0.0001407123638839411
-0.4855846999664209,-0.4855846999664209,1.0000794181016783,0.00014829260300917006
-0.48542268860328475,-0.48542268860328475,0.9999277995752586,0.00014111200125820167
-0.48534202187292974,-0.48534202187292974,1.0000799509255582,0.0001406422360156147
-0.485279097547027,-0.485279097547027,0.9997898572509365,0.0001487979808256069
-0.4851939108433726,-0.4851939108433726,1.000133032006453,0.00014080030732340133
-0.4851116576610366,-0.4851116576610366,0.9998969335682475,0.00014338922474733265
-0.4849911463308672,-0.4849911463308672,1.0001695609266634,0.00013770158015454165
-0.48480887619225543,-0.48480887619225543,1.0000555575370862,0.00014146490531453208
-0.4847045727947261,-0.4847045727947261,0.99998410725854,0.00014506750013370764
-0.48455609015436496,-0.48455609015436496,0.9999839223121855,0.00014723396263921585
-0.48438470014734775,-0.48438470014734775,0.9999570881641547,0.0001486513150966123
-0.48427890776147253,-0.48427890776147253,1.000179585271094,0.00014346552726383463
-0.4840959815759561,-0.4840959815759561,0.9998774264649557,0.00014484257222493213
-0.48399394841399046,-0.48399394841399046,0.9998362366620686,0.00014832051644430745
-0.4839015805751842,-0.4839015805751842,0.999934278254857,0.00014639060764109669
-0.4837451039478765,-0.4837451039478765,1.0000997865695331,0.00014575558119353244
-0.4836263233322825,-0.4836263233322825,0.9999691237483702,0.00015033365653198497
-0.4834945494578278,-0.4834945494578278,1.0000493010987976,0.00014661849819036006
-0.4833540968589659,-0.4833540968589659,1.0000755154375245,0.00014861554039829447
-0.48324945497734006,-0.48324945497734006,1.0001646736014256,0.00014702094476144034
-0.48312818290942233,-0.48312818290942233,1.0001147949359375,0.00013940471878710198
-0.48305395182105715,-0.48305395182105715,1.0000576178124945,0.00014209213432474717
-0.4829623102908954,-0.4829623102908954,1.0002012503702933,0.00015211870105497237
-0.4828363470209297,-0.4828363470209297,0.999991346493422,0.0001428976179740122
-0.4827166652627056,-0.4827166652627056,1.0000520231814882,0.0001386860189143639
-0.4825548493536189,-0.4825548493536189,0.9996886388517858,0.00013912647985259575
-0.4824593326295144,-0.4824593326295144,0.9999643955173239,0.00014826146048169966
-0.4823610286148323,-0.4823610286148323,0.9999061815815301,0.00014518070359298177
-0.48221839351899687,-0.48221839351899687,1.0000094012675056,0.0001481957279731374
-0.48205923017885655,-0.48205923017885655,1.0001044751859163,0.00014869979088352167
-0.48192943335598104,-0.48192943335598104,1.0000347922620727,0.00014256822400971993
-0.48176554714300435,-0.48176554714300435,1.0000856416050468,0.00014284536482054859
-0.4816972779481148,-0.4816972779481148,1.000007827411045,0.00014453783501714644
-0.48165351210409424,-0.48165351210409424,1.0001320104766847,0.00014508935792585274
-0.48146733549365306,-0.48146733549365306,1.0000960756506767,0.00014821455486221615
-0.48140285061963367,-0.48140285061963367,1.0000081597988064,0.00014182750871049956
-0.48125165178862517,-0.48125165178862517,1.0000478341736714,0.00015505725832099809
-0.4811341605440248,-0.4811341605440248,1.0000164884771803,0.0001419516694831726
-0.48100658854527867,-0.48100658854527867,1.0002107995523513,0.00013743829331024998
-0.48091433831796165,-0.48091433831796165,1.0001021771749556,0.00014399502453332218
-0.48079979235699283,-0.48079979235699283,1.0000365216758533,0.00014088131154875563
-0.4807440432290605,-0.4807440432290605,0.9999493759327749,0.00014212468419663865
-0.48064291979244445,-0.48064291979244445,1.000202738789034,0.0001516668604973939
-0.4805472412655945,-0.4805472412655945,0.9999076566526659,0.00013784504091989529
-0.48046160968224283,-0.48046160968224283,0.9999233596942586,0.0001421106549972478
-0.4803151929991145,-0.4803151929991145,0.9997217279106346,0.00014463128829345282
-0.4802118047104159,-0.4802118047104159,0.9998653214993833,0.0001443213011748737
-0.48013045632906143,-0.48013045632906143,0.9999786461338062,0.00014689649160620663
-0.48001015184781864,-0.48001015184781864,1.000149166743151,0.00014306781454537714
-0.47990248783535205,-0.47990248783535205,1.0000934771953394,0.00015869145490415002
-0.47976696729892865,-0.47976696729892865,1.0000047288692886,0.00014264648688627258
-0.47964522438778656,-0.47964522438778656,0.9999000160081977,0.0001426932445610434
-0.47950543026818193,-0.47950543026818193,1.000026192622207,0.00014327884840114924
-0.47939326574487495,-0.47939326574487495,1.0000442816827464,0.00014107571408392386
-0.4793465798938996,-0.4793465798938996,0.9999633610006404,0.00014289034055726984
-0.47922619697710617,-0.47922619697710617,1.0000685100840294,0.00014736609390192385
-0.4791200730811397,-0.4791200730811397,0.9998249825090385,0.00014524394149292939
-0.47900298338427094,-0.47900298338427094,0.999893210543745,0.00014126811599931394
-0.47891968159528914,-0.47891968159528914,1.000183912597397,0.00015351456536160098
-0.47880746911032473,-0.47880746911032473,1.0000469405445807,0.00014093048017428973
-0.4787100422909134,-0.4787100422909134,0.9998206359461262,0.00013991611411286943
-0.4785963607930171,-0.4785963607930171,0.9999480504563435,0.00014570206145530034
-0.47847635181824444,-0.47847635181824444,0.9998345747737318,0.00014292087165290374
-0.47841399235985593,-0.47841399235985593,1.0000429200616383,0.00013804723994620836
-0.4783235615839658,-0.4783235615839658,0.9999297008730267,0.00015120589369207083
-0.4782324255385902,-0.4782324255385902,1.0000609665958977,0.00014180200495456677
-0.4781640402688936,-0.4781640402688936,1.0000838076317695,0.0001379910436653813
-0.4780329091307067,-0.4780329091307067,1.0001759709448503,0.0001382932082429061
-0.4778682294621831,-0.4778682294621831,0.9998785923016975,0.00014581842742363314
-0.4777205338345084,-0.4777205338345084,1.0002169919303192,0.00014372977800859434
-0.4775481312390184,-0.4775481312390184,0.9998131823827942,0.00014045231391025134
-0.47735558235581266,-0.47735558235581266,1.0000616025155453,0.00014602518255285137
-0.47724733620270854,-0.47724733620270854,1.0000038255355728,0.00014417081751835488
-0.4771131148649147,-0.4771131148649147,0.9998328994529821,0.0001432390686050142
-0.4770305734011345,-0.4770305734011345,0.9999840942896485,0.00014282524521595262
-0.476858303580957,-0.476858303580957,1.0003088756481575,0.00014330304189835475
-0.4767639192461502,-0.4767639192461502,0.999998878981786,0.00014415347489640963
-0.47664897459108035,-0.47664897459108035,0.9999639312140616,0.00014926542149359712
-0.47658266614744205,-0.47658266614744205,1.0003002324056984,0.0001463531246873327
-0.4764279979703133,-0.4764279979703133,1.0000093405652764,0.00014016203768751445
-0.4763464706738887,-0.4763464706738887,1.000148142484607,0.0001457159609655919
-0.47622589272068583,-0.47622589272068583,0.9999771228278688,0.00013594295388610667
-0.4761639791773632,-0.4761639791773632,1.0000075516000364,0.00014470794083412756
-0.47610917812708065,-0.47610917812708065,1.0000147154640964,0.00014125402253202407
-0.47601848912599964,-0.47601848912599964,1.0001316281977064,0.00014050796246772328
-0.47594480694970115,-0.47594480694970115,0.9997212832512388,0.00015001851989019586
-0.47586301429764716,-0.47586301429764716,1.0001566768796755,0.00013884473006114029
-0.4757264168918482,-0.4757264168918482,1.0001099072329624,0.00014134205403370096
-0.4756041634842404,-0.4756041634842404,1.000077245600599,0.0001412912463756668
-0.47550219199329147,-0.47550219199329147,0.9998788675518953,0.0001435949059665097
-0.4753526200751367,-0.4753526200751367,1.0001884211626706,0.00013908758527351165
-0.4751797460783564,-0.4751797460783564,0.9998854628097448,0.00014594141739237166
-0.4750109334221634,-0.4750109334221634,0.9999797061764439,0.0001426478505723189
-0.4748718773764267,-0.4748718773764267,1.000083268537031,0.00014546773407519688
-0.47475326694766407,-0.47475326694766407,0.9998329384909823,0.00015342703336581297
-0.4746859210157709,-0.4746859210157709,1.0001216380455729,0.0001402587153230992
-0.47451372651630663,-0.47451372651630663,1.0000202690315538,0.00014423032440561806
-0.47440030420548285,-0.47440030420548285,0.9999599788146464,0.00014862986054392483
-0.47431357564710197,-0.47431357564710197,1.0000458115149227,0.00014803942332334026
-0.4742647509548988,-0.4742647509548988,1.0001391982860448,0.00014584504210955903
-0.4740967176825507,-0.4740967176825507,0.9998533575641366,0.00013891591295179265
-0.4739471750370285,-0.4739471750370285,1.0000478447169223,0.0001448156149117527
-0.4738556472831988,-0.4738556472831988,0.9999165449276768,0.00014231090904015103
-0.47380473629382325,-0.47380473629382325,1.0000302317916143,0.00013935637683421795
-0.4736863485508366,-0.4736863485508366,0.9999883380225782,0.00014970964399823922
-0.4735984223210835,-0.4735984223210835,1.00003662079386,0.00014300465275938662
-0.4734925078795641,-0.4734925078795641,0.9998599496353826,0.00013897090561310388
-0.473325948882848,-0.473325948882848,1.0001228161245153,0.0001421035289552223
-0.47321134729063485,-0.47321134729063485,1.0002347400078486,0.000145750757528218
-0.4730849127881811,-0.4730849127881811,0.9997520677947357,0.00014551544671458988
-0.4729768884921214,-0.4729768884921214,1.0000316908968045,0.00013951281805303352
-0.4728204423532588,-0.4728204423532588,1.0001399094529877,0.00014116957552375275
-0.4727156315711909,-0.4727156315711909,0.9999702732621703,0.00015291451845331102
-0.47256611616176086,-0.47256611616176086,1.000087160922481,0.00014550642296873027
-0.4724242919626704,-0.4724242919626704,1.0000543052098638,0.00014285490517713424
-0.47233428286999696,-0.47233428286999696,0.9998577391645205,0.00014002107093284827
-0.47217934236614384,-0.47217934236614384,0.9998390953510633,0.00014518612662525496
-0.47207528110520797,-0.47207528110520797,1.0002888926120648,0.000157334760532229
-0.4719851482856029,-0.4719851482856029,1.0000308608216328,0.0001485018381656741
-0.4718939997444977,-0.4718939997444977,1.0000576333657416,0.0001438341184190402
-0.4717631681342027,-0.4717631681342027,0.9997765846742611,0.00013867035584200048
-0.47159830119489926,-0.47159830119489926,1.0002504736480116,0.0001478684504012809
-0.4715093631464697,-0.4715093631464697,0.9999457337005897,0.0001434549662106473
