time,time,flux,flux_err
-0.4999795220152009,-0.4999795220152009,1.0001963996463548,8.866071996525268e-05
-0.4999268568950356,-0.4999268568950356,1.0001017299268509,8.907513621869367e-05
-0.49981183687996233,-0.49981183687996233,1.000063909478198,8.865502797110876e-05
-0.4996936095994897,-0.4996936095994897,0.9999919978410562,8.782539639908312e-05
-0.4996052566675644,-0.4996052566675644,1.0000847057428457,8.885269609076208e-05
-0.49947487960744186,-0.49947487960744186,1.000120151319766,8.991494046611947e-05
-0.4993705277680419,-0.4993705277680419,0.99998018852095,8.728730466893333e-05
-0.4993177147131064,-0.4993177147131064,0.999918570933221,9.004568410752113e-05
-0.49913074191936174,-0.49913074191936174,0.9998618381919948,9.113032953026275e-05
-0.49894762281765,-0.49894762281765,0.9999891828769041,8.837264079582321e-05
-0.4988633353445039,-0.4988633353445039,0.999982411713377,8.961254643141044e-05
-0.49872943006121206,-0.49872943006121206,1.0001628654238721,8.831191413761864e-05
-0.4986272548980196,-0.4986272548980196,1.0000597482291418,8.959102289400934e-05
-0.4984208694368135,-0.4984208694368135,1.0000350290258393,8.841691803316272e-05
-0.4982385525603604,-0.4982385525603604,0.9998938462981446,8.966234891329899e-05
-0.4981057237499044,-0.4981057237499044,1.0000962331194896,9.201391893952254e-05
-0.4979821812579758,-0.4979821812579758,0.9998952721341509,9.083542078439835e-05
-0.49789660993774304,-0.49789660993774304,0.9999147793919221,8.674641424524263e-05
-0.4978108913055621,-0.4978108913055621,1.0000820846861345,8.743707240463978e-05
-0.497658911209146,-0.497658911209146,1.0000792057586654,8.980303030920612e-05
-0.49746942624115037,-0.49746942624115037,0.9999690076503699,8.968511857821324e-05
-0.4973589113265916,-0.4973589113265916,1.0000874242626447,8.991619031722437e-05
-0.4972543317329837,-0.4972543317329837,1.0000190619806877,8.982385793324918e-05
-0.49711607770805133,-0.49711607770805133,0.9999696757243166,8.89773774982796e-05
-0.49704353350389285,-0.49704353350389285,1.000162350707217,8.808863996156424e-05
-0.49700331716812796,-0.49700331716812796,1.0000604459145073,8.992554760061816e-05
-0.4969058119662805,-0.4969058119662805,1.0001729340128356,9.057067021642752e-05
-0.49676969138236016,-0.49676969138236016,0.9999259897379137,8.924535579184117e-05
-0.4965740329942491,-0.4965740329942491,1.0000393226894626,9.260858019287166e-05
-0.49646858329797394,-0.49646858329797394,0.9999979388726714,8.857572500921787e-05
-0.4963688525087491,-0.4963688525087491,0.999954998342749,9.346222845555587e-05
-0.4962090965236712,-0.4962090965236712,0.9999022688924469,8.928171618970645e-05
-0.49594379732952804,-0.49594379732952804,1.0000326926510403,9.1163295172812e-05
-0.49579980615599195,-0.49579980615599195,0.9999086798057247,8.900079368885885e-05
-0.4957368289666192,-0.4957368289666192,0.9999900985123394,8.838655426432915e-05
-0.4956729848876421,-0.4956729848876421,0.9998868426169587,8.856121380467518e-05
-0.49548851323561394,-0.49548851323561394,1.0000085336611142,9.209373443607581e-05
-0.4952651093393797,-0.4952651093393797,1.0000501282428371,8.947567099515155e-05
-0.4950785061344504,-0.4950785061344504,0.9999777871151014,8.984400149413441e-05
-0.49493578964757035,-0.49493578964757035,0.999909719560771,9.532552983822359e-05
-0.4948273454559967,-0.4948273454559967,0.9999033800963953,8.949646120791366e-05
-0.49466926702007186,-0.49466926702007186,0.9998923870805347,8.75515902840494e-05
-0.49448413922727924,-0.49448413922727924,0.9999909231893586,9.009144640936186e-05
-0.49432678527009555,-0.49432678527009555,0.9999468283533803,9.006564764725105e-05
-0.4941366815306537,-0.4941366815306537,1.0000626017939123,9.17602503759861e-05
-0.4940210396576731,-0.4940210396576731,1.0001073188769904,9.080369189034662e-05
-0.493843997244403,-0.493843997244403,0.9999329266720226,8.831390962868549e-05
-0.4937091570092889,-0.4937091570092889,0.9999711608940773,8.804443228299319e-05
-0.49357544476079057,-0.49357544476079057,0.9999746107119416,8.972468271686398e-05
-0.4934346832735173,-0.4934346832735173,1.0000325694888388,8.706755367570027e-05
-0.49330794497873287,-0.49330794497873287,0.9999437959128594,9.520784239688158e-05
-0.49320234548431474,-0.49320234548431474,0.9998911915366631,8.815279727714733e-05
-0.4930611849602428,-0.4930611849602428,1.0001117161202095,8.99747975761532e-05
-0.49284357408760116,-0.49284357408760116,0.9999503850678003,9.03826832153472e-05
-0.4926831967793987,-0.4926831967793987,1.000175699437193,8.895793783837306e-05
-0.4925546915503219,-0.4925546915503219,1.0002270831180078,8.930724701260902e-05
-0.4924670628133754,-0.4924670628133754,1.0000960380870474,8.71835618533932e-05
-0.49228214644172114,-0.49228214644172114,0.9998730496990007,8.963547801729647e-05
-0.4921485207050864,-0.4921485207050864,0.9999087635457065,8.853411572847332e-05
-0.49189415419023136,-0.49189415419023136,1.0000478707476796,9.031394800098198e-05
-0.4917849997669691,-0.4917849997669691,0.999854790996558,8.631864876294741e-05
-0.49169848078381617,-0.49169848078381617,0.9999194094219975,8.822446665969662e-05
-0.49157578766244114,-0.49157578766244114,1.0000443234436247,8.724437865904857e-05
-0.4913779429713031,-0.4913779429713031,1.0000066235916,9.191561569480379e-05
-0.4911955615170882,-0.4911955615170882,1.0002573431860768,9.01249108954021e-05
-0.4910738659229537,-0.4910738659229537,0.9999898281533204,8.916637508479312e-05
-0.49093597486644286,-0.49093597486644286,0.9999974780703951,8.863357006752002e-05
-0.4907343802129617,-0.4907343802129617,0.9999743256118906,8.90965343943441e-05
-0.49062358282244534,-0.49062358282244534,1.0001165630024602,8.819806141312794e-05
-0.4905458729728707,-0.4905458729728707,1.000130188086215,9.461976062263407e-05
-0.4904237858332635,-0.4904237858332635,1.0000660608796015,8.735074643883913e-05
-0.4903325528815913,-0.4903325528815913,0.9998241148257445,8.847601459116843e-05
-0.4901958832953824,-0.4901958832953824,0.999927471004102,8.713858181598292e-05
-0.4900550179852871,-0.4900550179852871,1.000157743412624,9.009763750778907e-05
-0.48995612366925345,-0.48995612366925345,1.0000578484553404,8.983883970151857e-05
-0.4898060781830281,-0.4898060781830281,1.0000069689696105,9.002524932772346e-05
-0.48968635889686996,-0.48968635889686996,0.999982019619113,8.884643879654379e-05
-0.4896106673470058,-0.4896106673470058,1.000145248108306,8.867654363513668e-05
-0.48947115689370546,-0.48947115689370546,0.9998561605220561,8.848651363531345e-05
-0.48939207234143395,-0.48939207234143395,1.0002082229738467,9.058923612667481e-05
-0.4892840445834736,-0.4892840445834736,0.9999384567143569,8.796287484750807e-05
-0.48912593169661706,-0.48912593169661706,1.0000764408561262,8.748119197705238e-05
-0.48897249279907556,-0.48897249279907556,1.000024555131145,8.884306707960415e-05
-0.4888486230993294,-0.4888486230993294,1.00003651854498,9.437542682961345e-05
-0.4887457152020943,-0.4887457152020943,1.0000667061739335,8.789281146756879e-05
-0.4886952923581703,-0.4886952923581703,0.9998619982928625,9.019162196359837e-05
-0.48860841373170844,-0.48860841373170844,0.9999648646912739,8.708438982823066e-05
-0.4885088895658555,-0.4885088895658555,0.9999492147463755,9.146655547643635e-05
-0.488383441480255,-0.488383441480255,0.9998647550034571,8.980784900750756e-05
-0.4881840153830126,-0.4881840153830126,1.0001450920633608,9.027677359329618e-05
-0.4880007018400647,-0.4880007018400647,0.9998945656273491,8.718715782713728e-05
-0.4877746896556346,-0.4877746896556346,0.9999837654193776,8.848724196950094e-05
-0.48758722547790967,-0.48758722547790967,0.9998881943077633,8.888347039321179e-05
-0.4874872792694077,-0.4874872792694077,0.999992583709125,8.685416402291418e-05
-0.4873670358123491,-0.4873670358123491,0.9998740716682238,9.115715776171009e-05
-0.4872876288151019,-0.4872876288151019,1.000084199401396,8.730842849341344e-05
-0.4872315519853146,-0.4872315519853146,0.9999444045570579,8.553917260030911e-05
-0.4870808520303399,-0.4870808520303399,0.999995523351019,8.977962040076785e-05
-0.4868594393577951,-0.4868594393577951,1.0000394671323947,8.969724738660913e-05
-0.48671269004044004,-0.48671269004044004,0.999966158572845,9.057202389883828e-05
-0.48652866475385964,-0.48652866475385964,1.0000183785660806,8.981878377808127e-05
-0.4864368838112568,-0.4864368838112568,0.999931231438976,8.723920441398034e-05
-0.48637846439596616,-0.48637846439596616,0.9999958977277504,8.988171614973274e-05
-0.48629767078964503,-0.48629767078964503,1.0000680907719501,9.015165762130095e-05
-0.4861716569088458,-0.4861716569088458,0.9999787067001538,9.023501182403313e-05
-0.48605499766636057,-0.48605499766636057,0.9999337318445451,8.772501998848854e-05
-0.4858867818831641,-0.4858867818831641,0.9999984641904639,8.819650343090872e-05
-0.4857646147022024,-0.4857646147022024,1.0000126426554845,8.902056336159324e-05
-0.48568766087992116,-0.48568766087992116,1.0000782518248645,9.013155254035392e-05
-0.48559479912582904,-0.48559479912582904,1.0000044009289544,9.008863365748328e-05
-0.48538671750648066,-0.48538671750648066,0.9999375514696311,8.904397008184362e-05
-0.4852176014181168,-0.4852176014181168,0.9999224308925445,9.232135395335161e-05
-0.4851309401812614,-0.4851309401812614,1.000018368288766,8.910819082092491e-05
-0.48506673442389003,-0.48506673442389003,1.0000838750562617,8.869571218619121e-05
-0.4849107010144508,-0.4849107010144508,1.0001705747130107,9.218946626013148e-05
-0.48471054223846294,-0.48471054223846294,1.0000534280561246,8.891015558366143e-05
-0.48452658057794906,-0.48452658057794906,0.9999850789131974,8.966974574827433e-05
-0.48429871625921805,-0.48429871625921805,1.0000405273673678,8.7834138581484e-05
-0.4841795410124178,-0.4841795410124178,1.0000813742665966,8.865643999841841e-05
-0.484057729007327,-0.484057729007327,0.9999997768994418,8.75608493811313e-05
-0.4839267382041726,-0.4839267382041726,1.0000285285874808,8.944943173665523e-05
-0.48371603515479367,-0.48371603515479367,0.9998816043835337,8.958100663080099e-05
-0.4835137592548563,-0.4835137592548563,0.9998577297258787,9.164866842240431e-05
-0.4834112813216052,-0.4834112813216052,1.000032855638145,9.127396573217109e-05
-0.48328626675574926,-0.48328626675574926,0.9999526843347842,8.833188701743213e-05
-0.48323076682791,-0.48323076682791,0.9999951608739881,8.934534973247367e-05
-0.4831051219385699,-0.4831051219385699,0.999902771731211,8.853905059501826e-05
-0.482957863984484,-0.482957863984484,0.9999525524230466,8.972446778823375e-05
-0.4827555241456139,-0.4827555241456139,1.0001036221194648,9.510779236443774e-05
-0.4826387541317672,-0.4826387541317672,0.9999250034826723,8.826954732641503e-05
-0.4824632347743318,-0.4824632347743318,0.9999243128807077,8.937661477383566e-05
-0.4822971957590198,-0.4822971957590198,0.9999943593381702,8.81272238117108e-05
-0.482127966236294,-0.482127966236294,0.9999525491454042,9.214881217947824e-05
-0.4820256908722513,-0.4820256908722513,0.9999355483388358,8.857882058289394e-05
-0.4819205729203532,-0.4819205729203532,1.0000778169337097,8.890479019931255e-05
-0.4817001996947511,-0.4817001996947511,0.9999564769334904,8.78826623721416e-05
-0.48152169657041666,-0.48152169657041666,1.000093576554701,9.069531021758538e-05
-0.48132634745488756,-0.48132634745488756,0.9999810756084754,8.901313115857898e-05
-0.48114948423753956,-0.48114948423753956,1.0000017737670979,8.887290507463344e-05
-0.4809617290586175,-0.4809617290586175,1.000097828001398,8.82648199421287e-05
-0.4806668737925065,-0.4806668737925065,0.9998546112728558,8.984770670077129e-05
-0.48048849102196983,-0.48048849102196983,1.0000671803094117,9.005734168586756e-05
-0.48032145017714356,-0.48032145017714356,1.0000682615249379,0.00010194928551013674
-0.480156468864152,-0.480156468864152,0.9998461207733069,8.875110922634156e-05
-0.4800394476071233,-0.4800394476071233,0.9998076531967384,8.876412417075017e-05
-0.47994927652107433,-0.47994927652107433,0.9999830946208037,9.028256114094481e-05
-0.4798494344431674,-0.4798494344431674,1.0000547788207492,8.87601172863049e-05
-0.47974813201435607,-0.47974813201435607,0.9999896776368355,8.765074750076195e-05
-0.47959277556510643,-0.47959277556510643,1.000089446027209,8.71514173616621e-05
-0.4794588029028091,-0.4794588029028091,0.9999272974027658,8.921361237582935e-05
-0.4793625374506519,-0.4793625374506519,0.9998158241971916,9.038226362487863e-05
-0.4791858808952384,-0.4791858808952384,1.000029397180669,8.973722493471303e-05
-0.4790666598790267,-0.4790666598790267,0.9998934112131403,8.91223810657271e-05
-0.4789735009304422,-0.4789735009304422,1.0001329971063164,8.962502199619706e-05
-0.4788641244580504,-0.4788641244580504,1.0000345432357962,8.818807801072954e-05
-0.4787975394050591,-0.4787975394050591,0.9999393588127912,8.961336292529016e-05
-0.47868797126357093,-0.47868797126357093,0.9997204956879591,8.882396910423447e-05
-0.4785753885749727,-0.4785753885749727,0.9999639982278573,8.771723296366713e-05
-0.4784191447608464,-0.4784191447608464,1.000117335723767,8.926125941250757e-05
-0.47823732765755267,-0.47823732765755267,1.0000249935886092,8.996396076818013e-05
-0.47806870159474785,-0.47806870159474785,1.0000120069076874,8.728364822800943e-05
-0.4779984092776431,-0.4779984092776431,1.0000466205160303,8.979789122421939e-05
-0.47789105833653595,-0.47789105833653595,1.0000384734614105,9.010375313224532e-05
-0.47770486100489506,-0.47770486100489506,1.0002319403686297,8.790058403759381e-05
-0.47754122589249165,-0.47754122589249165,1.0001196728476802,9.617609361390732e-05
-0.4773984123588889,-0.4773984123588889,0.9999507912417986,8.934909336015872e-05
-0.47707032240214176,-0.47707032240214176,1.0000033184031065,8.931630506348482e-05
-0.47693193247323507,-0.47693193247323507,0.99996125565153,8.784043535697912e-05
-0.47676696999478735,-0.47676696999478735,1.0000571185568048,9.115333497052617e-05
-0.47665068042842906,-0.47665068042842906,0.9999465127630691,8.606709758419771e-05
-0.47655859987280563,-0.47655859987280563,1.0001043550574582,8.849091002326113e-05
-0.47634750245924806,-0.47634750245924806,1.0001996231958636,9.13004915058659e-05
-0.47618313253478844,-0.47618313253478844,0.9998511520519988,8.968756267870971e-05
-0.47604436071342204,-0.47604436071342204,1.0000741453080015,8.991877220147394e-05
-0.47592576630195255,-0.47592576630195255,1.0000391746060946,8.924099011578391e-05
-0.47582991327071794,-0.47582991327071794,1.0001343523852075,8.811850329820238e-05
-0.4757548285611847,-0.4757548285611847,0.9999884158680888,8.91445470428169e-05
-0.47560268481829554,-0.47560268481829554,1.0000545686252609,9.045695366958741e-05
-0.47550665906019274,-0.47550665906019274,1.0001199222815105,8.770390347007135e-05
-0.47532475625994264,-0.47532475625994264,0.9999319607799105,8.836773835844535e-05
-0.4752280283697473,-0.4752280283697473,1.0000620341685837,9.169772036629889e-05
-0.47503007099439853,-0.47503007099439853,1.0000446586437017,9.041978551348538e-05
-0.4749313789696316,-0.4749313789696316,0.9998553699873209,8.93119175398459e-05
-0.47471752822602864,-0.47471752822602864,0.9998880992835302,9.087353548033945e-05
-0.4745325012336252,-0.4745325012336252,1.0000741490203868,8.96286357509e-05
-0.4744237501261523,-0.4744237501261523,1.0001272153918677,8.879515904398061e-05
-0.474188359483378,-0.474188359483378,0.9999856446811224,9.271048136832523e-05
-0.4739461456119898,-0.4739461456119898,1.0000568218431705,8.81159789048316e-05
-0.47372798643409625,-0.47372798643409625,1.0000372771263946,8.897473231640778e-05
-0.47359206936234843,-0.47359206936234843,1.000020760549748,8.990140683830638e-05
-0.47349700541672063,-0.47349700541672063,0.9999632156798206,8.651789550811257e-05
-0.4733582215907518,-0.4733582215907518,1.000018422177249,8.96479181704537e-05
-0.473175004706718,-0.473175004706718,1.0001374619964376,8.951466387854541e-05
-0.4730591277460917,-0.4730591277460917,1.0001289988288462,9.008309267690461e-05
-0.47291775133271585,-0.47291775133271585,0.9999605677661825,9.686149307148179e-05
-0.47279103892142305,-0.47279103892142305,0.9999904697949826,9.049111208711047e-05
-0.47266962247013,-0.47266962247013,0.9999572459018887,8.89678425773384e-05
-0.47263411026651736,-0.47263411026651736,0.9999684889399496,8.972373357199572e-05
-0.47257924240038846,-0.47257924240038846,0.9999716396040375,8.867797111216288e-05
-0.47243395276091177,-0.47243395276091177,0.9998263525508037,8.852503933112628e-05
-0.47231553425081074,-0.47231553425081074,1.0000446409009307,8.941124932056056e-05
-0.4720797943402431,-0.4720797943402431,1.0000079164766003,9.414517290990184e-05
-0.47196506673790284,-0.47196506673790284,1.000019149466273,8.906602310981489e-05
-0.47176345565894734,-0.47176345565894734,0.9999806991628016,8.854640111021187e-05
-0.47156313004306866,-0.47156313004306866,0.9998041826411423,9.13861220989965e-05
-0.47144874726946,-0.47144874726946,0.9999743648289823,9.022949508565717e-05
-0.47138163200070266,-0.47138163200070266,1.000045227004562,9.027051236358437e-05
-0.4713013371823763,-0.4713013371823763,1.0000015191876552,9.020159040266759e-05
-0.4711448819754878,-0.4711448819754878,1.0001122290778346,8.957472002251124e-05
-0.4708980410679942,-0.4708980410679942,1.000025843234376,8.938682345642386e-05
-0.4706606327876216,-0.4706606327876216,1.0000206466360149,8.857899610365638e-05
-0.47049308991918226,-0.47049308991918226,1.0000749676096468,8.942711317409993e-05
-0.4702940488816239,-0.4702940488816239,1.000274596898429,8.8795751031828e-05
-0.47012333572056375,-0.47012333572056375,1.0000544118697694,9.01304391032454e-05
-0.46995899954999915,-0.46995899954999915,1.0001293097499118,9.002822661814984e-05
-0.4697727788574412,-0.4697727788574412,0.9999604285177679,8.880535370772752e-05
-0.4695778278633952,-0.4695778278633952,1.0001137950501113,8.847618600696969e-05
-0.46944113695935813,-0.46944113695935813,0.9999638693645997,8.727788462960034e-05
-0.46935997538021185,-0.46935997538021185,1.0001129446105894,8.892879945500869e-05
-0.46923683871500543,-0.46923683871500543,0.9999323271781451,8.91289433746431e-05
-0.4691268147718802,-0.4691268147718802,1.000070765449951,8.757667061416656e-05
-0.4689369370244094,-0.4689369370244094,1.0001223534631216,8.764891405247443e-05
-0.46879504607713895,-0.46879504607713895,0.9999227354413499,8.951050386081614e-05
-0.4686102672363631,-0.4686102672363631,1.00010754720836,8.911385062725563e-05
-0.46843762298085495,-0.46843762298085495,1.0001555758294471,9.161734988249426e-05
-0.468357262344216,-0.468357262344216,0.9999565109735975,8.89963357659866e-05
-0.46825424245689645,-0.46825424245689645,0.9999650340445128,8.997618041040201e-05
-0.46818133611523083,-0.46818133611523083,0.9999967188104343,8.770863958200713e-05
-0.46810033986039346,-0.46810033986039346,0.9999789882639215,8.909757162611274e-05
-0.46797251955140384,-0.46797251955140384,1.0001579299962216,8.772562244587484e-05
-0.46786722262913827,-0.46786722262913827,1.000032600497143,8.93801329227267e-05
-0.4676684624639165,-0.4676684624639165,1.000236578080094,8.945412482657657e-05
-0.46749197002864096,-0.46749197002864096,1.0000703139227647,8.980182912969383e-05
-0.4673940615146421,-0.4673940615146421,0.9999745578748696,8.730219329574693e-05
-0.46726804676072786,-0.46726804676072786,0.999966976972306,8.901097717389276e-05
-0.46709924471651904,-0.46709924471651904,0.9998579864964908,8.772226870487008e-05
-0.46692581003007944,-0.46692581003007944,1.000024723772111,9.1980126323699e-05
-0.4667739542564959,-0.4667739542564959,0.9998861895258043,8.926762102350826e-05
-0.4665563397888036,-0.4665563397888036,1.0000526961618332,8.98865735272663e-05
-0.4663215261636651,-0.4663215261636651,0.9997671630789036,8.800171630404921e-05
-0.46622990110045065,-0.46622990110045065,0.9999007308147121,8.856109118446362e-05
-0.46613592961002726,-0.46613592961002726,0.9999183859013889,9.047656837890708e-05
-0.4660066806856776,-0.4660066806856776,1.0000289264534277,8.70859876894905e-05
-0.46593446239276093,-0.46593446239276093,1.0001353326890252,8.749639787812844e-05
-0.4658364570364938,-0.4658364570364938,0.9999718183846961,8.825425386279321e-05
