time,time,flux,flux_err
-0.4999476150955502,-0.4999476150955502,0.9999056994615417,0.00018452879208809297
-0.499711492687652,-0.499711492687652,1.0001043832496255,0.00018212778092910786
-0.49963618082222183,-0.49963618082222183,1.000063014484134,0.00017660831403244423
-0.49953442026432243,-0.49953442026432243,1.0001530624845998,0.00015546668368895635
-0.4993736460319468,-0.4993736460319468,1.000293909479619,0.0001769731288798594
-0.4992267393370611,-0.4992267393370611,1.0002952347143494,0.00016124731203138602
-0.4991432421463145,-0.4991432421463145,0.999946750829548,0.00017971167810561448
-0.4990508532153939,-0.4990508532153939,1.0003093856163308,0.00015206203123468298
-0.4988594624001905,-0.4988594624001905,0.9999172684910109,0.00018100098132889218
-0.4987469505592287,-0.4987469505592287,1.0001558677729012,0.00015821073750133736
-0.4986490745381872,-0.4986490745381872,0.9997589036402417,0.00017794153706192448
-0.49856530347201444,-0.49856530347201444,1.0001056711323828,0.00017033159732537468
-0.4983468228998163,-0.4983468228998163,0.9998872197302404,0.00016371683612668612
-0.49826073936742715,-0.49826073936742715,0.9997485651197376,0.00017674898564575692
-0.49816550588589054,-0.49816550588589054,0.9998406957486432,0.00016311485730176317
-0.4980712098742117,-0.4980712098742117,0.9999985723675376,0.0001689481248307399
-0.4978479946688708,-0.4978479946688708,0.9999334544278857,0.0001658092511956886
-0.4977766668033439,-0.4977766668033439,0.9999768011435387,0.0001762689739358624
-0.49767923202256553,-0.49767923202256553,1.0001447516717534,0.0001593381316225993
-0.4975556719614758,-0.4975556719614758,1.0000122707937744,0.00017643600425976277
-0.4973726086728817,-0.4973726086728817,0.9999139142155368,0.0001613075864108104
-0.4972841570696005,-0.4972841570696005,0.99998726126189,0.00017609509444497964
-0.49718317213192903,-0.49718317213192903,1.0003029893760835,0.00015615440814775445
-0.49699233238756335,-0.49699233238756335,1.0004338740030219,0.00018068148230164028
-0.4968897790372665,-0.4968897790372665,0.9998325057305143,0.00015612364992762304
-0.49679810901396876,-0.49679810901396876,0.9996769590299077,0.00017965994539196524
-0.49669817821419426,-0.49669817821419426,1.000017038546782,0.00017027173199871294
-0.4964745135352615,-0.4964745135352615,1.0000682700959609,0.00016713855077107775
-0.4963913248614119,-0.4963913248614119,1.0002735178864808,0.00017318960221198733
-0.49629836392819016,-0.49629836392819016,1.0000718432893536,0.0001630421512592438
-0.49620408355482937,-0.49620408355482937,1.000133387995964,0.00016881939486918147
-0.49597490300313896,-0.49597490300313896,0.9998446629212481,0.0001685145106924428
-0.49589682335444535,-0.49589682335444535,1.0001888736700095,0.00017307247238407267
-0.4958120994687903,-0.4958120994687903,1.000058777938761,0.00015926690292886764
-0.49568853900294413,-0.49568853900294413,0.9998566161080487,0.00017620222446463837
-0.49549248753961306,-0.49549248753961306,0.999942013502865,0.00016099473859361918
-0.49541133989356184,-0.49541133989356184,0.9996756965235987,0.00017627180731466556
-0.4953328141875744,-0.4953328141875744,1.0000226084963777,0.00015585127686583677
-0.4951700874942162,-0.4951700874942162,1.0001837635374204,0.00018043718173692014
-0.4950127002958652,-0.4950127002958652,0.9999386711982432,0.0001580047853710496
-0.4949283602576003,-0.4949283602576003,1.0003287824857297,0.00017443702909806434
-0.49484926690622044,-0.49484926690622044,0.9997805215294203,0.00015609308444557588
-0.49465544790708976,-0.49465544790708976,1.0002609254606587,0.00018018036576595767
-0.49453021967957794,-0.49453021967957794,0.9999878709940331,0.00015820755637348754
-0.49444798245868354,-0.49444798245868354,0.9998695717574175,0.00017775629606057205
-0.4943642716830482,-0.4943642716830482,1.0002416919640054,0.00017034808911926334
-0.4941406005178976,-0.4941406005178976,0.9998736125895284,0.00016663660336985225
-0.4940462159540374,-0.4940462159540374,0.9999492245764057,0.00017295809886448994
-0.49396443649518745,-0.49396443649518745,0.9999629992564701,0.00016288112610802886
-0.493870175695622,-0.493870175695622,0.9999432855183545,0.00016885048450374226
-0.4936409908097318,-0.4936409908097318,0.9999807299917343,0.00016807705135598678
-0.4935629058594344,-0.4935629058594344,1.0001676612853139,0.00017300397570303721
-0.4934781838069739,-0.4934781838069739,1.0002815717398907,0.00015922077286179386
-0.493354622826331,-0.493354622826331,1.0002177724053811,0.00017572376214382166
-0.4931585802090865,-0.4931585802090865,0.9999004326477255,0.0001609169540182985
-0.493077413544836,-0.493077413544836,0.9997713517620594,0.00017606902060480082
-0.4929946251806399,-0.4929946251806399,0.9999670398173649,0.00015602237328795758
-0.492825516833696,-0.492825516833696,0.999844167022872,0.0001799244758019391
-0.4926787939154309,-0.4926787939154309,1.0000060855755177,0.00015794016292730307
-0.4925938704014186,-0.4925938704014186,1.00017878392698,0.00017774641246141396
-0.4925021589451092,-0.4925021589451092,1.0001813474241303,0.00017031198425191253
-0.492309149013451,-0.492309149013451,0.9999254107134956,0.00016266586540236683
-0.49219631635141925,-0.49219631635141925,1.0001345310250034,0.0001581476920760953
-0.4921065957092196,-0.4921065957092196,1.0000789301278374,0.0001806333068923212
-0.4920004691458558,-0.4920004691458558,0.9998571246837905,0.00016705850230431298
-0.4918066875214976,-0.4918066875214976,0.999920681919078,0.00016624827225515182
-0.49171230987412856,-0.49171230987412856,1.0000417708698461,0.00017302457229287127
-0.4916202820026115,-0.4916202820026115,1.0002686519563955,0.0001625798231361119
-0.49150915217799424,-0.49150915217799424,1.0000125407401406,0.00016899427261821183
-0.4913070786362795,-0.4913070786362795,1.0001422627398784,0.00016772060772510424
-0.4912197700326601,-0.4912197700326601,0.9999246872506676,0.0001727585612108027
-0.4911217891625569,-0.4911217891625569,0.9999849114528757,0.00015946492038065329
-0.4910001240595875,-0.4910001240595875,1.0003070233577869,0.00017526681451119218
-0.4908246729130298,-0.4908246729130298,0.9997904199245372,0.0001608628843286782
-0.49073370360741253,-0.49073370360741253,0.9996664905265424,0.00017620119775304616
-0.4906331538060897,-0.4906331538060897,0.9999209780402059,0.00015559714155055957
-0.49048787193136717,-0.49048787193136717,0.9998824988500786,0.0001796526081286699
-0.490344887561389,-0.490344887561389,0.9998756621779968,0.00015790291135458015
-0.4902432675433744,-0.4902432675433744,0.9999709200663748,0.0001775124051517914
-0.49015503912032443,-0.49015503912032443,0.9999449103103644,0.00017031295620199401
-0.48997524051017366,-0.48997524051017366,0.9998612348624478,0.000162358577684757
-0.48986241305134115,-0.48986241305134115,1.0001257435024593,0.0001580789506171754
-0.48975399635345696,-0.48975399635345696,1.000021280727439,0.00018050801941150264
-0.489650470411047,-0.489650470411047,1.0000949967369714,0.0001688695588014506
-0.4894701831504705,-0.4894701831504705,1.0000928728392335,0.00016414509456090396
-0.4893784038257394,-0.4893784038257394,1.000379678743061,0.0001728578591967586
-0.4892676951382214,-0.4892676951382214,0.9997410806766969,0.00016246971030454247
-0.48913788930709073,-0.48913788930709073,1.000101153270051,0.0001690888485207925
-0.48897316648294975,-0.48897316648294975,1.000192438480712,0.0001674299181178485
-0.4888821178049085,-0.4888821178049085,0.9998961824195932,0.00017267879543908456
-0.48878414319763125,-0.48878414319763125,1.0000251309571573,0.00015941020291730193
-0.4886207434305277,-0.4886207434305277,0.9999629087715023,0.00017942978272506038
-0.48848142973821496,-0.48848142973821496,0.9999289145994428,0.00015793855343099967
-0.48838362375338135,-0.48838362375338135,1.0001348003604469,0.00017426483099507352
-0.48829914328444773,-0.48829914328444773,1.000133249888745,0.00017357113275458816
-0.4881081137297286,-0.4881081137297286,1.0000016551255146,0.00016218772232762642
-0.4879952216529233,-0.4879952216529233,1.0001623758522886,0.00015810216583332263
-0.48789636361788097,-0.48789636361788097,1.000229940823662,0.00017715220892078432
-0.4878086468123996,-0.4878086468123996,0.999853487649301,0.00017026482817614078
-0.4876056441793793,-0.4876056441793793,1.0003311627706775,0.00016577062901247723
-0.4875112085161021,-0.4875112085161021,0.9998796646542424,0.00017274096141617427
-0.4874108390846942,-0.4874108390846942,1.0001279794174098,0.00016256074784525568
-0.48731656268019774,-0.48731656268019774,1.0001206902537116,0.0001688118254428865
-0.4871060367751596,-0.4871060367751596,0.9999383305223031,0.0001671722098249808
-0.4870187061750272,-0.4870187061750272,0.9998210403414353,0.00016968370770790978
-0.48693377981756214,-0.48693377981756214,1.0001239962672188,0.0001623116447967702
-0.48680098640591607,-0.48680098640591607,1.0002519360567517,0.0001750436814988709
-0.4866235659381033,-0.4866235659381033,0.9999889396550972,0.00016088156319466222
-0.4865326378355263,-0.4865326378355263,1.0001319462375233,0.00017612818480968563
-0.4864471224004319,-0.4864471224004319,0.9997107873074487,0.00015555120901601668
-0.4862868328291313,-0.4862868328291313,1.000053326141777,0.00017922642611331534
-0.48614378055118834,-0.48614378055118834,0.9997236085896579,0.00015784476947708817
-0.4860422060185357,-0.4860422060185357,1.0000499411244648,0.00017724820856182823
-0.48595405027185734,-0.48595405027185734,0.9998596779723476,0.0001701084876530016
-0.48577420528153253,-0.48577420528153253,0.9998470513571501,0.0001619977639933478
-0.4856613098273527,-0.4856613098273527,1.0000095917192742,0.00015804579241779614
-0.485552926271572,-0.485552926271572,0.9998301525024041,0.00018015101307459214
-0.4854655752217468,-0.4854655752217468,1.0000721809019686,0.00016701178519655424
-0.48527173124088846,-0.48527173124088846,1.0001069854729228,0.00016555663570335023
-0.48517729394728804,-0.48517729394728804,0.9998927793396458,0.00017269368695304831
-0.4850666475818997,-0.4850666475818997,0.9999697974496657,0.00016218191066649334
-0.48496305379754856,-0.48496305379754856,1.000105052214444,0.0001691006180196112
-0.4847721246585991,-0.4847721246585991,0.9999646840425379,0.0001669871412579506
-0.48468471895149323,-0.48468471895149323,1.000020938452924,0.00017260189618989745
-0.48458310229354706,-0.48458310229354706,1.000133622587373,0.00015914057786516896
-0.4844278885427286,-0.4844278885427286,1.0000209975858232,0.00017462245186138377
-0.48428965015529857,-0.48428965015529857,1.0002029801483068,0.00016089853625792037
-0.4841987124391977,-0.4841987124391977,1.0001735187265532,0.000175844813853454
-0.484098100051915,-0.484098100051915,0.999875457631731,0.0001734081838886037
-0.48391576110627454,-0.48391576110627454,1.000090478227503,0.00016175003730686805
-0.48380986569167705,-0.48380986569167705,0.9999147234677512,0.00015787035642905522
-0.4837082829771987,-0.4837082829771987,1.000003934063162,0.0001771057903399373
-0.4836039969099829,-0.4836039969099829,0.9999409189824038,0.00017185405668095036
-0.4834190913370833,-0.4834190913370833,1.0001182933481911,0.00015988745417858777
-0.4833273980252585,-0.4833273980252585,1.0000061514627028,0.00015807595676733678
-0.483218998465631,-0.483218998465631,0.9998654707729445,0.00018002143714406497
-0.4831093979059432,-0.4831093979059432,1.0002724215054652,0.0001687529823619789
-0.48291981116703936,-0.48291981116703936,0.9999689468504002,0.0001668604941153805
-0.48283510869686097,-0.48283510869686097,1.0001892121472005,0.00016955250950629662
-0.48273273231324365,-0.48273273231324365,0.9998511103035348,0.00016208094606274116
-0.48259380685147163,-0.48259380685147163,0.9998288481726156,0.0001744924134701888
-0.48242613195565126,-0.48242613195565126,0.9997618856778198,0.0001609178828864579
-0.4823421949692147,-0.4823421949692147,1.000014303538102,0.00017251739220100414
-0.4822471682802473,-0.4822471682802473,1.0002273124538175,0.00017640871366498607
-0.4820667488903808,-0.4820667488903808,1.000110091178406,0.00016173566613676772
-0.481933272170906,-0.481933272170906,0.9998000257971071,0.00015811971524485525
-0.4818455492071195,-0.4818455492071195,1.0000731928015643,0.00017374734850248295
-0.4817462189735863,-0.4817462189735863,1.0001463499700207,0.00017485536230893862
-0.4815641278590391,-0.4815641278590391,1.0001271116241781,0.00016352819541126548
-0.4814492532718674,-0.4814492532718674,1.0002719172746006,0.00017275808289838243
-0.4813323831660057,-0.4813323831660057,0.9999411904875302,0.00016206181503009313
-0.4812288196645568,-0.4812288196645568,0.9998922578204406,0.0001689040386392816
-0.48106522708058036,-0.48106522708058036,0.999969312304463,0.00016656015081634892
-0.4809566605320896,-0.4809566605320896,1.0002631316653672,0.0001725645515605774
-0.48084681921122296,-0.48084681921122296,1.0002823646380552,0.00017640486183706817
-0.4807136827972215,-0.4807136827972215,1.0002491198063324,0.0001505700857076981
-0.4805672326901174,-0.4805672326901174,1.0001951139521545,0.00016659588619365214
-0.48046443185089915,-0.48046443185089915,0.9999509153483233,0.00017575203422010255
-0.480353316818838,-0.480353316818838,0.9999278667101852,0.0001731403477733256
-0.4801861316459224,-0.4801861316459224,1.0000386151983727,0.00015929326702266122
-0.48006284044512315,-0.48006284044512315,1.0000666096953688,0.00016017769546653902
-0.47997400615213337,-0.47997400615213337,0.9999310124119836,0.00017696498991703473
-0.47985921126515907,-0.47985921126515907,1.0004712519509629,0.0001715855409590336
-0.4796865274663588,-0.4796865274663588,0.9997346769203833,0.00016086393875652555
-0.47957199746963963,-0.47957199746963963,0.9997825912493044,0.00017473028479018644
-0.4794736090849,-0.4794736090849,1.000023099226841,0.0001624363325225707
-0.47936462535281804,-0.47936462535281804,1.0001195110399614,0.00016853000154046753
-0.47918853128387584,-0.47918853128387584,0.999934644983082,0.00016097565123164228
-0.47908032419087193,-0.47908032419087193,0.9998552106072758,0.00017751629413902183
-0.47898171459644345,-0.47898171459644345,1.0000773774069838,0.00015900812821771136
-0.47884380799860937,-0.47884380799860937,0.9998036198496416,0.00017332528340078564
-0.47866843623551747,-0.47866843623551747,0.9998967059240476,0.0001634930779302919
-0.47857365235615246,-0.47857365235615246,1.0001000326715057,0.00017689135406206638
-0.4784656169185467,-0.4784656169185467,0.9999352673605694,0.00016999247035456378
-0.4782663153587038,-0.4782663153587038,0.9998309907906998,0.00016274072017982705
-0.4781716480866976,-0.4781716480866976,1.0000736234185041,0.00017457871039645368
-0.47806490186431744,-0.47806490186431744,1.0001141784333953,0.00016196255688729746
-0.4778934993889067,-0.4778934993889067,0.9999338888910263,0.00017358667362730591
-0.4777378427787141,-0.4777378427787141,1.00001556106581,0.0001579947282149629
-0.4776631569929776,-0.4776631569929776,0.9997650127334786,0.0001787902067372726
-0.47754518929739903,-0.47754518929739903,1.0000424157648111,0.00017478069361966307
-0.4773458485816519,-0.4773458485816519,1.0001402182451897,0.00016113309957807882
-0.47724745503924737,-0.47724745503924737,1.0001203797861156,0.0001562892015686495
-0.47715078622959484,-0.47715078622959484,1.0000813604453866,0.00017973317146148467
-0.4770138692134907,-0.4770138692134907,1.0001558056836914,0.00016859104095054777
-0.4768172774031513,-0.4768172774031513,1.0000324220003611,0.00016100629416516832
-0.47674640142092245,-0.47674640142092245,0.9999060639941298,0.00017727174945971443
-0.47664577207261233,-0.47664577207261233,0.9999087228789234,0.0001761599771152108
-0.476445104722535,-0.476445104722535,1.0001160087847778,0.00015959877357316136
-0.4763266594050009,-0.4763266594050009,0.9999722884929941,0.0001595061446132196
-0.4762397293784829,-0.4762397293784829,0.9999064007109404,0.00017694127771193175
-0.4761062749641439,-0.4761062749641439,1.0002530573029254,0.0001714756498249164
-0.4758837130785537,-0.4758837130785537,0.9999476338542603,0.00016101109646578788
-0.4758222241119768,-0.4758222241119768,1.0001774059952766,0.00017445805658266165
-0.4757309866846384,-0.4757309866846384,0.9998534449717476,0.0001618501090120307
-0.4755281783945776,-0.4755281783945776,1.0003493500025515,0.00017671954749606323
-0.4753930959839664,-0.4753930959839664,0.9999019952532022,0.00015943846652291736
-0.475306160193378,-0.475306160193378,0.9999886110002227,0.00017692070425501835
-0.4751727087659674,-0.4751727087659674,1.0000141780733693,0.00017139477150553722
-0.47495014875935054,-0.47495014875935054,0.999788335000078,0.00016099776148369713
-0.47487926322001783,-0.47487926322001783,0.9999800051700178,0.00017704096462507716
-0.47477490574850095,-0.47477490574850095,1.0001164190247622,0.00017616101931384638
-0.4745458792714288,-0.4745458792714288,0.9999211619825978,0.00016275985268756412
-0.4744467568604648,-0.4744467568604648,1.0002003773142136,0.0001560535310034977
-0.47435255359408757,-0.47435255359408757,1.0000029283926979,0.00017673536705387817
-0.4742293650343726,-0.4742293650343726,1.0003867699535784,0.0001716849678935999
-0.47401658444445616,-0.47401658444445616,1.0001521508337374,0.00016101988967275207
-0.47394762033707993,-0.47394762033707993,0.9997740080803956,0.00017433772828951766
-0.4738456289624196,-0.4738456289624196,1.0000300462018754,0.0001758271175035277
-0.47366059918266784,-0.47366059918266784,0.9998526048864088,0.0001627793293889965
-0.4735259691535646,-0.4735259691535646,0.9999014160325406,0.0001593225324868595
-0.4734415034312093,-0.4734415034312093,1.0001583978228936,0.00017390198751053094
-0.47333229310605135,-0.47333229310605135,0.9999005084480623,0.00017456827747587116
-0.4731117733724005,-0.4731117733724005,1.0001422984442019,0.00016106335975866245
-0.47303078663630915,-0.47303078663630915,1.0001301455824083,0.00017412526730888983
-0.4729327705693123,-0.4729327705693123,1.0002693409195988,0.0001585834738901044
-0.47277507438400335,-0.47277507438400335,1.0000869377154313,0.00017637013886238255
-0.4726002799357076,-0.4726002799357076,1.0000210347107081,0.0001630996825499788
-0.4725079351796637,-0.4725079351796637,0.9997671937640501,0.0001738480113343312
-0.47242592960640195,-0.47242592960640195,0.9999322796890737,0.00017288026071837634
-0.4722119744345292,-0.4722119744345292,1.0001691893933136,0.00016273800440222915
-0.472103467547322,-0.472103467547322,0.9998834497988536,0.0001741211449858172
-0.47199920544586293,-0.47199920544586293,0.9997847003743011,0.0001585249139102332
-0.47188690430579927,-0.47188690430579927,1.0002503122793165,0.00017184038655102012
-0.4716802945610965,-0.4716802945610965,0.999859862031561,0.00016295051505173312
-0.47159741865169735,-0.47159741865169735,0.9999923843960918,0.00017532009587748352
-0.47149303131483294,-0.47149303131483294,1.000077904915477,0.00017290087128308886
-0.47132668382068915,-0.47132668382068915,1.0001490473719123,0.00016276719051985702
-0.4711864752140599,-0.4711864752140599,0.9999682852034237,0.00015938944148473144
-0.47108505799120903,-0.47108505799120903,1.000075251943596,0.00017660056226431647
-0.4709891439810775,-0.4709891439810775,1.000191021862252,0.00017169472828671274
-0.47077786458220033,-0.47077786458220033,0.9999719754319205,0.00016094608633213656
-0.47068013374508266,-0.47068013374508266,0.9998568255482144,0.0001742281324151768
-0.4705782452351229,-0.4705782452351229,0.9999601264317566,0.00015823531781893892
-0.4704374222709532,-0.4704374222709532,0.9998256753243495,0.0001763622682807758
-0.4702663737003803,-0.4702663737003803,1.000251581724078,0.00016296643617547701
-0.4701947219086861,-0.4701947219086861,1.0002591000008796,0.00017058015399699399
-0.4700926816885186,-0.4700926816885186,0.9999585924447008,0.0001728543878198285
-0.46990766316987165,-0.46990766316987165,0.9999598754079443,0.0001627268654092317
-0.46978642092121276,-0.46978642092121276,1.000151196499502,0.00015897822044370864
-0.4697072304523374,-0.4697072304523374,0.9998550396411886,0.0001738183837463625
-0.4696065455593896,-0.4696065455593896,0.9998747822775484,0.00017284405676787
-0.46939261721631453,-0.46939261721631453,1.0000813833047633,0.00016269154153917366
