time,time,flux,flux_err
-0.49993887788029195,-0.49993887788029195,0.9999755207667874,0.0001347070678079614
-0.4998122889786221,-0.4998122889786221,1.000085906758331,0.00013410294680894972
-0.49968005070404614,-0.49968005070404614,0.9999035307166645,0.00011875613884218304
-0.49960151227933236,-0.49960151227933236,1.000062753273389,0.00011955688559780191
-0.4995011662773322,-0.4995011662773322,0.9999002808013053,0.0001227243936032233
-0.4993599230125255,-0.4993599230125255,0.9998384834287167,0.00012501619227360024
-0.4992058858711971,-0.4992058858711971,1.0001169099327565,0.00012406263596375603
-0.4990729961042234,-0.4990729961042234,0.9999929758900643,0.00011934871797243374
-0.49894541224493877,-0.49894541224493877,1.0000104295317453,0.00012936601720402212
-0.4988885070379183,-0.4988885070379183,0.9998480195351878,0.00011944061477526995
-0.4987771630032512,-0.4987771630032512,0.9999718928065278,0.00012161226037447885
-0.49865452686353817,-0.49865452686353817,0.9999088145556467,0.0001236140260908857
-0.4984846866209409,-0.4984846866209409,1.0001243940919404,0.00013343631350840258
-0.4983611083152937,-0.4983611083152937,0.999985710561314,0.00011953831211098714
-0.4982501924627286,-0.4982501924627286,0.999894983010275,0.0001220965359847122
-0.49812673538399393,-0.49812673538399393,0.9999457309982542,0.00012690974522105297
-0.4979922562961292,-0.4979922562961292,0.9999509025292047,0.00012144935201484897
-0.4979033081377565,-0.4979033081377565,0.9999768355257304,0.00012064171289626177
-0.497801588816219,-0.497801588816219,1.0000500112404482,0.00012309605340891016
-0.49771265783929264,-0.49771265783929264,0.9998132995830252,0.00012112492152589482
-0.49758633104065664,-0.49758633104065664,1.0001310851652128,0.00012093545857056025
-0.49749506912048674,-0.49749506912048674,0.9997866200898589,0.0001232576641664015
-0.49730699288338653,-0.49730699288338653,1.0000464654864447,0.00012397131834535378
-0.49719906068130515,-0.49719906068130515,0.9999941649326594,0.00012159508084888862
-0.4970905656417017,-0.4970905656417017,0.9998355932938752,0.00011870000742173692
-0.4969812521820131,-0.4969812521820131,0.9999237556457912,0.00012201321868448605
-0.49686083669876097,-0.49686083669876097,1.0001626274630362,0.00012405431269316538
-0.49669483734396636,-0.49669483734396636,0.9998404964684543,0.00013193972947802055
-0.49659717945396553,-0.49659717945396553,1.0002559554108696,0.00012162640130710412
-0.4964913746451202,-0.4964913746451202,1.0000061287698083,0.0001163702507024551
-0.49633603858892456,-0.49633603858892456,1.000084454128963,0.00013019816199566557
-0.49616207165381637,-0.49616207165381637,1.000112697524584,0.00012089229940772041
-0.4960551490599755,-0.4960551490599755,1.000178485875449,0.0001210504337260027
-0.4959903418479371,-0.4959903418479371,0.9999538256065101,0.00012005911407207787
-0.4959187995220418,-0.4959187995220418,1.0000049443996284,0.0001156335010906161
-0.49573870228996386,-0.49573870228996386,1.000058974889163,0.00012298312949614266
-0.4956343446756364,-0.4956343446756364,1.0000819255909787,0.0001208207098162344
-0.4955886071875284,-0.4955886071875284,0.9999682381485586,0.00012127768882491281
-0.495491500726348,-0.495491500726348,1.0001424081307448,0.00011998385383832019
-0.4953219330702268,-0.4953219330702268,1.0002517533336595,0.00012007043501705014
-0.49519622271036495,-0.49519622271036495,0.9999302999288918,0.00012161425520760822
-0.49507601944351337,-0.49507601944351337,1.0001524099396695,0.00012395666877094156
-0.49489987556589765,-0.49489987556589765,0.9998865836531106,0.00011745733041327409
-0.4946890873376105,-0.4946890873376105,0.9999529563636689,0.0001174151444981002
-0.4945882082669414,-0.4945882082669414,0.9999372519152537,0.00012602651615972656
-0.49451085705150033,-0.49451085705150033,0.9999670671702272,0.00012063214656312495
-0.4944207965731039,-0.4944207965731039,1.0001551457183473,0.00011975883529423667
-0.49430579095133,-0.49430579095133,1.0000632111856138,0.0001226244845488191
-0.4941939117437869,-0.4941939117437869,0.9999149028694536,0.00011993697751051407
-0.49405362372854145,-0.49405362372854145,1.0000450354286339,0.00012100146542761274
-0.49393354794665356,-0.49393354794665356,1.0001373851927964,0.0001219791774476293
-0.4938591953956347,-0.4938591953956347,0.9998632893370285,0.00012040002150749392
-0.49377403377366136,-0.49377403377366136,0.9999630247858899,0.00012104990184973233
-0.49369482409383636,-0.49369482409383636,0.9998057790421158,0.00012430903394829675
-0.49363283840430083,-0.49363283840430083,1.0000046676375844,0.0001191021660933853
-0.49351621039313615,-0.49351621039313615,1.0002208514844821,0.00012573023519440294
-0.4933888811727229,-0.4933888811727229,0.9998271960259044,0.00012332746068838542
-0.49330730486180985,-0.49330730486180985,0.9999680878944727,0.00011836834479815088
-0.4931778362013574,-0.4931778362013574,0.9999130242386787,0.00012878690935074632
-0.49307063664746237,-0.49307063664746237,0.9999712404865285,0.00012398137113357836
-0.4929858633367985,-0.4929858633367985,1.0000481760010131,0.00012183028571494791
-0.4928705887461547,-0.4928705887461547,1.0001249204603078,0.00012477284738188172
-0.4926672488378244,-0.4926672488378244,1.0001184957749996,0.00011866597562178356
-0.4925728726659145,-0.4925728726659145,1.0000426665849482,0.00012059495795050973
-0.49247869684477336,-0.49247869684477336,0.9999905650622392,0.00012079635765642517
-0.49231692698740515,-0.49231692698740515,0.9999399228901652,0.00011841655851285806
-0.4922422851108422,-0.4922422851108422,0.999884823282349,0.00012194446647624185
-0.49215014869187146,-0.49215014869187146,1.0000192242197892,0.00011768852285734546
-0.4920192296325695,-0.4920192296325695,0.9999793553524066,0.00012140023580457461
-0.49190204227707,-0.49190204227707,0.9999725707069562,0.00012097741180142776
-0.4918140270878212,-0.4918140270878212,1.0000306228191689,0.00012528893070305603
-0.49174342500264173,-0.49174342500264173,1.0000649328363607,0.0001285304574699436
-0.49164622121388674,-0.49164622121388674,1.0003373228462218,0.00012473891879778793
-0.49154869288395275,-0.49154869288395275,0.9997334004510463,0.00012496740601861415
-0.4914709596974717,-0.4914709596974717,1.0000947190029161,0.00012328377099273942
-0.4913960218647844,-0.4913960218647844,1.0000001634145077,0.00012139133982515507
-0.4912914222994004,-0.4912914222994004,1.0001473227205326,0.00012099883982262696
-0.4911027506721439,-0.4911027506721439,1.000000220841374,0.00012457055031130486
-0.49094795520359186,-0.49094795520359186,1.0002317823773443,0.00012320603111288215
-0.49087202080627323,-0.49087202080627323,0.9999436814602787,0.00011964536348335465
-0.4907800545050122,-0.4907800545050122,0.9999620081356422,0.00012019193826141603
-0.4907161992676265,-0.4907161992676265,0.9999145041657499,0.00012134647206114881
-0.4905846293804643,-0.4905846293804643,0.9999642911735609,0.00012013846891833153
-0.49042689955676905,-0.49042689955676905,1.0001052301977047,0.00011963542334448756
-0.4902871326848981,-0.4902871326848981,0.999969144502613,0.00012264512530482565
-0.49022528937493914,-0.49022528937493914,0.9999513122978007,0.00012854978088118178
-0.4900703838429763,-0.4900703838429763,0.999927838517052,0.00011980745308675237
-0.48990966053897866,-0.48990966053897866,0.9998541364655738,0.00012007457737503056
-0.4898191411899461,-0.4898191411899461,0.999923628894658,0.00012207923468467746
-0.4896898336177401,-0.4896898336177401,0.999729271724019,0.0001213610353568724
-0.48955613551443095,-0.48955613551443095,1.00007468293573,0.00011898110675800778
-0.48948484707871104,-0.48948484707871104,1.000126907423272,0.00013434484919329335
-0.48933714619488455,-0.48933714619488455,1.0001962943275153,0.0001257874831772085
-0.4892099080068874,-0.4892099080068874,0.9999765749962413,0.00012168973644808121
-0.4890606978769938,-0.4890606978769938,0.9999153997229173,0.00014693777030717745
-0.48898507865305874,-0.48898507865305874,1.0001562948876457,0.00012642074103364758
-0.4888742604613071,-0.4888742604613071,0.999850091202297,0.00012213806798379968
-0.4887780033204763,-0.4887780033204763,1.0000784105869327,0.0001222607939023465
-0.48866453076625477,-0.48866453076625477,0.9999456703280701,0.00011822360129757213
-0.4885886940472119,-0.4885886940472119,0.9999878591236515,0.00012065907617673712
-0.48848375687521184,-0.48848375687521184,0.9999262626677998,0.0001218399873294254
-0.48841006093498435,-0.48841006093498435,0.9999039263942195,0.00011909418922344015
-0.4883052938690525,-0.4883052938690525,0.9998253413022751,0.00012334535869236812
-0.4881522425894218,-0.4881522425894218,0.9998942832297459,0.00012382404306404584
-0.4880136424661032,-0.4880136424661032,1.0001127487718071,0.0001224534133883894
-0.4879047929753142,-0.4879047929753142,0.9999652770635461,0.0001192540454155312
-0.487763338338118,-0.487763338338118,1.0000898071085031,0.0001259255780757377
-0.4875954349678068,-0.4875954349678068,1.0000051128224239,0.00012217936398954045
-0.48746672179768213,-0.48746672179768213,1.0001754581574567,0.0001204324248092366
-0.4872616229513369,-0.4872616229513369,0.9999322849956753,0.00013079126031281837
-0.48709849996012056,-0.48709849996012056,1.000301350969753,0.00013611921994629732
-0.4869511251854419,-0.4869511251854419,1.0000223613165207,0.00012305572090283998
-0.48690354600912544,-0.48690354600912544,0.9999038874001641,0.00011978529145929171
-0.4868124418462685,-0.4868124418462685,0.9999697973541739,0.00012599010483294571
-0.4866938324244984,-0.4866938324244984,0.9999557818862452,0.00011916792871795976
-0.4866126738852472,-0.4866126738852472,0.9999124197646413,0.00012383370036014459
-0.4865412560691766,-0.4865412560691766,0.9999310333230648,0.00012719569574047687
-0.48648449849351894,-0.48648449849351894,0.9999541369848057,0.0001332161918057523
-0.4864190284475626,-0.4864190284475626,0.9997891375560224,0.00012156594945527436
-0.48634372115993757,-0.48634372115993757,0.9999680900039483,0.00012805395202840225
-0.4862489436971373,-0.4862489436971373,1.0001204143600546,0.00012824037067783706
-0.4861313595210959,-0.4861313595210959,1.0000045583565935,0.00012158358482773908
-0.4860469608967833,-0.4860469608967833,1.000105420008907,0.0001225356534287323
-0.4858904805310885,-0.4858904805310885,1.00000588136518,0.00011989917854353513
-0.48578467040933904,-0.48578467040933904,0.999882997513742,0.00012079421872362184
-0.4855903272975411,-0.4855903272975411,0.9999036246143664,0.00012248487370624804
-0.48550077451363904,-0.48550077451363904,0.9999764029308551,0.0001245896126093391
-0.48543157540843823,-0.48543157540843823,0.9999377158612655,0.00012465226696932037
-0.48530627709114926,-0.48530627709114926,1.0000348945771165,0.00011573881838635377
-0.48519394270915656,-0.48519394270915656,1.0000536228849313,0.00012309647778465917
-0.485064541943575,-0.485064541943575,1.000062968580726,0.00012844763207981938
-0.48494244766625344,-0.48494244766625344,0.9999850037147053,0.00012360112191100737
-0.4848532060685102,-0.4848532060685102,0.9999097653186549,0.00011942003409562729
-0.48476988574911956,-0.48476988574911956,0.9999940815455588,0.00011895759398226465
-0.4846122641429247,-0.4846122641429247,1.0001084911433822,0.00012167824535840838
-0.4844841691352485,-0.4844841691352485,0.9998564881779464,0.00012050451742369014
-0.4844380563488812,-0.4844380563488812,0.9999503915361355,0.00012102134968428207
-0.48430428500068956,-0.48430428500068956,0.9999704536415882,0.00011953760294921851
-0.48420764327383947,-0.48420764327383947,1.0000788188419203,0.00012537577003542797
-0.4841331228024501,-0.4841331228024501,1.0001956048112688,0.00012464545295850027
-0.48401938060851535,-0.48401938060851535,1.0000316560211338,0.00012137075649739213
-0.48389351427103977,-0.48389351427103977,0.9999288937449528,0.0001289007986008723
-0.4837422568620241,-0.4837422568620241,1.0000636605926805,0.00011994925767661213
-0.4836255474605423,-0.4836255474605423,0.9999848575004501,0.00012472152181867491
-0.4834960004212917,-0.4834960004212917,1.0000858866869708,0.00011911590470349312
-0.48333986406141777,-0.48333986406141777,1.0000113634974708,0.00012207007096601223
-0.4831722898285079,-0.4831722898285079,0.9999321851201092,0.00011940798100809014
-0.4830551913502859,-0.4830551913502859,0.9998503812112538,0.00012276880166394195
-0.48293175581711695,-0.48293175581711695,0.9999752419825306,0.00012194156031621064
-0.4827671685059613,-0.4827671685059613,0.9999514823039555,0.00012173626200575593
-0.4826254747422354,-0.4826254747422354,0.9999318607344749,0.0001172885135206262
-0.4825855867478822,-0.4825855867478822,1.0000608757731384,0.00012274417062043376
-0.48249016056652183,-0.48249016056652183,0.9999771687221903,0.00012110546465284788
-0.48235146794686445,-0.48235146794686445,0.999961611871911,0.00012177444224038265
-0.4822869073635957,-0.4822869073635957,0.9999871733905875,0.00012251433318169962
-0.48218434928712667,-0.48218434928712667,1.0001376477746322,0.00012020258160567341
-0.48206968246668114,-0.48206968246668114,1.000106910103094,0.00012060063206270054
-0.4819676396989962,-0.4819676396989962,0.9999207879808969,0.0001250425339533127
-0.4818047591827053,-0.4818047591827053,1.0000317689390983,0.00012051864085227979
-0.48167615330239644,-0.48167615330239644,1.0000672642689534,0.00012165596191497736
-0.4815452022950922,-0.4815452022950922,0.9999197296961594,0.00012034260278475427
-0.48142507756492703,-0.48142507756492703,0.999863621054439,0.00011838060328104213
-0.48127743854129224,-0.48127743854129224,1.0000571326373957,0.0001218120290393762
-0.4811160520526755,-0.4811160520526755,0.9998601280426158,0.00012059598071707592
-0.4810399275498639,-0.4810399275498639,1.0001110168876421,0.00011947444282782987
-0.480952460183471,-0.480952460183471,1.0000690952040359,0.00012151408141958088
-0.4807367512003111,-0.4807367512003111,0.9998870340352667,0.00011944134774389948
-0.48066616898722714,-0.48066616898722714,0.9999040680724078,0.00012084190216406137
-0.48055458964954595,-0.48055458964954595,0.9999573464959225,0.00012189033986543857
-0.4804554547634325,-0.4804554547634325,1.0001257653444855,0.00011867993374395215
-0.48037861871998755,-0.48037861871998755,0.9997375292615974,0.00012446013251831233
-0.4802939180881367,-0.4802939180881367,0.9999531996709828,0.0001253753073760844
-0.4801497099499102,-0.4801497099499102,0.9998083623717079,0.00012816258654797517
-0.47995548848994074,-0.47995548848994074,0.9999295050547481,0.00011918696784284471
-0.4798080790555105,-0.4798080790555105,0.9998746732816552,0.00012375144418421113
-0.47972147498003326,-0.47972147498003326,1.0000986769867626,0.0001218880544236426
-0.4796152981216437,-0.4796152981216437,0.9998602458699795,0.00012266831090196364
-0.4794854856925667,-0.4794854856925667,1.0000536131813995,0.0001187888218488277
-0.47934358510610764,-0.47934358510610764,0.9998985944103016,0.00011922466054834528
-0.4791953045365517,-0.4791953045365517,0.9998568063814595,0.0001234468820228458
-0.47911967531472327,-0.47911967531472327,1.000077239629241,0.00012097390191489709
-0.4789956697866728,-0.4789956697866728,1.0000687277045794,0.00012542833386875138
-0.47882716349558907,-0.47882716349558907,0.9999712337056973,0.0001213425529683545
-0.47870757617201887,-0.47870757617201887,1.0002741128059163,0.00012661871846807377
-0.47864671261122566,-0.47864671261122566,1.000071788551572,0.0001228126196854454
-0.47852594312353175,-0.47852594312353175,0.9998704764515948,0.00012065892093742302
-0.47841974327238856,-0.47841974327238856,1.0000476970241787,0.0001215787576551689
-0.47833881985716287,-0.47833881985716287,1.0001307892377274,0.0001216278165270499
-0.4781945644201187,-0.4781945644201187,0.9999917275844288,0.00013523308141591433
-0.4780535340978531,-0.4780535340978531,1.0000232302169274,0.00011999879810198231
-0.47786435019734197,-0.47786435019734197,1.0000783767826509,0.00012704075555045125
-0.47767122848308646,-0.47767122848308646,0.9998885764860544,0.00012429821918298774
-0.4775332791294204,-0.4775332791294204,1.0001257509736328,0.00012110726881833821
-0.4774437196436338,-0.4774437196436338,0.9999505314365958,0.00012076455209796358
-0.47730758043253446,-0.47730758043253446,0.9996493081713945,0.00012064902046543917
-0.47724478460877434,-0.47724478460877434,0.9998788378623308,0.00011954406347298424
-0.47714848663963494,-0.47714848663963494,0.9999716146082296,0.00012490885235790978
-0.4769902311410988,-0.4769902311410988,1.0001011625740697,0.00012041628772364843
-0.47684129746776305,-0.47684129746776305,0.9999741215652053,0.00012114674774954294
-0.4766568257269682,-0.4766568257269682,1.0000998089430442,0.0001256533835768884
-0.47653046777704733,-0.47653046777704733,1.0001110881911566,0.00012003993729777108
-0.4763426389610686,-0.4763426389610686,0.9998335139017035,0.00012035561284155171
-0.4762430011447577,-0.4762430011447577,0.9999548641971765,0.00011682317177453132
-0.4761385983147193,-0.4761385983147193,0.9998116867063667,0.00011846180198780274
-0.4760367249371484,-0.4760367249371484,0.9999078584228513,0.00013094559151567315
-0.4758087481211987,-0.4758087481211987,0.9998229133281462,0.00012094719737001866
-0.4757353169567068,-0.4757353169567068,0.9998699152089155,0.0001227163001032487
-0.47569822625882807,-0.47569822625882807,1.0001555840268448,0.00012210098762971874
-0.47555699784716127,-0.47555699784716127,0.9999455724237709,0.00011991772429977375
-0.4753890239888278,-0.4753890239888278,0.9998820085779337,0.00012795108266386188
-0.4753288863503258,-0.4753288863503258,1.0000747490082418,0.0001212233324254834
-0.47527649396142807,-0.47527649396142807,0.9999744495075182,0.00012198207316868818
-0.475124012411834,-0.475124012411834,0.9998868854212141,0.00012183478666292626
-0.47495360351385896,-0.47495360351385896,0.9999763305835441,0.00012117832641385792
-0.4748231785422831,-0.4748231785422831,1.0000052981494718,0.00012046505817472431
-0.474686346056842,-0.474686346056842,1.0000142280027364,0.0001226013863842995
-0.47459058261010795,-0.47459058261010795,1.0000920998603404,0.00012079925988298858
-0.4744007680681534,-0.4744007680681534,0.9998378422302073,0.00011785410292338168
-0.474286772209598,-0.474286772209598,1.0003073620062695,0.00012312506827033266
-0.47418504092856895,-0.47418504092856895,0.9998698263096971,0.00012263778482089353
-0.47410789761997874,-0.47410789761997874,0.9999321981037704,0.00011996720834616863
-0.47401006232466897,-0.47401006232466897,0.9999621023624397,0.0001234889671300889
-0.4738852084512473,-0.4738852084512473,0.9997782526206513,0.00012503135349382387
-0.47375494935258755,-0.47375494935258755,0.9999789500790858,0.00012187369557231332
-0.4736175183286832,-0.4736175183286832,1.0000352896399938,0.00011622006045502594
-0.4735474416105717,-0.4735474416105717,1.000255199659702,0.00012132014729088528
-0.4734214592426724,-0.4734214592426724,0.9999537679419456,0.00012300393392413153
-0.47336471184535184,-0.47336471184535184,0.99987877014999,0.00012189384697069401
-0.4733062247039925,-0.4733062247039925,1.000142140279869,0.00011766987111528986
-0.47321477426230557,-0.47321477426230557,0.9999712739506839,0.0001220844012909319
-0.4730801421581418,-0.4730801421581418,0.9999985873495986,0.00012159744739585114
-0.47298952538258165,-0.47298952538258165,1.0001722283303562,0.00012498670170952962
-0.472899122400122,-0.472899122400122,1.0000911483647563,0.0001241516858387388
-0.47278604298844584,-0.47278604298844584,0.9998865104190877,0.00012462824499007635
-0.47269301256674223,-0.47269301256674223,1.0001364156262973,0.0001213544456605655
-0.4725090644118609,-0.4725090644118609,0.9998933125393108,0.0001238920263577832
-0.4723408206606109,-0.4723408206606109,0.9999474718430577,0.00011982915023006101
-0.4722495588910533,-0.4722495588910533,0.9997813609348594,0.00012389413743040122
-0.47214832961471986,-0.47214832961471986,1.0000529970169432,0.00011838683507833961
-0.4720094289761619,-0.4720094289761619,0.9998780999668216,0.00011887505301093432
-0.4719077714216837,-0.4719077714216837,0.9999164834916382,0.0001234996476544295
-0.47177626207485446,-0.47177626207485446,0.9999021879292318,0.00012147286233595001
