time,time,flux,flux_err
-0.49936946842596325,-0.49936946842596325,1.000147310311365,0.00013552517543699024
-0.498235034601142,-0.498235034601142,0.9999913004109243,0.00013719179778672448
-0.4968610026141202,-0.4968610026141202,0.9998592951771604,0.00013708122654729842
-0.4957404485263396,-0.4957404485263396,0.9998582908110866,0.0001241747901806855
-0.4946320748218568,-0.4946320748218568,0.9999410151196862,0.0001241434228612175
-0.4939347184234066,-0.4939347184234066,1.000071708278875,0.00012575849260294732
-0.4928313981217798,-0.4928313981217798,1.0000228725118643,0.00012586094076840008
-0.49201518480840606,-0.49201518480840606,1.0000353992184858,0.00012768649090771526
-0.4911794659361476,-0.4911794659361476,1.0002347354503853,0.00012992419462359628
-0.49044793550856414,-0.49044793550856414,1.0000780702013792,0.0001279541374829965
-0.4899812273128191,-0.4899812273128191,1.0000313096875648,0.00012962625914223315
-0.48968570489669216,-0.48968570489669216,1.0001228360341146,0.00013145268166684819
-0.489365719576017,-0.489365719576017,0.9999042078882072,0.00012617060616091304
-0.48826252296858,-0.48826252296858,1.0001051445913538,0.00012409552867394418
-0.4872299083304824,-0.4872299083304824,1.0001453333759334,0.00012401530353602666
-0.4861866745719453,-0.4861866745719453,0.9999264235424847,0.00012584026412309774
-0.48512612283811907,-0.48512612283811907,1.00014148765376,0.00012404864384992468
-0.48405686106998475,-0.48405686106998475,1.0002237823074087,0.00012581898043032634
-0.483057765790727,-0.483057765790727,1.0001030710113858,0.00012419519931589285
-0.4824136295123026,-0.4824136295123026,0.9998611339590713,0.00012753683066405282
-0.48146316595957617,-0.48146316595957617,1.0000435017201643,0.00012609013038594925
-0.48065091062453574,-0.48065091062453574,0.9999878786377316,0.00012776141897524282
-0.48001023738179355,-0.48001023738179355,1.000082107782899,0.00013007646315643258
-0.4793328288156772,-0.4793328288156772,1.0001038058319724,0.00012975740156778503
-0.4788811827893369,-0.4788811827893369,0.9999100353640179,0.00012968836689573453
-0.47861617467715406,-0.47861617467715406,0.9999741060807711,0.00012968713465326485
-0.4777549899328733,-0.4777549899328733,1.0001884478852876,0.00012403947306725835
-0.47644489480298946,-0.47644489480298946,1.0001129928626895,0.00012413961276091755
-0.4753267563675763,-0.4753267563675763,0.999888963756916,0.0001240682289375194
-0.47451333632634485,-0.47451333632634485,1.0000911101771615,0.00012575713738231518
-0.47353224909165875,-0.47353224909165875,0.9999542863281616,0.0001239985325312282
-0.47279698476195336,-0.47279698476195336,1.0001615434017854,0.00012582304714989546
-0.4719497631420381,-0.4719497631420381,0.9998384228404188,0.00012608770189246888
-0.4711029862257419,-0.4711029862257419,1.000142486117316,0.0001258004514917239
-0.4701736143237213,-0.4701736143237213,1.0000158481136523,0.00012774944975636293
-0.4693775208259467,-0.4693775208259467,1.0000900276555353,0.00013252977345922708
-0.46871745550597554,-0.46871745550597554,1.0000833376687996,0.00012794340852766457
-0.4680385295010637,-0.4680385295010637,1.000046344379186,0.00012976477040115375
-0.4676420030707959,-0.4676420030707959,0.9996824302601206,0.0001296930593313519
-0.4673475599935045,-0.4673475599935045,0.9999621107996713,0.00012784336441985165
-0.466295549532515,-0.466295549532515,1.000125026264963,0.00012404134166875137
-0.46510268801066557,-0.46510268801066557,0.9999766448253018,0.00012413001825322613
-0.4640161618939601,-0.4640161618939601,1.0001810218600549,0.00012568051737738256
-0.46322147633181887,-0.46322147633181887,0.9999912139025524,0.0001241335399775014
-0.4624155694618821,-0.4624155694618821,0.9999460970527064,0.00012411854691433142
-0.4616283806564752,-0.4616283806564752,0.9999238694421964,0.00012579060818172699
-0.46075141277979126,-0.46075141277979126,0.9999576167802215,0.00012483973608459984
-0.45985251920938025,-0.45985251920938025,0.9998360521015748,0.000127558637031641
-0.4590676605585031,-0.4590676605585031,0.9999101179242119,0.00012772430993809183
-0.458382763073314,-0.458382763073314,0.9998659919220364,0.00012962859985758292
-0.45760561350907664,-0.45760561350907664,1.0000676808879256,0.00012605073448697916
-0.45706212052609774,-0.45706212052609774,0.9998826795427208,0.00013149760441450998
-0.4566972536209505,-0.4566972536209505,0.9999161302472992,0.00012972484733794195
-0.4562693439424038,-0.4562693439424038,0.9999457070748667,0.00012433640079035892
-0.45524739528482316,-0.45524739528482316,1.000107812677339,0.0001269609374598394
-0.4542994841409381,-0.4542994841409381,1.0000380105354312,0.00012575451720462516
-0.45318836089572867,-0.45318836089572867,0.9999999812344187,0.00012408024265941455
-0.45179979962995276,-0.45179979962995276,0.9999513325670015,0.0001241592761575909
-0.4508235562738264,-0.4508235562738264,0.9999565890676114,0.00012758049151774292
-0.4500560800457606,-0.4500560800457606,0.9998772119565789,0.000124073336151774
-0.4491533167369198,-0.4491533167369198,0.9999759104165518,0.00012757833555737764
-0.44830255094566385,-0.44830255094566385,0.9997834163607514,0.00012586643279790028
-0.44755329251056536,-0.44755329251056536,1.0003356338199543,0.00012963906375219018
-0.4467737205530284,-0.4467737205530284,1.0001339875896011,0.00012807330526140814
-0.4461236594914226,-0.4461236594914226,1.0000398920372249,0.00012970105379734104
-0.4457956378289964,-0.4457956378289964,1.0000514439516752,0.00012959526620796865
-0.4455003571580164,-0.4455003571580164,0.9998798905928148,0.00013149478474992635
-0.4447257539257407,-0.4447257539257407,1.0000418560866475,0.00012410816942519943
-0.44351897545857355,-0.44351897545857355,1.0000398917957127,0.00012407044710438677
-0.4424307355104247,-0.4424307355104247,1.0000157786584067,0.00012415118953914973
-0.4415927839989308,-0.4415927839989308,0.999963416432084,0.0001256942949867722
-0.440363395732129,-0.440363395732129,0.9999295358411052,0.00012417403373157809
-0.4393473309930414,-0.4393473309930414,0.9999965610834348,0.00012596191912903423
-0.4386545415938599,-0.4386545415938599,0.9999426444489187,0.00012577614804745965
-0.4379541039117612,-0.4379541039117612,0.9998945317670616,0.0001258031804640491
-0.4371116459835321,-0.4371116459835321,1.0002130888686573,0.0001279961493586933
-0.43641517802607266,-0.43641517802607266,0.9999070319674207,0.0001278002703508429
-0.4358365398395108,-0.4358365398395108,1.0000114710095414,0.00013032793073115907
-0.4351660157291917,-0.4351660157291917,0.999991364722381,0.00012972006169361354
-0.43477686828700823,-0.43477686828700823,0.9999794264716684,0.00012971561136773563
-0.4346179871237837,-0.4346179871237837,1.0000550393835421,0.0001296703356670525
-0.43403379725059493,-0.43403379725059493,1.0000624034778458,0.00012413043534242923
-0.43285309565253555,-0.43285309565253555,0.9999736800497045,0.00012573898591303786
-0.43179966862662694,-0.43179966862662694,1.0000753777694489,0.00012406280407817552
-0.43062876136100386,-0.43062876136100386,1.0000164671848455,0.00012415615741217888
-0.4300528533902252,-0.4300528533902252,0.9998990343034638,0.00012571619040387537
-0.429114741916419,-0.429114741916419,0.999977301692138,0.0001241189770291615
-0.428368872142164,-0.428368872142164,1.000106530862458,0.0001262653371842251
-0.4273464496305678,-0.4273464496305678,0.9996927467811304,0.00012405194972125723
-0.4265720519964816,-0.4265720519964816,0.9998902219445572,0.00012764733571970677
-0.4257201097905636,-0.4257201097905636,0.9999519573875346,0.0001295421969720465
-0.42509852674847937,-0.42509852674847937,0.9998947361815222,0.0001278638081831283
-0.4243557127774693,-0.4243557127774693,1.0000459653568181,0.0001298177146251472
-0.42388502962421626,-0.42388502962421626,1.0001082144826043,0.0001297240952042008
-0.4236432464706013,-0.4236432464706013,1.0000534378194654,0.0001314504396908044
-0.4227622562990291,-0.4227622562990291,1.0002076239167235,0.0001223192159310786
-0.42185391754610463,-0.42185391754610463,1.0001361810441796,0.00012596821753321297
-0.4208055417635478,-0.4208055417635478,0.9999743450832967,0.00012413656292065313
-0.419714653774281,-0.419714653774281,0.999974356548538,0.00012408508891875543
-0.41902413064963184,-0.41902413064963184,1.0002080734619683,0.00012408296510670597
-0.418019757521688,-0.418019757521688,1.0002426758556495,0.00012581560288181463
-0.41727429842285346,-0.41727429842285346,1.0000861587157792,0.00012583349867628812
-0.4161177096597385,-0.4161177096597385,1.0000641605616263,0.00012579524104359177
-0.41534208101802506,-0.41534208101802506,0.9998217994018995,0.00012592664354934237
-0.41463127662718763,-0.41463127662718763,0.9999110910057938,0.00013128117547900293
-0.4137327293283306,-0.4137327293283306,0.9999064197863394,0.00012618069246837985
-0.41318187035794834,-0.41318187035794834,0.9999983788633754,0.00012961355883208862
-0.4128184089844581,-0.4128184089844581,1.0000417642431487,0.0001297076282006799
-0.41249808385910003,-0.41249808385910003,1.000154881586577,0.00012797868101672912
-0.41170190765406006,-0.41170190765406006,1.0001570610002801,0.00012402437599670217
-0.4105921659996966,-0.4105921659996966,1.0000696764954382,0.0001240446922351573
-0.40952852041227744,-0.40952852041227744,0.9997576924693121,0.00012411759119040179
-0.4085765417723451,-0.4085765417723451,1.0000150895842992,0.00012575885034407994
-0.40737611865333745,-0.40737611865333745,0.9999786622307709,0.00012581371829522434
-0.4063785923324758,-0.4063785923324758,1.0002419328588334,0.0001242024641749087
-0.40572293239820284,-0.40572293239820284,1.0000412526993965,0.00012576298080699939
-0.4047638229705626,-0.4047638229705626,1.0000340516690225,0.00012770904940503377
-0.40393772581010123,-0.40393772581010123,1.0001015982216783,0.000126007593259527
-0.403292048277217,-0.403292048277217,1.0000024065455666,0.00012987800370602544
-0.4025205236452166,-0.4025205236452166,1.0000566621247182,0.00012981618493293354
-0.4020716428960441,-0.4020716428960441,0.9998437898112652,0.00012789072280330652
-0.4017638344404986,-0.4017638344404986,1.000028080773778,0.00012961770962633285
-0.4011752852617064,-0.4011752852617064,1.0000860440501673,0.000126168670689483
-0.399834523309255,-0.399834523309255,1.000142004458373,0.0001257544685466944
-0.39887549374834635,-0.39887549374834635,0.9998975114596972,0.00012402548931201408
-0.39787504510895816,-0.39787504510895816,1.0000228855702917,0.00012413868499553125
-0.3966760193347,-0.3966760193347,1.0000541124664655,0.00012576233547668123
-0.39575809936795847,-0.39575809936795847,0.9998669385120076,0.00012432798374105008
-0.394749533481081,-0.394749533481081,0.9999666949478637,0.0001258345689800384
-0.3939079968869919,-0.3939079968869919,1.0000764991542705,0.00012583388611617932
-0.3930965758161619,-0.3930965758161619,0.9998915202549853,0.00012814304265589997
-0.392393446090864,-0.392393446090864,0.9999748816562273,0.00012784348740000213
-0.39164488089154476,-0.39164488089154476,0.9998863913308016,0.00013057112816872697
-0.3911053316900507,-0.3911053316900507,1.0001090571086628,0.0001296998351684766
-0.39073315204877873,-0.39073315204877873,0.9999907983953754,0.00012967887628526257
-0.3906173156254226,-0.3906173156254226,0.9998532178292978,0.00012967386814184706
-0.3896861622284632,-0.3896861622284632,1.0002940936608025,0.00012229892405426996
-0.3885168304026593,-0.3885168304026593,1.0002238647239845,0.00012575305277536073
-0.3874438621598529,-0.3874438621598529,1.0001310278565907,0.00012572545036973291
-0.38649679435184225,-0.38649679435184225,1.0001017880124863,0.00012415406992068485
-0.38575597867602485,-0.38575597867602485,0.9999139651616481,0.00012414271845153187
-0.3849294712388655,-0.3849294712388655,1.0001504275088071,0.00012406237474725477
-0.3841116585099371,-0.3841116585099371,0.9999274978371631,0.00012641785218018293
-0.38315879286965354,-0.38315879286965354,1.0001408611759453,0.00012585578042011226
-0.38234224475163503,-0.38234224475163503,1.000105098341127,0.00012767967009607185
-0.3816010747628752,-0.3816010747628752,0.9999764012175587,0.00012958264779728082
-0.3809474695153767,-0.3809474695153767,1.0002256492332535,0.00012790762177756517
-0.38039510821399747,-0.38039510821399747,0.999857687956157,0.00012967862113588466
-0.37991515862813685,-0.37991515862813685,1.0002857701554824,0.00012972605811719672
-0.3796275237109512,-0.3796275237109512,1.0001176138313936,0.00012795444401386425
-0.37877852472593077,-0.37877852472593077,1.000053562682687,0.0001240846656633235
-0.3779288559482666,-0.3779288559482666,1.0000114553578423,0.00012590061483463093
-0.3769388907094253,-0.3769388907094253,0.9999355189335588,0.00012414298944134672
-0.3758382887899643,-0.3758382887899643,1.0000423000504572,0.00012567498323780461
-0.37483572444180024,-0.37483572444180024,0.9999950531703179,0.00012416261134469696
-0.37372773029783274,-0.37372773029783274,1.0000337616638348,0.0001258362849559416
-0.3731612128467532,-0.3731612128467532,0.9999620186556951,0.00012595269848805773
-0.37209401543659626,-0.37209401543659626,1.0000889726193711,0.0001257847162764738
-0.3712823858077172,-0.3712823858077172,1.0000068420079593,0.00012593670473908582
-0.37049378907831854,-0.37049378907831854,0.9999710673743498,0.00012956636555431898
-0.3695604432723485,-0.3695604432723485,0.9999401493850961,0.0001280525962738666
-0.3690854556509294,-0.3690854556509294,1.0000709196033621,0.00012962534421421444
-0.3687532220792491,-0.3687532220792491,1.000007499451088,0.00013142818780868487
-0.368340142533998,-0.368340142533998,1.0000496281495361,0.00012434464529618392
-0.3670803699817043,-0.3670803699817043,1.0000531215534088,0.0001257305893133283
-0.3661519219633192,-0.3661519219633192,1.0000924294613285,0.00012403301804406994
-0.36512293812993446,-0.36512293812993446,0.999950569443832,0.00012414969634900742
-0.3639074256294407,-0.3639074256294407,1.0000888204190672,0.00012407225134760075
-0.362979136465583,-0.362979136465583,1.0000343003334713,0.0001259413708062987
-0.3620050462515792,-0.3620050462515792,1.000100837671764,0.00012408781837704394
-0.36145729358831885,-0.36145729358831885,1.0001802587296724,0.00012749026135489943
-0.3605659373133676,-0.3605659373133676,0.9999849858039678,0.0001261243912284063
-0.3597557229659287,-0.3597557229659287,1.000193089832496,0.0001277564759197675
-0.35912179301376457,-0.35912179301376457,1.0000606673367036,0.00013014134219427692
-0.3584509365435224,-0.3584509365435224,1.0000224048291473,0.00012974643418646817
-0.35799696856411173,-0.35799696856411173,1.0000799551871071,0.0001297062843030552
-0.35775737596850377,-0.35775737596850377,0.9999645724815363,0.0001296395619965871
-0.3575028964492958,-0.3575028964492958,1.0000218260575084,0.00012781267218679618
-0.35629891001153735,-0.35629891001153735,0.9998492611993329,0.00012411752904988133
-0.3551426242862362,-0.3551426242862362,1.00000221897112,0.0001240569992559759
-0.3539859721029643,-0.3539859721029643,0.9999513067611883,0.00012581883367114165
-0.35327953263767997,-0.35327953263767997,0.9998944751921766,0.00012570399188232146
-0.35228366604424083,-0.35228366604424083,1.0000344237652952,0.00012412365600463288
-0.3515185982105322,-0.3515185982105322,0.9999823440251788,0.0001261244867926613
-0.3504957003082382,-0.3504957003082382,1.0000285751822053,0.0001240635372590511
-0.349712532851845,-0.349712532851845,1.0001318850513607,0.0001276530440130404
-0.3487316449522041,-0.3487316449522041,0.9999192149238956,0.00012958607445619149
-0.34816888269851914,-0.34816888269851914,0.999994790318923,0.00012926310488258445
-0.34734654587227853,-0.34734654587227853,1.0000581558078878,0.00012982664235169656
-0.3469080291222781,-0.3469080291222781,0.9999276741784989,0.00012972933472047278
-0.34672164936491756,-0.34672164936491756,0.9999062776105646,0.00012967693823855023
-0.34592790028254966,-0.34592790028254966,1.000033403560792,0.00012418289165155679
-0.34470615863101556,-0.34470615863101556,1.000010624360991,0.0001257227772038248
-0.3436274228413822,-0.3436274228413822,1.0000203474116178,0.00012407526724047188
-0.3425103447516449,-0.3425103447516449,1.0001188356036521,0.00012582855242189444
-0.341890398983378,-0.341890398983378,1.000100381629871,0.0001240556065186915
-0.3409674702241318,-0.3409674702241318,1.0000351686364257,0.000124153132816033
-0.34027074854820966,-0.34027074854820966,1.000006403361232,0.00012660591446837243
-0.33925624120165593,-0.33925624120165593,1.0000258690385397,0.00012588612435903134
-0.3384912661509588,-0.3384912661509588,1.0000962309162145,0.00012585085322055069
-0.33772151921875776,-0.33772151921875776,1.0001915568887851,0.00013128593811697064
-0.33704424391908105,-0.33704424391908105,1.000147917784183,0.0001260963226728986
-0.3363937846967019,-0.3363937846967019,0.9999375024549803,0.00012966160880085374
-0.33595418882905503,-0.33595418882905503,1.0002042037487222,0.0001297411138831219
-0.3357013807632029,-0.3357013807632029,0.9999211318649202,0.0001297441264195242
-0.3349098932405468,-0.3349098932405468,1.000008059716528,0.00012409893956481078
-0.333774029291817,-0.333774029291817,0.9998276470359041,0.00012403463216482415
-0.3327134484628914,-0.3327134484628914,0.9999000200652132,0.0001241294831677132
-0.3317406695423415,-0.3317406695423415,1.0001850664326777,0.00012575627908398482
-0.33053119873802644,-0.33053119873802644,0.9999283915764929,0.00012405010568404383
-0.32954405173659324,-0.32954405173659324,0.999874945198416,0.00012590782557400724
-0.3288615731900791,-0.3288615731900791,0.9999840278767949,0.00012577873494177465
-0.32789324286859484,-0.32789324286859484,1.0000795952314934,0.00012590217619935193
-0.32708650559652597,-0.32708650559652597,1.0000139292539072,0.00012768885198539558
-0.32639852854190393,-0.32639852854190393,0.99994497557237,0.00012976418524572307
-0.3256171507004183,-0.3256171507004183,1.0001051876416915,0.00012981748193602747
-0.32513323086022866,-0.32513323086022866,0.9999731115513493,0.0001277849385517589
-0.32482609162398146,-0.32482609162398146,1.0001140603994834,0.00013143260030859367
-0.3240760037151631,-0.3240760037151631,0.9998827580182317,0.0001259661082143991
-0.322798383233021,-0.322798383233021,1.0000130311436783,0.00012411691211674567
-0.32179660942056215,-0.32179660942056215,1.0002259108187488,0.00012403363512595005
-0.32090249788889197,-0.32090249788889197,1.0000788135315581,0.00012405573634275883
-0.3196099052322097,-0.3196099052322097,1.0001526823036173,0.00012585217159845585
-0.3187075378111331,-0.3187075378111331,0.9999918922525086,0.00012599512769229974
-0.3178311616240535,-0.3178311616240535,0.999811478640029,0.00012407376384736285
-0.31722490320389624,-0.31722490320389624,1.0000173940359276,0.0001274835085302629
-0.31640304598549845,-0.31640304598549845,1.0000386755344124,0.00012626845999722503
-0.3155999272072222,-0.3155999272072222,0.9998605459927233,0.00012779183011150347
-0.3151154469844187,-0.3151154469844187,0.9999029340971359,0.00013208554989213524
-0.31437415720429274,-0.31437415720429274,1.0000595577861087,0.00012796716890376092
-0.3139564336946933,-0.3139564336946933,0.9999656242961731,0.00012968042747720984
-0.3137680196930887,-0.3137680196930887,0.9999935750377889,0.0001314208516290731
-0.3134955455549061,-0.3134955455549061,0.9999414276779792,0.00012589447624208492
-0.3124582405842375,-0.3124582405842375,0.9998729100713903,0.00012412262521067173
-0.3112499630602542,-0.3112499630602542,0.9999434432528636,0.00012406875204568226
-0.31011411487997975,-0.31011411487997975,1.0001010466358877,0.000125855747109971
-0.30944734532095025,-0.30944734532095025,1.0001373741344701,0.0001240880923523114
-0.3085520556865958,-0.3085520556865958,1.0002483789562524,0.00012579224066653377
-0.30782727103796786,-0.30782727103796786,1.0000909229567838,0.00012404409710588463
-0.3068316613236675,-0.3068316613236675,1.0002743371852563,0.00012635598457535555
-0.305990264218417,-0.305990264218417,1.000077923252576,0.00012582301699616555
-0.30512152953015176,-0.30512152953015176,0.9998775369794949,0.00012950163140084856
-0.3044902753055794,-0.3044902753055794,1.0000524190017832,0.00012789437232347967
