time,time,flux,flux_err
-0.498928426465136,-0.498928426465136,0.9999184415661336,0.0001963818606441206
-0.49717257921001873,-0.49717257921001873,0.9995279664335183,0.00019647757427250587
-0.4954696595785208,-0.4954696595785208,1.0000633044379623,0.00019614453659459199
-0.49399573274713476,-0.49399573274713476,0.9999520601367949,0.00019590252425826974
-0.4922974880813854,-0.4922974880813854,0.999912086429673,0.00019840690627508312
-0.49082274952670557,-0.49082274952670557,1.0000012172621031,0.0001965362824490292
-0.48878483853768556,-0.48878483853768556,1.0001631225172924,0.00019630862910381087
-0.487510334327817,-0.487510334327817,0.9999490218443687,0.00019605463467191987
-0.48575813546194696,-0.48575813546194696,1.0001514606046586,0.00019704328505435755
-0.48417894686281215,-0.48417894686281215,1.0000494596617315,0.00019644900770945055
-0.48240846560511275,-0.48240846560511275,1.0001030912101667,0.00019647168685793995
-0.48097904824535365,-0.48097904824535365,0.9999971365289356,0.00019613624974335622
-0.4794736088369973,-0.4794736088369973,0.999964832028293,0.0001960254038334551
-0.4779370623436989,-0.4779370623436989,0.9998678610316516,0.0001968477932028981
-0.47602472893486264,-0.47602472893486264,1.0002402368427314,0.00019650361667446025
-0.4743722497601993,-0.4743722497601993,0.9999654638656157,0.00019624081073350039
-0.47284708039369433,-0.47284708039369433,0.9999263918989534,0.00019603074754359612
-0.4711555158224655,-0.4711555158224655,0.9997979287942258,0.00019621002073577434
-0.4693033728079172,-0.4693033728079172,0.9996974261182835,0.00019661063235121949
-0.467256659254781,-0.467256659254781,1.0000069365144142,0.00019627044072987728
-0.4662796606105985,-0.4662796606105985,0.9999504177877968,0.00019631026107854886
-0.4646660572063411,-0.4646660572063411,1.000121932226314,0.00019596607113759817
-0.4628570308414055,-0.4628570308414055,1.0000274483310354,0.00019647041646987136
-0.4609305918216705,-0.4609305918216705,0.999844456936178,0.00019630700170203893
-0.4591492119972827,-0.4591492119972827,0.9996870038435184,0.00019620001618142125
-0.4575146658869926,-0.4575146658869926,0.9999308312947116,0.00019595157513482524
-0.4556673005077755,-0.4556673005077755,1.0000108443819777,0.00019629542427355436
-0.45430458851042205,-0.45430458851042205,1.0001323843485457,0.00019667519871266817
-0.45248516206047495,-0.45248516206047495,0.9997154926530003,0.00019621956703434344
-0.4507131486723665,-0.4507131486723665,0.9998353673313968,0.00019596052382676187
-0.44882381273200733,-0.44882381273200733,1.0001085746989413,0.00019632085593115434
-0.44729953560163266,-0.44729953560163266,1.0003684106349837,0.00019657759060416488
-0.4454958177433582,-0.4454958177433582,0.9998181060644533,0.00019629943937655376
-0.44393371806072535,-0.44393371806072535,0.9998866595002129,0.00019604698824806304
-0.4421281694842037,-0.4421281694842037,0.9997522004279187,0.00019594543247874614
-0.44081177209154704,-0.44081177209154704,1.0001023551641164,0.0001966236510634627
-0.439252625402878,-0.439252625402878,0.9998100272799977,0.00019650286348346706
-0.43705687422771006,-0.43705687422771006,0.9997277387147452,0.00019610980359532586
-0.43534146406454965,-0.43534146406454965,1.0000019898496653,0.0001961488621210785
-0.43410599600465505,-0.43410599600465505,0.9999965074508467,0.00019667816196798898
-0.4325373299128842,-0.4325373299128842,1.000345266874978,0.00019668315872780226
-0.43059655718971046,-0.43059655718971046,0.9999459416006695,0.00019632541237305678
-0.42916729176358787,-0.42916729176358787,1.0001312191949228,0.00019610856612312902
-0.42779872375831474,-0.42779872375831474,0.9998894685479298,0.00019777149180189154
-0.4259582343773218,-0.4259582343773218,0.9997245972469189,0.00019641093513117508
-0.42420072365493977,-0.42420072365493977,0.9998916133992276,0.0001964915286741495
-0.42250585660804063,-0.42250585660804063,0.9998792388477475,0.00019615029131728485
-0.4210366534971399,-0.4210366534971399,0.9996949589277015,0.00019586947197260235
-0.4193300789978821,-0.4193300789978821,0.9998190414024574,0.0001980191330424809
-0.417850652220659,-0.417850652220659,0.9999424910831729,0.0001965354653362815
-0.4158181940438226,-0.4158181940438226,1.0000410325516622,0.00019627361256237797
-0.4145450491894735,-0.4145450491894735,1.0002261030447084,0.000196065248430982
-0.41279490905290006,-0.41279490905290006,1.0000064941884257,0.00019695019479741763
-0.41101310682715847,-0.41101310682715847,0.9995819073075184,0.00019635578599974264
-0.4093447014922276,-0.4093447014922276,0.9999612092981665,0.0001965258902211108
-0.40801435502944516,-0.40801435502944516,0.9999121568089435,0.00019614790398546025
-0.40635159268858845,-0.40635159268858845,1.0001604308768155,0.00019594551855034562
-0.404646100703394,-0.404646100703394,0.9996869643532506,0.00019683711528916114
-0.40328716266085396,-0.40328716266085396,0.999979887694057,0.00020049745407846878
-0.4014654151455034,-0.4014654151455034,1.0003178334887726,0.0001963302441236069
-0.4000140621123137,-0.4000140621123137,0.9999932253209124,0.00019618505140767728
-0.39848622352583335,-0.39848622352583335,0.9998576212992262,0.00019591654463241466
-0.3963301406154642,-0.3963301406154642,1.0000724835690669,0.0001966636903457353
-0.3940974437689874,-0.3940974437689874,1.0001249363640379,0.0001963335951522031
-0.39298988283262587,-0.39298988283262587,0.9997873729484983,0.00019610729345660862
-0.39133878751599693,-0.39133878751599693,1.0000508434147626,0.00019595606759017915
-0.389307003794238,-0.389307003794238,0.9997997751632581,0.0001966142787946568
-0.38757260255515574,-0.38757260255515574,1.000123832606635,0.00019635216617659568
-0.3855781163467327,-0.3855781163467327,0.99994362408887,0.0001961567584131563
-0.3838482556777308,-0.3838482556777308,0.9999169567472276,0.00019598904440130174
-0.382062791151111,-0.382062791151111,1.0002083142358356,0.0001965251266836655
-0.3806564506900031,-0.3806564506900031,1.0001001903556044,0.00019642618984109204
-0.3787699658947531,-0.3787699658947531,0.9997310848735479,0.0001962402779069847
-0.3770475100696785,-0.3770475100696785,1.0000588814556135,0.00019589967869656556
-0.37519792433886323,-0.37519792433886323,1.0003316283078538,0.00019651044985172952
-0.37360589353193063,-0.37360589353193063,0.9995833486566366,0.00019634124896326287
-0.3715853760979371,-0.3715853760979371,0.9998706641723338,0.00019628938544518794
-0.36990365233214106,-0.36990365233214106,0.9998441623160705,0.00019588877184759053
-0.3683446277253097,-0.3683446277253097,1.0001230430596524,0.00019653470113370914
-0.3671022746420931,-0.3671022746420931,1.0001199553864748,0.00019660173008407924
-0.3648241771035828,-0.3648241771035828,0.9999124810045521,0.00019620736350433747
-0.36337024085514713,-0.36337024085514713,0.9999935099885529,0.00019609774059446187
-0.36193191082566045,-0.36193191082566045,0.9999828996095127,0.00019618661929178197
-0.36082490455592053,-0.36082490455592053,1.0000968882479444,0.00019719716606208336
-0.3592793931864435,-0.3592793931864435,1.0001217414476868,0.00019652368015806132
-0.3572085072897607,-0.3572085072897607,0.9998472800488235,0.00019633211948709854
-0.35592409227392635,-0.35592409227392635,0.999942719415046,0.0001960343781846004
-0.3541267819091445,-0.3541267819091445,0.9998661134379245,0.000195931013399142
-0.3523351352312602,-0.3523351352312602,0.9998537971568936,0.00019670699498682402
-0.3504530963487923,-0.3504530963487923,0.9999104916681147,0.00019628683558844986
-0.34903693243686573,-0.34903693243686573,1.0001295645006127,0.00019607372705575287
-0.3473383989359718,-0.3473383989359718,0.999798945876675,0.00019592850751514682
-0.34578698184050155,-0.34578698184050155,0.999908144566483,0.00019803193364598142
-0.34402785751444753,-0.34402785751444753,0.9998252015433391,0.00019643220172722224
-0.3423787090316182,-0.3423787090316182,1.0000116504549035,0.00019598497352948398
-0.3409361293190159,-0.3409361293190159,0.9999829046364909,0.00019604146394471318
-0.3391824153193738,-0.3391824153193738,1.0000006447254266,0.00019709036549663458
-0.3373869026370812,-0.3373869026370812,1.0000497180130439,0.00019651165772136526
-0.33567488574190063,-0.33567488574190063,0.999814077937935,0.00019627834479833345
-0.3344094490428688,-0.3344094490428688,0.9999577311557675,0.00019603974188894357
-0.3326743414363591,-0.3326743414363591,0.9998319975531601,0.00019591067875836853
-0.3309253501938656,-0.3309253501938656,0.9997790267430904,0.00019691660199178254
-0.3288733613444492,-0.3288733613444492,0.9999276725148205,0.00019648850135597462
-0.3273325874324655,-0.3273325874324655,0.9999214034169508,0.0001960267821787676
-0.325800290852203,-0.325800290852203,0.9998290909569661,0.00019617857182712483
-0.32373885698616506,-0.32373885698616506,1.0001985618799294,0.00019645098315889303
-0.32149616424867417,-0.32149616424867417,0.9999805004081024,0.00019634761802884794
-0.3203428077104036,-0.3203428077104036,1.0001149885106706,0.00019621521115157953
-0.31874388105934487,-0.31874388105934487,0.9998640963736201,0.00019597422831289674
-0.3165501420822693,-0.3165501420822693,0.9997235763678287,0.00019646625316952575
-0.3148755721107591,-0.3148755721107591,0.9999572610590628,0.000196427451433108
-0.3129872492485447,-0.3129872492485447,0.9998439706656115,0.0001962680605893348
-0.31123279795865527,-0.31123279795865527,0.999858420997022,0.00019593071818300095
-0.30941695943183734,-0.30941695943183734,0.9998423318531163,0.0001964875589839573
-0.308019872487057,-0.308019872487057,0.9998665942780288,0.00019650929936895368
-0.30618792081368157,-0.30618792081368157,0.9999775787270575,0.0001962316044330923
-0.3044433883187594,-0.3044433883187594,1.000286831668707,0.00019595150501587963
-0.3027317486703396,-0.3027317486703396,0.9997618018418043,0.00019658474218923802
-0.30160394792910666,-0.30160394792910666,1.0002331027401958,0.00019639494163978618
-0.29951243120012805,-0.29951243120012805,0.9999173403469115,0.00019645561690750972
-0.29764662840752865,-0.29764662840752865,1.0003858909204941,0.0001959336592938253
-0.29593742651632055,-0.29593742651632055,1.0002355719631686,0.00019638202939997038
-0.2947463930788217,-0.2947463930788217,0.9998179609875673,0.00019633697998681937
-0.2933110487909289,-0.2933110487909289,0.9998522441249451,0.00019650926039411226
-0.2911313356366009,-0.2911313356366009,1.0000797642372041,0.0001961064852793599
-0.28978627424512526,-0.28978627424512526,1.0000633409972035,0.00019604842084917752
-0.28794914846366737,-0.28794914846366737,1.0000204631343632,0.00019609551667415883
-0.28630936321860645,-0.28630936321860645,1.0000238748181352,0.0001965098705233859
-0.28424147426558194,-0.28424147426558194,1.0000300558144033,0.00019633461426839428
-0.2829584042308852,-0.2829584042308852,0.9998327831199033,0.00019604241880142662
-0.2811655259458348,-0.2811655259458348,0.9998391061966995,0.0001959223025987115
-0.279358453291934,-0.279358453291934,1.0000921407467604,0.0001967152537582525
-0.2774867703439668,-0.2774867703439668,1.000035997981403,0.00019629033506873375
-0.27607293471228334,-0.27607293471228334,0.9999329827917146,0.00019604997836973254
-0.27437926789280026,-0.27437926789280026,1.0000178247638671,0.00019591122327412193
-0.27281334288127257,-0.27281334288127257,0.9998608706372856,0.00019778528126880552
-0.27105634252075106,-0.27105634252075106,0.9999807397499942,0.00019644176779849815
-0.2694188344903523,-0.2694188344903523,0.9999329136638018,0.0001960094522110378
-0.2679738324775826,-0.2679738324775826,1.0001262128798318,0.00019603824933342998
-0.266215365024982,-0.266215365024982,0.9999807529452568,0.00019700281181150693
-0.2644151315034833,-0.2644151315034833,0.9998870794676222,0.00019651376488013082
-0.2627085952350171,-0.2627085952350171,1.000191082907036,0.00019629657556636168
-0.2614445217332104,-0.2614445217332104,1.0004765642068603,0.00019606040235108676
-0.25971387308381966,-0.25971387308381966,1.0000703448808939,0.0001959511344206657
-0.257953639497282,-0.257953639497282,1.00026079270283,0.00019684887272411293
-0.2558999372908147,-0.2558999372908147,0.9999459151025192,0.0001964396904615546
-0.2547463380440604,-0.2547463380440604,1.0000062475018203,0.00019633168721055802
-0.253278389753541,-0.253278389753541,1.0001347760125698,0.00019597534924020488
-0.25116622767527585,-0.25116622767527585,1.0000049895365595,0.00019633656765037007
-0.24893003201577812,-0.24893003201577812,0.9998828963592568,0.0001962750016580099
-0.2473747275362257,-0.2473747275362257,0.9999674159152809,0.0001963098786469585
-0.24578287835756782,-0.24578287835756782,1.0001237263291927,0.0001959588783215944
-0.2439431300444994,-0.2439431300444994,0.9999678989037859,0.00019629513382088968
-0.24260332963895054,-0.24260332963895054,0.9999081356589639,0.00019670840026755386
-0.24075775290257298,-0.24075775290257298,0.9998739977072196,0.00019624579417832489
-0.2389801715820795,-0.2389801715820795,1.0001077827334535,0.00019595679734265618
-0.23709851122112013,-0.23709851122112013,0.9999916993255307,0.00019632768456147976
-0.23560296741779893,-0.23560296741779893,1.000084422395609,0.00019649567571169085
-0.23401694382482674,-0.23401694382482674,1.0001535857996053,0.00019626537438931902
-0.23220202646916732,-0.23220202646916732,0.9999357584948434,0.00019604501637294336
-0.23033314713102299,-0.23033314713102299,0.9999293479072733,0.0001963513338570403
-0.228859995646053,-0.228859995646053,1.0000059277114932,0.00019635598339417252
-0.2270364390948089,-0.2270364390948089,0.9999685537179683,0.0001964460096012457
-0.22505112728103996,-0.22505112728103996,0.9999044390038302,0.00019601916535699513
-0.22327745542570482,-0.22327745542570482,0.9999139419497638,0.00019610944980656808
-0.22207397683232558,-0.22207397683232558,1.0000484228899924,0.00019660299451069936
-0.22034033673990053,-0.22034033673990053,1.0000558623988884,0.0001965062602236665
-0.21794416919001378,-0.21794416919001378,1.000046142405853,0.00019622172292571715
-0.21644506098818966,-0.21644506098818966,0.9997378541818305,0.00019588296384739074
-0.2146516640088521,-0.2146516640088521,0.9999875563524212,0.00019623132163740323
-0.2129265609808499,-0.2129265609808499,1.0000274196664356,0.0001965705459656335
-0.2109712709352607,-0.2109712709352607,0.9999555331442724,0.00019624583374360625
-0.20965273762412834,-0.20965273762412834,1.00000912905609,0.0001960313561528249
-0.20795773377467414,-0.20795773377467414,0.999786671615869,0.00019853160365788963
-0.2063818231690675,-0.2063818231690675,1.0001407478378437,0.0001967233481405057
-0.204754654498538,-0.204754654498538,0.9998254640153815,0.00019646778850054532
-0.2034519588283729,-0.2034519588283729,1.0000496965945946,0.00019602163706683844
-0.2017735094326781,-0.2017735094326781,0.9997120102298046,0.0001959375519542688
-0.2001128995529143,-0.2001128995529143,1.0001751695801122,0.0001974397346084389
-0.1985332773794653,-0.1985332773794653,0.999907781749644,0.0001964612773360136
-0.19662614168482834,-0.19662614168482834,0.9996714943586038,0.00019615318417138703
-0.19531886893091724,-0.19531886893091724,1.0000242509898987,0.00019602877044274622
-0.19362931981740986,-0.19362931981740986,0.9996635988642378,0.00019665781166366774
-0.19176484055933543,-0.19176484055933543,0.9997719695245897,0.00019655952939975273
-0.18974235844798387,-0.18974235844798387,0.9996859854460303,0.00019623947815848765
-0.188629948682501,-0.188629948682501,0.9997793713081627,0.00019620121999117639
-0.18712630357476884,-0.18712630357476884,1.0003033826315455,0.00019599155161884786
-0.18532647809770425,-0.18532647809770425,1.0001163031533928,0.00019662915388493824
-0.1833164215699071,-0.1833164215699071,1.0002691606299101,0.00019623770085844275
-0.18205683166743256,-0.18205683166743256,1.0003388320992987,0.00019648006094582916
-0.18069989747891668,-0.18069989747891668,1.0000320553846385,0.00019603877268112765
-0.17893103854439688,-0.17893103854439688,0.9999279209496518,0.00019628492283390496
-0.17693993628199678,-0.17693993628199678,0.9996079787334333,0.00019647740337307173
-0.1751053998770658,-0.1751053998770658,0.9998671427300888,0.00019627265415954665
-0.1738496147794649,-0.1738496147794649,1.0002110246326141,0.00019609279582976578
-0.17212318535894156,-0.17212318535894156,0.9997065074689239,0.00019596965051265472
-0.17034248675918207,-0.17034248675918207,0.9998699439842305,0.00019650486424027292
-0.1689377848379081,-0.1689377848379081,0.9997824237216915,0.00019637558365564445
-0.16705045680282637,-0.16705045680282637,1.0002483137619034,0.00019629328087612534
-0.16531345661205704,-0.16531345661205704,0.9999935765658694,0.00019590301950699773
-0.16347922395798378,-0.16347922395798378,1.0000327348672327,0.00019646841419807768
-0.16207362011191434,-0.16207362011191434,1.0001246425819648,0.0001965071840452482
-0.1602602937811753,-0.1602602937811753,0.9996709269454337,0.00019623772664628265
-0.15852249574963934,-0.15852249574963934,1.0000767251246445,0.0001959232724943207
-0.15688122607534752,-0.15688122607534752,0.9999404089670726,0.0001964828875689061
-0.15566247395181562,-0.15566247395181562,1.0000965703851725,0.00019641468720908847
-0.15357247201318386,-0.15357247201318386,0.999935958516026,0.00019643960688336625
-0.15172715661174152,-0.15172715661174152,1.000085081659332,0.0001958891759043568
-0.15012101687316318,-0.15012101687316318,0.9995794093791381,0.00019612570191143838
-0.14879672873648814,-0.14879672873648814,0.9996604172696193,0.0001967253016717355
-0.14731304525048472,-0.14731304525048472,0.9998463478287816,0.0001965242265708955
-0.14498008609807583,-0.14498008609807583,0.999987299489262,0.00019612861024202543
-0.14348569778958337,-0.14348569778958337,0.9997178810650957,0.00019589482033115804
-0.14168323708581737,-0.14168323708581737,1.0000454129399734,0.00019626734977300016
-0.13995564173092134,-0.13995564173092134,0.9998482193324507,0.00019646096270711718
-0.13800550133746584,-0.13800550133746584,1.0001399530875474,0.00019626798103339693
-0.1366881739028031,-0.1366881739028031,1.0003066117087378,0.00019607703271863126
-0.13499375332612545,-0.13499375332612545,0.9998062754707695,0.00019812099118278852
-0.13340524771483614,-0.13340524771483614,0.9999231858148185,0.00019669113455279434
-0.13155426512239501,-0.13155426512239501,0.9996842513713997,0.00019624935561659293
-0.13014510716602673,-0.13014510716602673,0.9998971445282123,0.00019605870670317042
-0.1284611765498994,-0.1284611765498994,0.9997595153962602,0.00019589227954362425
-0.12667015385231933,-0.12667015385231933,0.9999915724408368,0.0001973538984148468
-0.12475086127524264,-0.12475086127524264,0.9999801512844659,0.00019646129394697114
-0.12332414827542379,-0.12332414827542379,0.9998715463455758,0.0001961376008160297
-0.12165905478177592,-0.12165905478177592,1.0001944650232883,0.00019598241909314106
-0.11984416410850826,-0.11984416410850826,1.0002452013900838,0.0001970025088701993
-0.11794889485754538,-0.11794889485754538,0.999724774979659,0.00019625552689755691
-0.11626715750317089,-0.11626715750317089,0.999830538281808,0.0001963029260501121
-0.11475642842997331,-0.11475642842997331,1.0000588340894507,0.00019605999191103822
-0.11310310115804896,-0.11310310115804896,1.0000544103812852,0.00019646010125578262
-0.11121351899346336,-0.11121351899346336,1.0000262144675625,0.0001964613475974785
-0.10940899832930881,-0.10940899832930881,0.9999204529374717,0.00019629914478858855
-0.10830080136656761,-0.10830080136656761,0.9998761654995922,0.00019616258979543653
-0.10666339768795297,-0.10666339768795297,0.9996627314268519,0.00019603529896070363
-0.10483170263760258,-0.10483170263760258,1.0000857964032468,0.00019649931759770336
-0.10302764355728869,-0.10302764355728869,1.0001732531826253,0.00019631973312391366
-0.10126807015913072,-0.10126807015913072,0.9999702548123197,0.00019623274384929215
-0.09949908314738423,-0.09949908314738423,0.9995920090076991,0.00019589896488135644
-0.09769855642516631,-0.09769855642516631,1.000303956340731,0.00019648083876811647
-0.09630858291347977,-0.09630858291347977,1.0003613800100795,0.000196523695241436
