time,time,flux,flux_err
-0.4998892599044969,-0.4998892599044969,0.9999717018499269,0.00018613636074509506
-0.49967887858050136,-0.49967887858050136,0.9997810467892961,0.00021095240570240462
-0.4995331920319586,-0.4995331920319586,0.9998211617521342,0.00016782711433197597
-0.4994138008099981,-0.4994138008099981,1.0001915047858678,0.0001759355769383607
-0.4993127199457376,-0.4993127199457376,0.9999608686602557,0.00016650012627204014
-0.4991507001686841,-0.4991507001686841,0.9999024371419256,0.00016532657459311396
-0.4990438649678254,-0.4990438649678254,0.9997385312427269,0.00016822199808060596
-0.4989266417978797,-0.4989266417978797,0.9997000622242845,0.00017383962019113728
-0.49880355145724026,-0.49880355145724026,1.0001001116253037,0.00016355136477708287
-0.49867026682186405,-0.49867026682186405,0.9997521706592962,0.00017460573352262376
-0.4985538997003459,-0.4985538997003459,0.9998444515140683,0.00018811302807524155
-0.49847403717722044,-0.49847403717722044,1.0000655238504146,0.00017595172077822767
-0.49837494674866323,-0.49837494674866323,1.0006767562056984,0.00017827267295602857
-0.4982484083637246,-0.4982484083637246,1.000284368598445,0.00017936430589527024
-0.49814215540536677,-0.49814215540536677,0.9999314176549403,0.00017166073149886934
-0.4980392160199699,-0.4980392160199699,0.9998708451694596,0.00018585871986155902
-0.4978586399491178,-0.4978586399491178,0.9997969724526647,0.00017041534660904722
-0.49763573243253634,-0.49763573243253634,0.9999968307068245,0.00016200119103408674
-0.49752344674634513,-0.49752344674634513,0.9998170388871254,0.00017303826376453659
-0.49744186507596166,-0.49744186507596166,1.0000847147565746,0.00016852788490789834
-0.4973647425824311,-0.4973647425824311,0.9999285380064291,0.00017219655147536367
-0.49722636096703354,-0.49722636096703354,1.000091544773198,0.00016522482658789348
-0.4970553315521101,-0.4970553315521101,1.0000709169080242,0.00016959206580603666
-0.49688586664124157,-0.49688586664124157,1.000000625485598,0.00017905067168518448
-0.49678428266488484,-0.49678428266488484,0.9999938424012935,0.00017131257245734738
-0.49665797019406455,-0.49665797019406455,1.0001019005779765,0.00016808901435077673
-0.4965172738215188,-0.4965172738215188,1.0001855218932552,0.00016821882930996083
-0.4964048030116828,-0.4964048030116828,0.9996145280450197,0.00017512829038095654
-0.4962976531460299,-0.4962976531460299,0.9997664791279967,0.00017306016158756654
-0.4962037716424675,-0.4962037716424675,1.000033508418673,0.00017805024645289397
-0.4961145197827136,-0.4961145197827136,0.9998129402389534,0.0001768414653599083
-0.4960417833586689,-0.4960417833586689,0.9999182040591361,0.00017749333394742026
-0.49595359706581804,-0.49595359706581804,0.9999965686225789,0.00017163057245933556
-0.49580156583251667,-0.49580156583251667,1.000161445716332,0.00020048816994207725
-0.4956503447465366,-0.4956503447465366,1.0000263425504197,0.00017474074856270853
-0.4955516679852735,-0.4955516679852735,0.9999899224414476,0.00016907817703721363
-0.49540675372845727,-0.49540675372845727,1.0000338416476588,0.0001761456696776242
-0.49536997551331297,-0.49536997551331297,0.9998268397081667,0.0001690673514297958
-0.49524465131398754,-0.49524465131398754,0.99975936942172,0.00016706767291077129
-0.4950965964977513,-0.4950965964977513,1.0001275967899808,0.00017447891461396062
-0.4948993982645334,-0.4948993982645334,0.9998822201523389,0.00017222839843425845
-0.49475387199927356,-0.49475387199927356,1.0000939774126227,0.0001738078619096353
-0.49461083591741045,-0.49461083591741045,0.9998403450843931,0.00017042496307939213
-0.49444935768551657,-0.49444935768551657,1.0001141741565296,0.00017738737198802154
-0.4942644273804035,-0.4942644273804035,0.9999763681437148,0.00017277429359260503
-0.49407189830526477,-0.49407189830526477,1.0000649105825745,0.00017357022115880943
-0.49393418144900353,-0.49393418144900353,0.9999079448747743,0.00018053410576229434
-0.4937990322796395,-0.4937990322796395,1.0002539519437534,0.00016698982795846864
-0.4937271936636535,-0.4937271936636535,0.9999098285470589,0.0001753008444999046
-0.49362991271482315,-0.49362991271482315,0.9997695429872563,0.00018667348902849345
-0.4935409407975385,-0.4935409407975385,1.0009193966556023,0.00018454880495707477
-0.49346548328176143,-0.49346548328176143,0.9999043034791388,0.00017078835656272922
-0.4933852878399193,-0.4933852878399193,0.9998778738145507,0.00018162666375784003
-0.49332841300201835,-0.49332841300201835,1.0000565919969626,0.00017403023099130335
-0.4932104476945824,-0.4932104476945824,0.9999435681412461,0.00017092335108177245
-0.49312561719561926,-0.49312561719561926,0.9999554664430195,0.00017956955563340994
-0.4929974499056698,-0.4929974499056698,1.0000478796352135,0.00017603454911133316
-0.49289120735484176,-0.49289120735484176,1.0000967110046386,0.00016727663917782176
-0.49268981825443914,-0.49268981825443914,1.000251684529808,0.00018012227729742778
-0.492574338176928,-0.492574338176928,0.9998843279516851,0.00017970568545160075
-0.4923742624130682,-0.4923742624130682,1.0002145312712394,0.00017868086844237565
-0.4922285672495491,-0.4922285672495491,1.0002128777176527,0.00018681250265436714
-0.4921033404942136,-0.4921033404942136,0.9999489161070294,0.00017559978613144412
-0.4919771989880246,-0.4919771989880246,1.0001242979037719,0.0001858994517421276
-0.4919019588633091,-0.4919019588633091,1.0000124145872298,0.00016611489044465836
-0.49178320162754974,-0.49178320162754974,0.9999788924256169,0.00017708319345835307
-0.4915385785745457,-0.4915385785745457,1.0002046089292296,0.0001692619314338287
-0.491389059429639,-0.491389059429639,0.9998710087289299,0.00018249829014461798
-0.4913369434681954,-0.4913369434681954,0.9997785134602136,0.0001966562370830244
-0.49121156704059105,-0.49121156704059105,0.9998519671579007,0.00017742882920810437
-0.4911407552237506,-0.4911407552237506,0.9999193203243454,0.00016453936029010662
-0.49100219119281974,-0.49100219119281974,1.0001570687496142,0.00017312549045523905
-0.49091096608754015,-0.49091096608754015,1.0000696978660253,0.00016927070229094646
-0.4907910153255216,-0.4907910153255216,0.9999078850861063,0.00017786159244582197
-0.4905840091378195,-0.4905840091378195,0.9999917686151134,0.00016736410805058934
-0.49046700749458977,-0.49046700749458977,1.000133739140249,0.00020213279471515718
-0.4902743916987674,-0.4902743916987674,0.9999875339490746,0.00016820528219910013
-0.49012015126500047,-0.49012015126500047,1.0000271949596324,0.00017924382890408967
-0.4899997092943522,-0.4899997092943522,0.9998906625429441,0.00016834125068549826
-0.48986949686368464,-0.48986949686368464,0.9996880424286759,0.00017798041193476803
-0.4895890962361591,-0.4895890962361591,1.000040117270872,0.00017143349589315564
-0.48944529265572784,-0.48944529265572784,0.9998641952436156,0.0001713471437284326
-0.4891763923122198,-0.4891763923122198,0.999978693386607,0.0001913978050222531
-0.48900311972538474,-0.48900311972538474,0.9999156352882224,0.00016942480405705577
-0.48889365726790857,-0.48889365726790857,0.9998631465625509,0.00017575179133345005
-0.4887890370664536,-0.4887890370664536,1.0000791520148598,0.0001721767182010171
-0.48868014741601656,-0.48868014741601656,0.9999692935246219,0.00017353246651756482
-0.48859290503314695,-0.48859290503314695,1.000262719330544,0.00017546156355606539
-0.4884985700598918,-0.4884985700598918,0.9997586039607889,0.00019258988031826382
-0.48843786818615625,-0.48843786818615625,1.0000528594843605,0.00018987919418314195
-0.4883348277609912,-0.4883348277609912,0.9999465409992053,0.0001724349885749945
-0.48825460409279914,-0.48825460409279914,1.000145182399745,0.00016982328481557915
-0.48817856325767933,-0.48817856325767933,1.0000189126255452,0.00016630829972393184
-0.4879194784662104,-0.4879194784662104,0.9999502866466159,0.0001655719400123724
-0.48779878704517615,-0.48779878704517615,0.9999598711837496,0.00017130608310003676
-0.4876398442662321,-0.4876398442662321,0.9998200099868398,0.00016882442295809854
-0.48756168444233483,-0.48756168444233483,1.0001560147565698,0.00017083893827027225
-0.4873833158169873,-0.4873833158169873,1.0000431551032396,0.00020802440940457978
-0.4872180559192202,-0.4872180559192202,1.00013150720156,0.0001654801016608061
-0.48707951078249606,-0.48707951078249606,1.0001013065039526,0.00017325756392136063
-0.48694370190205516,-0.48694370190205516,1.0001841566593197,0.0001660919723630122
-0.48671506496175426,-0.48671506496175426,1.0000772749554399,0.0001680728223698618
-0.48661373230279426,-0.48661373230279426,0.9999648422909486,0.00016452760450029504
-0.4865060838899808,-0.4865060838899808,1.0000112608491585,0.00017257521349188358
-0.4864197608607356,-0.4864197608607356,0.9999792330003832,0.00017030395624302293
-0.48638614621013404,-0.48638614621013404,1.0000560062600026,0.00016920328609148664
-0.48630610183172396,-0.48630610183172396,0.9999225550003341,0.00018071774949542983
-0.48619324024621163,-0.48619324024621163,1.0001120129911376,0.00017772486633957916
-0.48605485998850784,-0.48605485998850784,0.9998384595417452,0.00016728139855826514
-0.48598493604222315,-0.48598493604222315,1.0000107686975415,0.0001749749522751921
-0.48588208059081806,-0.48588208059081806,0.9998606690902154,0.00017703346481068855
-0.48582922607311047,-0.48582922607311047,0.9999398884232484,0.0001725185132886788
-0.48567680567211935,-0.48567680567211935,0.99995868198867,0.00017338720515036054
-0.48549474942556115,-0.48549474942556115,0.9999612543260801,0.00017370976062600164
-0.4852563022795948,-0.4852563022795948,0.9998475254108831,0.0001674959452133407
-0.48515583596308715,-0.48515583596308715,0.9998928984299242,0.00016477105934151895
-0.48504590360971633,-0.48504590360971633,0.9998272036286998,0.0001683510182266753
-0.48487021570763317,-0.48487021570763317,0.9997829306027473,0.0001710768878762078
-0.4846774932608241,-0.4846774932608241,0.9999026794645355,0.00016718026989776628
-0.48456548042740905,-0.48456548042740905,1.0001090882486714,0.00016952336928506242
-0.4844262988175615,-0.4844262988175615,1.0000796745635556,0.00017342858506404893
-0.48432911341806173,-0.48432911341806173,1.0000778232932992,0.00018055486184252156
-0.4841679196077166,-0.4841679196077166,1.0000881148495482,0.00016755364394910706
-0.48402052513556554,-0.48402052513556554,1.0000281644588382,0.00017008944714953493
-0.4839176660301746,-0.4839176660301746,0.9999320091524033,0.000177943617438682
-0.4838536844705231,-0.4838536844705231,1.0000427709165414,0.00017546967865187356
-0.48377235324005596,-0.48377235324005596,1.000088081074144,0.000179110691449338
-0.4837113684916403,-0.4837113684916403,0.9999651769618112,0.0001770583715772546
-0.4836146559580811,-0.4836146559580811,0.9998916585859746,0.00017034123984744734
-0.483513530754135,-0.483513530754135,0.9998251592143355,0.00017447572085189407
-0.4833989259481314,-0.4833989259481314,0.9998861344595922,0.0001796318364472602
-0.483274655637797,-0.483274655637797,1.0002286346755678,0.00018730372008448438
-0.4830879805376753,-0.4830879805376753,1.0000310020132173,0.00016956520793922036
-0.48294444057682995,-0.48294444057682995,1.000211851702448,0.00017679375708792874
-0.4828753541209153,-0.4828753541209153,0.9999784576609857,0.00017087912459201252
-0.4827557469339808,-0.4827557469339808,1.0000069016717554,0.00016834216686139025
-0.48260667307913535,-0.48260667307913535,0.9999751851934556,0.0001672986131153139
-0.48240018785727445,-0.48240018785727445,1.0003092676553638,0.0001735525304167206
-0.4822782520132023,-0.4822782520132023,0.9998601900467665,0.00017664847944346456
-0.482147458154941,-0.482147458154941,0.9999611588100367,0.00017473884228407245
-0.48202026978106005,-0.48202026978106005,0.9999183767391282,0.00017629432807254953
-0.48187904017831895,-0.48187904017831895,0.9999811667102291,0.0001738582285769287
-0.4816804727946874,-0.4816804727946874,1.0001111668475775,0.00017222455946236626
-0.4815909344892134,-0.4815909344892134,1.0000347356171384,0.00017442265947502228
-0.48149651345156597,-0.48149651345156597,0.9998182780133085,0.00018154193596042815
-0.48142021687090164,-0.48142021687090164,0.9999159093295005,0.00017823591861811447
-0.4812473693295033,-0.4812473693295033,1.0001576814676583,0.00017515559822293392
-0.48106125986087134,-0.48106125986087134,1.0000728663812728,0.00017327464405704563
-0.480935411581595,-0.480935411581595,0.9998153821823156,0.00017555267544025547
-0.4808510210496024,-0.4808510210496024,1.0001034497776886,0.0001717140028220428
-0.48072296696773265,-0.48072296696773265,0.9999374300822609,0.00016746522826297606
-0.480501758644823,-0.480501758644823,0.9998357239685394,0.00017031835570909638
-0.4803144070596318,-0.4803144070596318,1.0001095739806403,0.00017796498977104173
-0.4801968999076053,-0.4801968999076053,1.0000104031677703,0.00016188049993165918
-0.4800659893866396,-0.4800659893866396,0.9999246429035153,0.00017911621686012984
-0.47987400965794225,-0.47987400965794225,1.0002130564013325,0.00017755448379316966
-0.47969275441719217,-0.47969275441719217,1.0000708668398015,0.00017408643172465044
-0.47954370472289154,-0.47954370472289154,1.0001835426315666,0.00017040226886801086
-0.47944381046690976,-0.47944381046690976,1.000122717927375,0.00016669395771062458
-0.47929894767876247,-0.47929894767876247,0.999977672966204,0.0001800948941806199
-0.47918741373723606,-0.47918741373723606,0.9998334028679896,0.00016724196338406807
-0.47906745424261316,-0.47906745424261316,0.9999012589066482,0.00017016844858080792
-0.47898691955633693,-0.47898691955633693,0.9999172911643658,0.00017207593222635367
-0.4788995080365567,-0.4788995080365567,0.9999365780090337,0.00019004792372852574
-0.47885913316276857,-0.47885913316276857,0.9999420099274735,0.00017367326040189598
-0.47877240925154185,-0.47877240925154185,0.9999636948289966,0.00017718346436230574
-0.4786952678405214,-0.4786952678405214,1.0000324402873153,0.00019041610922313873
-0.47861619829927804,-0.47861619829927804,0.9998850991955337,0.00017189149695792406
-0.47852187432872595,-0.47852187432872595,1.0000760951282155,0.00017397297965471824
-0.47838322885800155,-0.47838322885800155,0.9997022946672042,0.00018801724686283368
-0.4782521325119887,-0.4782521325119887,0.999992456705462,0.00017016436786301752
-0.47807403440674534,-0.47807403440674534,0.9998684891642553,0.00017859219315669803
-0.47798429673712234,-0.47798429673712234,1.0000272177483294,0.00019295480765349962
-0.47787429999152664,-0.47787429999152664,0.9999890828300207,0.00016935594314543783
-0.477659814224171,-0.477659814224171,0.9999773318616153,0.00017593160029014327
-0.47755030760599765,-0.47755030760599765,0.9998905109847482,0.00019183044948587252
-0.4773871834739111,-0.4773871834739111,1.0001605381206318,0.00017885177340816016
-0.47722729089437055,-0.47722729089437055,0.9999989821768723,0.00016489040380937778
-0.47710188296769046,-0.47710188296769046,0.9999338784404042,0.00016168919156075336
-0.47692544761375755,-0.47692544761375755,0.9998701687128666,0.0001678907738266202
-0.47682310378586407,-0.47682310378586407,1.0002279642716403,0.00018701572431400578
-0.47669731967907863,-0.47669731967907863,1.0000542407599637,0.0001745799612030549
-0.47652764241211115,-0.47652764241211115,0.9999870292108086,0.00017148391180516674
-0.4764699258375913,-0.4764699258375913,1.0000008197465067,0.0001692688889042156
-0.47641609545244135,-0.47641609545244135,1.0002160426917517,0.000168046847767357
-0.4763359584787395,-0.4763359584787395,1.0001878617133155,0.00017120906267495162
-0.47624066839925944,-0.47624066839925944,1.0001600142561737,0.00017301039522669008
-0.47611252750502897,-0.47611252750502897,1.0001299632497633,0.00017385811171761713
-0.476000128009764,-0.476000128009764,0.9997401034875164,0.00019412477597214927
-0.4759224020453985,-0.4759224020453985,1.0005613089411451,0.00017647681205622013
-0.47580186583509204,-0.47580186583509204,0.9999005264307973,0.00017627252033149132
-0.4755256893899059,-0.4755256893899059,0.9999218170919498,0.00016583895969602818
-0.4754211107836454,-0.4754211107836454,0.9997620229475253,0.00017596143934573764
-0.47532061865349534,-0.47532061865349534,0.9998644493812192,0.000181160881655845
-0.4752170963271055,-0.4752170963271055,0.9998963097313294,0.0001680616316216872
-0.4749415732338093,-0.4749415732338093,1.0001008386286352,0.00016647167435175056
-0.4747921591857448,-0.4747921591857448,1.0001967881589622,0.00019213523073248237
-0.4745899752466357,-0.4745899752466357,1.0001431432894947,0.0001728880899092423
-0.474424814437225,-0.474424814437225,0.9999943807902572,0.0001731330275094827
-0.47434966415312374,-0.47434966415312374,1.000099061691229,0.0001673523612284062
-0.4742170938523486,-0.4742170938523486,0.9999403866108862,0.00017316584009573682
-0.4741153131792089,-0.4741153131792089,0.9997659449897796,0.0001637930604914245
-0.4740637234324822,-0.4740637234324822,1.0000691431962327,0.00017856705877734654
-0.47400591206096576,-0.47400591206096576,1.00033499908359,0.0001712163350243169
-0.4739148690379807,-0.4739148690379807,1.0004163572545095,0.0001827542632192192
-0.47388772840204185,-0.47388772840204185,0.9999966311097334,0.0001810601651745679
-0.47378718276449944,-0.47378718276449944,1.0001519378227697,0.00017464399383093193
-0.47370585237513296,-0.47370585237513296,0.9998763978070802,0.00017233278094773557
-0.47357494488096563,-0.47357494488096563,0.999718236612663,0.00018380251225186498
-0.47344960859336427,-0.47344960859336427,0.9997227733141099,0.00017403146958338945
-0.4732554736896418,-0.4732554736896418,0.9999994852565756,0.00019176716665015848
-0.473121843408444,-0.473121843408444,0.9999264925952881,0.00017430837665964577
-0.4730289380357135,-0.4730289380357135,0.9998480679168467,0.0001767587204332374
-0.4728733787385863,-0.4728733787385863,0.9998924369939562,0.00016994900676770537
-0.47261830055504106,-0.47261830055504106,1.0000857820546298,0.0001983266816716959
-0.47246062898193486,-0.47246062898193486,0.9998298784552693,0.00017506936480093027
-0.4723033100453904,-0.4723033100453904,0.9997938410932303,0.0001660487733099138
-0.4721256549557438,-0.4721256549557438,1.0000002696654335,0.00016934018874370966
-0.4720312849720358,-0.4720312849720358,0.999679246040286,0.00016523550420354078
-0.47190208886167967,-0.47190208886167967,1.0000989403224114,0.00017360678195357362
-0.47180496635701274,-0.47180496635701274,1.0001106567547253,0.0001661894743745514
-0.4717176378675504,-0.4717176378675504,1.0002228009185248,0.00016926522284573848
-0.47162023729179053,-0.47162023729179053,0.9999053148860548,0.00018074104225744862
-0.4715232484668377,-0.4715232484668377,1.0000302418976266,0.00017805611656908062
-0.47139652240875873,-0.47139652240875873,1.0000568158586929,0.00017857510761455465
-0.4713173816984636,-0.4713173816984636,0.9999189661541911,0.00017928999026780562
-0.47121647743333595,-0.47121647743333595,1.0000344277398385,0.0001751211169731568
-0.47110033417848174,-0.47110033417848174,1.0001207889233206,0.00017732456008597513
-0.47093252960185056,-0.47093252960185056,1.0000902464089303,0.00018274815770358722
-0.47070697337185263,-0.47070697337185263,1.000157523088287,0.00016875949139093612
-0.47053703731507995,-0.47053703731507995,1.0000107227551864,0.0001664692793849331
-0.47043204619403695,-0.47043204619403695,1.0000098698919657,0.0001675367194854577
-0.47034228851116494,-0.47034228851116494,1.0002425083418338,0.00017333278758192367
-0.4701376367898774,-0.4701376367898774,0.9999353675408985,0.000168943150076209
-0.469997679698281,-0.469997679698281,1.0001697807168892,0.00016742530649358045
-0.4698456536847516,-0.4698456536847516,0.999899165067385,0.0001726842922898642
-0.4697708383653662,-0.4697708383653662,1.0001086226092875,0.00017238087530492156
-0.46965557835501387,-0.46965557835501387,1.0000967042207436,0.00016664740127517129
-0.46950959979876644,-0.46950959979876644,1.0001235961159396,0.00016431316431794488
-0.4693912740811356,-0.4693912740811356,1.0000540347647013,0.00017814177779559926
-0.4692858454582165,-0.4692858454582165,0.9998035568995067,0.0001740065615539728
