time,time,flux,flux_err
-0.499313331542362,-0.499313331542362,1.0000433058520923,8.69003139428417e-05
-0.4973748065051041,-0.4973748065051041,1.0000735305902686,8.690096917113893e-05
-0.4957138923920866,-0.4957138923920866,0.9999680897192071,8.702168320141652e-05
-0.49406050188044903,-0.49406050188044903,0.9998979218066582,8.699067590054749e-05
-0.49218517550325486,-0.49218517550325486,0.9998105371487662,8.700301087684232e-05
-0.4905499157437589,-0.4905499157437589,0.9999968066965057,8.711246733283969e-05
-0.4893982122950547,-0.4893982122950547,1.0000068337941936,8.780972176365516e-05
-0.488273274837411,-0.488273274837411,0.9999536441596693,8.697611301354485e-05
-0.4868907590964227,-0.4868907590964227,0.9998919877879026,8.692262677161057e-05
-0.4851461336154898,-0.4851461336154898,0.9999365526539536,8.735267864147785e-05
-0.4830202345532598,-0.4830202345532598,0.9999643553614254,8.692906411294806e-05
-0.4812112475876347,-0.4812112475876347,1.0001158231833762,8.698164167963851e-05
-0.4791313912181067,-0.4791313912181067,1.000080578497527,8.70549806095734e-05
-0.47777088403818196,-0.47777088403818196,0.9999925127820536,8.69981739383613e-05
-0.47640421814649014,-0.47640421814649014,0.9998702046368828,8.69611353417396e-05
-0.4751177477643068,-0.4751177477643068,1.0000707311859816,8.724343749815442e-05
-0.47380283719976435,-0.47380283719976435,0.9998185152074732,8.71922801689978e-05
-0.47220294515864225,-0.47220294515864225,0.9999932602036822,8.692185692016835e-05
-0.4704708183031471,-0.4704708183031471,0.999961974132489,8.689638593944307e-05
-0.4689117615016585,-0.4689117615016585,0.9998935832560752,8.697673740211288e-05
-0.4672318332050054,-0.4672318332050054,0.9998780180856391,8.702271574019921e-05
-0.465531832761917,-0.465531832761917,0.9999061427047933,8.69762876713925e-05
-0.46434937075828203,-0.46434937075828203,0.9999180809071897,8.708370635076567e-05
-0.463112839092355,-0.463112839092355,1.000058283939344,8.764340935406027e-05
-0.46170827370588086,-0.46170827370588086,1.0000358577548272,8.695385043339546e-05
-0.460339144532918,-0.460339144532918,1.0001273504009691,8.759502434392602e-05
-0.4585753851381014,-0.4585753851381014,0.9999881694495392,8.731090995769522e-05
-0.45633709399262445,-0.45633709399262445,1.0000145135220948,8.695052648175808e-05
-0.4545322597994527,-0.4545322597994527,0.9999769954199227,8.692533058944563e-05
-0.4526587670203298,-0.4526587670203298,1.000078708039722,8.701761557656624e-05
-0.4512592629711435,-0.4512592629711435,0.9998848219688359,8.701113219526073e-05
-0.4499465102257091,-0.4499465102257091,1.0000248081354128,8.720573070773667e-05
-0.4485500207127188,-0.4485500207127188,0.9999217446133188,8.713109047208463e-05
-0.4473275502583419,-0.4473275502583419,1.0000360328865525,8.692837272717744e-05
-0.4456610028792056,-0.4456610028792056,1.0000880319577063,8.689454599669162e-05
-0.44364169416148796,-0.44364169416148796,0.9999328803104209,8.6997274222412e-05
-0.4420505079993745,-0.4420505079993745,1.000046243989853,8.690646288502893e-05
-0.44031316326145314,-0.44031316326145314,1.0000622177440586,8.6992658245524e-05
-0.4384246342968254,-0.4384246342968254,0.9999376580249837,8.706782192640903e-05
-0.43695474258929606,-0.43695474258929606,1.0001071599456204,8.704722848551013e-05
-0.4358753551990958,-0.4358753551990958,0.9999928387717556,8.695344829317544e-05
-0.4343865238624858,-0.4343865238624858,1.0001421731601081,8.746670595746322e-05
-0.43303958568358214,-0.43303958568358214,0.9998568448427058,8.723002221540703e-05
-0.4311411167043843,-0.4311411167043843,0.9999623547793762,8.691235232005819e-05
-0.4290889099967899,-0.4290889099967899,0.9999547099273507,8.706991630759473e-05
-0.42745913733524504,-0.42745913733524504,0.9999494125238773,8.691121930647774e-05
-0.4255848065520695,-0.4255848065520695,0.9999534199615084,8.707654530048275e-05
-0.4240085379904485,-0.4240085379904485,1.0000023868400443,8.694018347688517e-05
-0.4226388144801604,-0.4226388144801604,0.9999759487610366,8.795412306737479e-05
-0.42144618586462457,-0.42144618586462457,0.9999316728706195,8.720597899277174e-05
-0.42012101653890566,-0.42012101653890566,0.9999643751520951,8.691362952314013e-05
-0.4184001638102927,-0.4184001638102927,0.9999799405211285,8.743214289824472e-05
-0.41689622761987266,-0.41689622761987266,0.9999989031130101,8.694200763749785e-05
-0.415105993294128,-0.415105993294128,1.0000046639700464,8.697656424328922e-05
-0.4133474038368149,-0.4133474038368149,1.0000152839083696,8.695166879481387e-05
-0.4117617848496593,-0.4117617848496593,0.9999539868227225,8.78696264494175e-05
-0.41035833081332385,-0.41035833081332385,0.9999362497693008,8.700791565060829e-05
-0.40906275590969016,-0.40906275590969016,0.9999771400255566,8.739093796356938e-05
-0.4077809682719817,-0.4077809682719817,0.9999766248487229,8.689085981205194e-05
-0.4062070672247501,-0.4062070672247501,0.999847584904414,8.718582679948947e-05
-0.40445088411943286,-0.40445088411943286,1.0000340682415376,8.688908855844043e-05
-0.4028063429992471,-0.4028063429992471,0.9999639053834919,8.700211294478156e-05
-0.40153166196760137,-0.40153166196760137,0.9999670004127095,8.691231244008933e-05
-0.39964053603471256,-0.39964053603471256,0.9999624219210126,8.705533671821413e-05
-0.39781098116363867,-0.39781098116363867,0.9998540281309113,8.691831406013351e-05
-0.3964399592470727,-0.3964399592470727,0.9999309156284106,8.781456449708716e-05
-0.39524363010859814,-0.39524363010859814,1.000000552572471,8.712930341488003e-05
-0.39392286643051194,-0.39392286643051194,0.9999308021518933,8.692204751384723e-05
-0.39219594257010615,-0.39219594257010615,0.9999524024503026,8.737533738885237e-05
-0.390246447899699,-0.390246447899699,1.000080557709094,8.69204079072091e-05
-0.38826735778711735,-0.38826735778711735,0.9999913017293558,8.695911579855395e-05
-0.38613425853764055,-0.38613425853764055,1.0000190154636053,8.693308171195813e-05
-0.38471779996107214,-0.38471779996107214,0.9999931872661865,8.715670698885359e-05
-0.3834780801233137,-0.3834780801233137,0.9999665625783264,8.692154539355302e-05
-0.38202146323455966,-0.38202146323455966,0.9999333007847874,8.726123994195516e-05
-0.3810297792741039,-0.3810297792741039,1.0000554147142138,8.717642236061592e-05
-0.37956591164183917,-0.37956591164183917,0.9999604239708946,8.690600772677827e-05
-0.3778859383681265,-0.3778859383681265,1.0000352516791895,8.68941246811681e-05
-0.3762237663890119,-0.3762237663890119,0.9998927970549399,8.699786925390684e-05
-0.3745598218527448,-0.3745598218527448,1.0001433174650838,8.701338109148797e-05
-0.3729481997746916,-0.3729481997746916,1.0000133604803714,8.69355446170642e-05
-0.37153808662042137,-0.37153808662042137,0.999919759922143,8.695028220057814e-05
-0.3702412086109689,-0.3702412086109689,0.9999236973008786,8.76482403461718e-05
-0.3690411571675213,-0.3690411571675213,0.9999629459175813,8.708299473699537e-05
-0.3676241420747829,-0.3676241420747829,1.0000718598145029,8.756794997649867e-05
-0.3659918226694572,-0.3659918226694572,0.9999431950574479,8.730106987586064e-05
-0.36404835084613296,-0.36404835084613296,0.9999829281886565,8.6894568255279e-05
-0.361965180165862,-0.361965180165862,0.9999168551038087,8.694363813001127e-05
-0.35993508128012763,-0.35993508128012763,1.0000084739207453,8.690621542581404e-05
-0.35851969589712096,-0.35851969589712096,0.9999919827105478,8.709146580856462e-05
-0.35727970106818246,-0.35727970106818246,0.9999553579945688,8.695117355444378e-05
-0.35580143303304795,-0.35580143303304795,1.0000362368874125,8.818700923255636e-05
-0.35482878139446256,-0.35482878139446256,1.00011572197225,8.714659489644319e-05
-0.35336676290389735,-0.35336676290389735,0.9999256312779738,8.689722176391605e-05
-0.35151835615033633,-0.35151835615033633,0.9998166102650172,8.693923069358879e-05
-0.34980248213760207,-0.34980248213760207,0.999946977275165,8.697031261847496e-05
-0.3480220441000711,-0.3480220441000711,1.0000494517042373,8.698545185641948e-05
-0.34625170533036,-0.34625170533036,0.9999325342547903,8.692669870620279e-05
-0.3445000422500016,-0.3445000422500016,0.9999572887623265,8.704810423570288e-05
-0.34326279670058285,-0.34326279670058285,1.00001818832821,8.700891620083302e-05
-0.34197543693662735,-0.34197543693662735,0.999858200075624,8.749503788199556e-05
-0.3405901448939403,-0.3405901448939403,1.0000827464430304,8.725110146824972e-05
-0.3385915312312136,-0.3385915312312136,1.0000734252013697,8.690070006495688e-05
-0.33648402255857945,-0.33648402255857945,0.999960714223983,8.695863413606925e-05
-0.33495046409370843,-0.33495046409370843,0.9999405118932971,8.700466674859748e-05
-0.3331012219248805,-0.3331012219248805,1.0000178621490279,8.699712462035487e-05
-0.33159907547960754,-0.33159907547960754,1.0000829733880388,8.698095055480322e-05
-0.33016870096034834,-0.33016870096034834,1.0000601186321252,8.713492601558626e-05
-0.32892454283282857,-0.32892454283282857,1.0000748796758447,8.792814232511844e-05
-0.32761729195190126,-0.32761729195190126,1.000063241967036,8.698157376486324e-05
-0.3261672066691972,-0.3261672066691972,0.9999638335083889,8.692749542739674e-05
-0.32444757281627973,-0.32444757281627973,0.9998508576795576,8.744990887265656e-05
-0.32300599107475136,-0.32300599107475136,1.0001382071401226,8.687943941809893e-05
-0.32117678467257066,-0.32117678467257066,1.0000086793265313,8.696235331253739e-05
-0.31904270450831973,-0.31904270450831973,1.000124821750428,8.694037148603508e-05
-0.3176252870791359,-0.3176252870791359,1.0001823921008035,8.714266620327671e-05
-0.3163858489919221,-0.3163858489919221,1.0000759958792618,8.691691438714702e-05
-0.3149317869130755,-0.3149317869130755,0.9999036055613827,8.733133837454339e-05
-0.31361812469694994,-0.31361812469694994,1.0000294152508236,8.72431682865201e-05
-0.3118198306387058,-0.3118198306387058,0.9999656213837931,8.692358600847836e-05
-0.3100905858889746,-0.3100905858889746,0.9999444386819155,8.690553032554724e-05
-0.3085331487673102,-0.3085331487673102,0.9999915510202525,8.696971587114394e-05
-0.30677347369201013,-0.30677347369201013,0.9999889871233311,8.70192851215832e-05
-0.30491729745190244,-0.30491729745190244,1.0000399642903381,8.70426244060596e-05
-0.30365543457955935,-0.30365543457955935,0.9999839490261703,8.859805795182649e-05
-0.30243277027038856,-0.30243277027038856,1.0000461756419756,8.708479650175325e-05
-0.30119117090143843,-0.30119117090143843,1.0000670636018767,8.699635829239825e-05
-0.2996974200679688,-0.2996974200679688,1.0001047589446699,8.735953441959152e-05
-0.29769987765030237,-0.29769987765030237,1.0000019696196558,8.688886793532842e-05
-0.2956069121784822,-0.2956069121784822,1.0000212360103191,8.695782483345497e-05
-0.2941197070897033,-0.2941197070897033,0.9999409605084935,8.692215209793301e-05
-0.29227880684265983,-0.29227880684265983,0.9999587091341166,8.7031681130387e-05
-0.29087309585520416,-0.29087309585520416,1.000013526226556,8.701589093146498e-05
-0.2895676913183706,-0.2895676913183706,1.0000156625018917,8.726562702194915e-05
-0.2881645695983025,-0.2881645695983025,0.9998670289106034,8.689689375850858e-05
-0.2869448272685986,-0.2869448272685986,0.9999478583023311,8.71946845369845e-05
-0.2852814550686162,-0.2852814550686162,1.0000910995621994,8.692738590692632e-05
-0.2835626341722673,-0.2835626341722673,0.9999537105808181,8.697318487303472e-05
-0.28203683909523536,-0.28203683909523536,1.0001056236860428,8.688388935260217e-05
-0.28028708983474643,-0.28028708983474643,0.9997837579665086,8.697920239593838e-05
-0.27864933758755794,-0.27864933758755794,1.000085959887332,8.696045874517167e-05
-0.2770438591753191,-0.2770438591753191,0.9998868275654067,8.704985581048952e-05
-0.2757500275154598,-0.2757500275154598,1.0000052692483405,8.71035059635332e-05
-0.27433322441211205,-0.27433322441211205,0.9999862474660736,8.755280474962981e-05
-0.27270054443433767,-0.27270054443433767,1.0000593338680475,8.729382147372858e-05
-0.2707576213040738,-0.2707576213040738,1.0001170162661748,8.692764670347939e-05
-0.26867385118166565,-0.26867385118166565,1.0000684111711522,8.695761671639264e-05
-0.26664425364651834,-0.26664425364651834,0.9999811915062548,8.692545671028936e-05
-0.2652289666017168,-0.2652289666017168,0.999869064940652,8.711703632109096e-05
-0.2639889485028107,-0.2639889485028107,1.0001524247363116,8.695612767313957e-05
-0.26279192189686,-0.26279192189686,0.9999218574662857,8.816883033122777e-05
-0.2615377861140587,-0.2615377861140587,1.0000957437174371,8.717827997690582e-05
-0.26007594057155076,-0.26007594057155076,1.0000304663607884,8.689776113825979e-05
-0.2584368128707865,-0.2584368128707865,1.0000199231590492,8.751937537267922e-05
-0.2567998367230757,-0.2567998367230757,1.0000347603257957,8.699491444671333e-05
-0.2551524411261198,-0.2551524411261198,1.0001320607611472,8.691816279139432e-05
-0.253731999181764,-0.253731999181764,0.9998696932064381,8.694231388732231e-05
-0.25184228951402476,-0.25184228951402476,0.9999974785983248,8.704074856539852e-05
-0.2502938053010439,-0.2502938053010439,0.9999888206192212,8.69844163886056e-05
-0.24892833147168858,-0.24892833147168858,1.000094049696901,8.697242627008899e-05
-0.2475532135729736,-0.2475532135729736,0.9998775673413688,8.745484148006676e-05
-0.24579218760190996,-0.24579218760190996,0.9998275042851326,8.727188894243507e-05
-0.2435495591147628,-0.2435495591147628,0.9999906404209511,8.698101922337109e-05
-0.24203117414581357,-0.24203117414581357,0.9999365787928971,8.699813905981462e-05
-0.24007428654222168,-0.24007428654222168,1.0000727461462486,8.700717411065894e-05
-0.23865769069016096,-0.23865769069016096,1.0000322909652857,8.70102412964036e-05
-0.23716054723627167,-0.23716054723627167,1.000033862970534,8.715682124333239e-05
-0.23582092538272265,-0.23582092538272265,0.9998917331850572,8.792249624630856e-05
-0.2345999421850138,-0.2345999421850138,0.9999034509530105,8.697431386327152e-05
-0.23321868819984956,-0.23321868819984956,1.0000111549351778,8.690310008273786e-05
-0.2314747660930152,-0.2314747660930152,0.9999780922791166,8.739156531513432e-05
-0.2300118853818276,-0.2300118853818276,0.9999108654361952,8.696106686171583e-05
-0.22823855788446962,-0.22823855788446962,1.0000623367652217,8.696651704115667e-05
-0.22622535898335627,-0.22622535898335627,1.0001521161561515,8.69036880915931e-05
-0.22457539127062773,-0.22457539127062773,1.0000153104704308,8.71473014804933e-05
-0.22334061502624536,-0.22334061502624536,0.9999647877374608,8.6968592681801e-05
-0.2219334153334785,-0.2219334153334785,1.0000229048860956,8.729368585256894e-05
-0.22069804534039578,-0.22069804534039578,0.9999654386572672,8.720035398010126e-05
-0.21884422868824913,-0.21884422868824913,1.000018975352003,8.685743715721814e-05
-0.2171489741987898,-0.2171489741987898,1.0000434356480103,8.694564575608856e-05
-0.21553012475415018,-0.21553012475415018,0.9999912748288825,8.699244067863868e-05
-0.21385453431648785,-0.21385453431648785,1.0000076307459609,8.698039374875984e-05
-0.21168663961070705,-0.21168663961070705,1.000063436002108,8.692681458894937e-05
-0.21020777297890164,-0.21020777297890164,0.9999337197288926,8.779220631728846e-05
-0.20914229015252203,-0.20914229015252203,0.9999967719054987,8.707140780181647e-05
-0.20790007732721277,-0.20790007732721277,0.9999907705202171,8.695890908630999e-05
-0.20666902186712832,-0.20666902186712832,1.0000945644231076,8.769311479902535e-05
-0.20490360474650515,-0.20490360474650515,1.0000231498508756,8.734941722053043e-05
-0.20266795745046692,-0.20266795745046692,1.000057479079576,8.699217620288384e-05
-0.2011940615142521,-0.2011940615142521,1.0001445513824585,8.691182773275222e-05
-0.1992572647468478,-0.1992572647468478,0.9999337706917337,8.701799568637159e-05
-0.19789888531813632,-0.19789888531813632,0.9998965858176723,8.703213721296526e-05
-0.19653203726993523,-0.19653203726993523,1.0000768865441685,8.693197670704583e-05
-0.1951167216800968,-0.1951167216800968,1.000009650364332,8.72081951751316e-05
-0.19393020316856563,-0.19393020316856563,1.000148156374102,8.717999911847049e-05
-0.19232987638315535,-0.19232987638315535,1.0001038445620039,8.688080472310585e-05
-0.1905975826244685,-0.1905975826244685,0.9999380625223292,8.693623157290603e-05
-0.18903798258688767,-0.18903798258688767,0.9999911433806252,8.694941755428037e-05
-0.1873583052722097,-0.1873583052722097,1.0001118841545502,8.70060800900159e-05
-0.18565250364044913,-0.18565250364044913,0.9999917429440511,8.698949516019967e-05
-0.18411804427596506,-0.18411804427596506,1.00003142012518,8.70552433530904e-05
-0.1827265657724638,-0.1827265657724638,0.9999382838236606,8.706996060916249e-05
-0.1813019305074704,-0.1813019305074704,0.9999432681583118,8.757992524449403e-05
-0.17983700606273487,-0.17983700606273487,0.9999065910390259,8.728062490023592e-05
-0.17780193817598047,-0.17780193817598047,0.9998961565215483,8.689526780244739e-05
-0.17575430059659994,-0.17575430059659994,1.0000407834852194,8.696322705418088e-05
-0.17380586411527474,-0.17380586411527474,0.9999637561599999,8.692654240602603e-05
-0.1721710676960356,-0.1721710676960356,0.9999983189289084,8.711323648010292e-05
-0.1709381936430873,-0.1709381936430873,1.0000865947129756,8.697121665218903e-05
-0.16951520199800144,-0.16951520199800144,0.9998697574629046,8.813274169766283e-05
-0.16824679233177448,-0.16824679233177448,0.9999353989623107,8.714644790797289e-05
-0.16678511923964834,-0.16678511923964834,1.0000079162099085,8.689729300943566e-05
-0.16514589615981096,-0.16514589615981096,0.9998333288659843,8.74894692711727e-05
-0.1635086700822285,-0.1635086700822285,0.9999618625685798,8.69676717713999e-05
-0.16214291648357176,-0.16214291648357176,0.9999578347127398,8.691304608975747e-05
-0.16044141927050076,-0.16044141927050076,0.9999301107256129,8.695716496472877e-05
-0.15874383965347078,-0.15874383965347078,0.9999219641937076,8.786665164285474e-05
-0.15724211997076054,-0.15724211997076054,0.9999366820471745,8.716604586218017e-05
-0.15600296012780746,-0.15600296012780746,1.0000790790312932,8.694952764515352e-05
-0.15451302845831377,-0.15451302845831377,0.9998585167395614,8.742102928036501e-05
-0.15286961803940358,-0.15286961803940358,1.000101143369661,8.723421419944444e-05
-0.15085769702927793,-0.15085769702927793,1.0000397433950783,8.691835533822939e-05
-0.14921598108994658,-0.14921598108994658,0.9999243827862472,8.701741975086738e-05
-0.14758516600486474,-0.14758516600486474,0.9998991708841523,8.690369756230251e-05
-0.14604972875167732,-0.14604972875167732,1.0000200225529814,8.700778008608782e-05
-0.14453082757099764,-0.14453082757099764,1.000007395035842,8.703826174666338e-05
-0.1429728203402192,-0.1429728203402192,0.9998937512585095,8.79032413030772e-05
-0.14183641673153033,-0.14183641673153033,0.999954134395464,8.712078959622138e-05
-0.14051142469324987,-0.14051142469324987,1.0000091501378228,8.694324376841908e-05
-0.13894587139366193,-0.13894587139366193,0.9999904972271789,8.737084268318201e-05
-0.1370589960628422,-0.1370589960628422,1.000003874801791,8.691440450508099e-05
-0.13523120437384933,-0.13523120437384933,1.0000396723533422,8.69727803049285e-05
-0.13347613387813909,-0.13347613387813909,0.9997999131645698,8.688733273941089e-05
-0.1315267349658825,-0.1315267349658825,0.9999991660147408,8.705564245177648e-05
-0.13030326935549966,-0.13030326935549966,1.0000730491773446,8.706775544539691e-05
-0.12918897225245018,-0.12918897225245018,0.9999715326307568,8.735517523600647e-05
-0.12790911293122917,-0.12790911293122917,0.9999934534160321,8.691424848194441e-05
-0.126335064007435,-0.126335064007435,0.9999429989978716,8.718775980322965e-05
-0.1245788453707064,-0.1245788453707064,0.9999694923251139,8.690816676895202e-05
-0.12288368100780644,-0.12288368100780644,1.0001464952288164,8.701864783079144e-05
-0.12120670758667984,-0.12120670758667984,1.0000514165417467,8.692820581978002e-05
-0.11938917117440724,-0.11938917117440724,1.0000014238001806,8.696859919146523e-05
-0.11766602136922302,-0.11766602136922302,0.9999837236396377,8.71033893900689e-05
-0.11633622214358183,-0.11633622214358183,1.0001283197528466,8.774203162955862e-05
