time,time,flux,flux_err
-0.49960736036882736,-0.49960736036882736,0.9999862986411479,3.587007338687468e-05
-0.49870923339476575,-0.49870923339476575,0.9999671315912618,3.587590345350746e-05
-0.4971138536930084,-0.4971138536930084,0.9999161044271412,3.589260828871633e-05
-0.4954329475411214,-0.4954329475411214,1.0000351251850466,3.58716254335403e-05
-0.49403008121880704,-0.49403008121880704,1.0000341716179528,3.588430276586323e-05
-0.4916337268339703,-0.4916337268339703,0.9999722752173479,3.5885292634451345e-05
-0.4899032251589233,-0.4899032251589233,0.9999920028966116,3.5883920431240505e-05
-0.48816702715703286,-0.48816702715703286,0.999999686788904,3.58764257028119e-05
-0.4868214240661473,-0.4868214240661473,0.9999417813253876,3.587982091535288e-05
-0.48510146350308786,-0.48510146350308786,1.0000069081823908,3.590779630549926e-05
-0.48359239207638893,-0.48359239207638893,0.9999282747858933,3.5872928525529195e-05
-0.48217566579696725,-0.48217566579696725,1.0000526208544573,3.5882125699721546e-05
-0.480164757030434,-0.480164757030434,0.9999054925979408,3.5881122028406115e-05
-0.47841443499783054,-0.47841443499783054,0.9999615858160864,3.5882433860509523e-05
-0.47638687076978387,-0.47638687076978387,1.0000015451446393,3.5879901112201004e-05
-0.47462909765308725,-0.47462909765308725,1.000087628920444,3.58781335945114e-05
-0.4726813562476309,-0.4726813562476309,0.9999700182815179,3.587744303326767e-05
-0.4713363979084534,-0.4713363979084534,1.0000666183250262,3.587851407825912e-05
-0.46991777982620986,-0.46991777982620986,1.0000343277456087,3.588600676756228e-05
-0.4679266178631224,-0.4679266178631224,0.999960272544454,3.586731675049339e-05
-0.46667081946798133,-0.46667081946798133,1.0000001577829516,3.58852088074193e-05
-0.46420083653065375,-0.46420083653065375,1.000071293955036,3.588502194598915e-05
-0.4622595799039118,-0.4622595799039118,0.9999987862998421,3.5885011261089107e-05
-0.4604821912042098,-0.4604821912042098,1.000005974851861,3.58811021374866e-05
-0.4591249048695317,-0.4591249048695317,0.9999869118693268,3.587397343388977e-05
-0.45732034046086484,-0.45732034046086484,0.9999429847101068,3.589831765199717e-05
-0.45604171844315716,-0.45604171844315716,1.0000326083473685,3.5877408359608703e-05
-0.4547163294191705,-0.4547163294191705,1.000052791781304,3.587698457609599e-05
-0.45251489031652453,-0.45251489031652453,1.0000523081306392,3.5887431664248776e-05
-0.45078120335238053,-0.45078120335238053,0.9999861467048689,3.588247536744893e-05
-0.4484848467516713,-0.4484848467516713,1.0000147131269395,3.5881385527932384e-05
-0.44665209769736974,-0.44665209769736974,0.9999504171198085,3.5886312473888535e-05
-0.44462184567237273,-0.44462184567237273,1.0000429007436606,3.58803134887724e-05
-0.44347067971539217,-0.44347067971539217,1.0000047862843453,3.5872391267862116e-05
-0.4416169176081894,-0.4416169176081894,0.999974427940837,3.588016999396969e-05
-0.4399635474808747,-0.4399635474808747,1.0000308149409123,3.588344455019934e-05
-0.4382001487218076,-0.4382001487218076,1.0000135029893376,3.588080759299821e-05
-0.4362031698576175,-0.4362031698576175,0.9999987242974886,3.587929878473959e-05
-0.43451100559323097,-0.43451100559323097,0.9999837479910259,3.5886295058105046e-05
-0.4326002738685929,-0.4326002738685929,0.999944609576349,3.5871882751906135e-05
-0.43113906410289926,-0.43113906410289926,0.9999352465157154,3.588525501347113e-05
-0.42931438553787304,-0.42931438553787304,1.0000865020712038,3.588318138226036e-05
-0.42826966841821557,-0.42826966841821557,0.9999860473064175,3.587411893529289e-05
-0.4269685999577632,-0.4269685999577632,1.0000086757290134,3.588455237268295e-05
-0.42490263666259126,-0.42490263666259126,0.9999897506700701,3.587989038111981e-05
-0.4234208106616279,-0.4234208106616279,0.9999739985657614,3.588438565978232e-05
-0.4210287349007558,-0.4210287349007558,1.000019713921787,3.588338700501998e-05
-0.41944164338056,-0.41944164338056,0.99996968385472,3.588793187022713e-05
-0.4179021077346988,-0.4179021077346988,0.9999798187407624,3.587753060675207e-05
-0.416500497906236,-0.416500497906236,1.0000319008508733,3.5878199178283124e-05
-0.4149462362518534,-0.4149462362518534,0.9999874547092762,3.5909493998459467e-05
-0.41318513269070534,-0.41318513269070534,0.9999884491273215,3.587187151422419e-05
-0.41195501486072317,-0.41195501486072317,1.0000455510932291,3.5882822481862314e-05
-0.41014628090633776,-0.41014628090633776,1.0000138354587418,3.588658110537989e-05
-0.4084994774661027,-0.4084994774661027,0.9999681688467128,3.5876929402895485e-05
-0.40670252784038896,-0.40670252784038896,1.0000247782648697,3.588823607637596e-05
-0.40458361101336776,-0.40458361101336776,1.000073918783875,3.587269358983583e-05
-0.4029406631627353,-0.4029406631627353,0.9999835491093073,3.588208430441895e-05
-0.4011496044113301,-0.4011496044113301,1.000021362342712,3.587914100305437e-05
-0.40009128337842415,-0.40009128337842415,0.9999235654909546,3.586931710056815e-05
-0.39822592586278915,-0.39822592586278915,0.999994061250596,3.589848727108841e-05
-0.3968648381473031,-0.3968648381473031,1.0000376209782733,3.587462754419444e-05
-0.3952562313701492,-0.3952562313701492,0.9998920280246211,3.5886079573533975e-05
-0.39265839860308915,-0.39265839860308915,1.0000239339826,3.5880635076665195e-05
-0.3908784937026212,-0.3908784937026212,1.0000251851695443,3.588135714029864e-05
-0.3893722494583926,-0.3893722494583926,1.0000553154635416,3.5878836934270495e-05
-0.3879083710024133,-0.3879083710024133,1.0000127048791536,3.589567185867776e-05
-0.3860904140485218,-0.3860904140485218,1.0000745981274874,3.587937370823841e-05
-0.38500007024558724,-0.38500007024558724,1.0000590690907643,3.587349746453837e-05
-0.38324261849047614,-0.38324261849047614,0.9999428093982683,3.588984577456508e-05
-0.381119268850307,-0.381119268850307,0.9999948160486583,3.58781375291841e-05
-0.37934909943141976,-0.37934909943141976,0.9999435708997211,3.588574413809782e-05
-0.37710958467214367,-0.37710958467214367,1.0000454398643612,3.5875204677419623e-05
-0.3751482006337028,-0.3751482006337028,0.9999819811481867,3.58829240005768e-05
-0.37353091297554786,-0.37353091297554786,0.9999519550428004,3.587830144202583e-05
-0.37238489035516975,-0.37238489035516975,0.9999503462955188,3.587968073503999e-05
-0.37016405709728134,-0.37016405709728134,0.9999900825290962,3.5878595662466994e-05
-0.36870277161942794,-0.36870277161942794,0.9999817190613989,3.588315500277556e-05
-0.3662221931037493,-0.3662221931037493,0.9999226522512845,3.588129371456118e-05
-0.3642876556317788,-0.3642876556317788,1.000062140447103,3.5887249129014114e-05
-0.36231738701753785,-0.36231738701753785,1.000018600202489,3.587562815968213e-05
-0.3608417091483716,-0.3608417091483716,1.0000106905490707,3.5878181707501934e-05
-0.3590240678109694,-0.3590240678109694,1.000022410164704,3.589036436069113e-05
-0.35782932564907244,-0.35782932564907244,0.999982717822631,3.587544544575906e-05
-0.35636090657208114,-0.35636090657208114,0.999969725054353,3.588371972261002e-05
-0.35429577341419644,-0.35429577341419644,0.9999632826035537,3.587794468274286e-05
-0.3528115899738623,-0.3528115899738623,0.99995998656468,3.588405498457166e-05
-0.35042378785437905,-0.35042378785437905,0.9999070843035485,3.58830264383257e-05
-0.3488300685858121,-0.3488300685858121,1.000045801222653,3.588822912686128e-05
-0.34729594249802176,-0.34729594249802176,0.9999368081209281,3.587645165422485e-05
-0.3458991547304322,-0.3458991547304322,1.0000854126648484,3.587855990739258e-05
-0.34433863260783254,-0.34433863260783254,0.9999932345947743,3.59148157270082e-05
-0.34266389373224226,-0.34266389373224226,1.0000150590574663,3.586606709858174e-05
-0.34161716542730575,-0.34161716542730575,0.9999719381291483,3.5882548958024525e-05
-0.33992168893746566,-0.33992168893746566,0.9999630686097236,3.587883514034704e-05
-0.33822163883596656,-0.33822163883596656,1.0000049877393082,3.588098548744494e-05
-0.3365443030721508,-0.3365443030721508,0.9999995246379509,3.588633000320878e-05
-0.3342806347296573,-0.3342806347296573,0.9999243889233155,3.58752212229412e-05
-0.3327886934624985,-0.3327886934624985,0.9999552550372519,3.588435207879355e-05
-0.3309729519067332,-0.3309729519067332,0.9999714939319156,3.5877096238769696e-05
-0.32990245563705684,-0.32990245563705684,1.0000491107779363,3.587685937985471e-05
-0.32849385909794365,-0.32849385909794365,0.9999928870332333,3.589084451286803e-05
-0.3265824967093067,-0.3265824967093067,0.9999212304739151,3.5876100339376605e-05
-0.3252890049974667,-0.3252890049974667,1.0000834738320392,3.5874917732265666e-05
-0.3229882525949506,-0.3229882525949506,1.0000706158923314,3.5885429234565886e-05
-0.3210429990547709,-0.3210429990547709,0.9999721417496529,3.5886601787167944e-05
-0.3192694011842832,-0.3192694011842832,1.0000135936730126,3.58828259929138e-05
-0.3179243756763753,-0.3179243756763753,0.9999731381378407,3.587127799867784e-05
-0.3160982519912068,-0.3160982519912068,0.999967193430632,3.589901251635557e-05
-0.31483417013077997,-0.31483417013077997,0.9999678906379914,3.587535119401947e-05
-0.3135084503883263,-0.3135084503883263,0.999997574536339,3.5876541885592225e-05
-0.3112955930526368,-0.3112955930526368,1.0000189940894217,3.588620662842308e-05
-0.3095632339653093,-0.3095632339653093,0.9999672468440668,3.588276262241569e-05
-0.30727415657020174,-0.30727415657020174,1.0000530163428838,3.588071466795193e-05
-0.3054318705922924,-0.3054318705922924,1.0000337309738145,3.588839231174737e-05
-0.3034098417439964,-0.3034098417439964,0.9999550341213584,3.587775628787798e-05
-0.30226869053585687,-0.30226869053585687,0.999952082934227,3.587257683912138e-05
-0.3004037545033498,-0.3004037545033498,0.9999986187013643,3.5879071774654186e-05
-0.29895388344302776,-0.29895388344302776,1.0000250824676535,3.5882518662053044e-05
-0.2973794130521128,-0.2973794130521128,0.9999292720621444,3.5872500219093616e-05
-0.2951367847446818,-0.2951367847446818,1.0000494681969396,3.587842875795869e-05
-0.2932912886928534,-0.2932912886928534,0.9999559913256093,3.5886167858471434e-05
-0.29140292726515327,-0.29140292726515327,0.9999394849227178,3.587296361690289e-05
-0.28992739257519134,-0.28992739257519134,0.999959584913533,3.588946883792809e-05
-0.28810524425935,-0.28810524425935,0.9999875442217153,3.587745045231904e-05
-0.2870251221203944,-0.2870251221203944,1.000063723294698,3.587681420925622e-05
-0.2852799295040313,-0.2852799295040313,1.0000271138113312,3.5893273221794056e-05
-0.28343363798048815,-0.28343363798048815,1.0000103946471286,3.586772369593686e-05
-0.28220241582021116,-0.28220241582021116,0.999954883647362,3.588271985211488e-05
-0.27989754353184254,-0.27989754353184254,0.999914774633595,3.587881363121847e-05
-0.27849798973766154,-0.27849798973766154,0.9999665134534113,3.5883308992128374e-05
-0.2770422153611435,-0.2770422153611435,0.9999844606185816,3.5880897397524674e-05
-0.27554472609772346,-0.27554472609772346,0.9999739223667448,3.587745651705938e-05
-0.27407363908132537,-0.27407363908132537,1.0000211670192725,3.5919508284949774e-05
-0.2722636277670972,-0.2722636277670972,0.9999409194547967,3.5878434126884924e-05
-0.2710421778698219,-0.2710421778698219,1.0000331905618196,3.588244328578455e-05
-0.2696492061630124,-0.2696492061630124,1.0000289323315201,3.587671881187653e-05
-0.268341871330631,-0.268341871330631,0.9999839860013457,3.5881623822361054e-05
-0.26658976772159804,-0.26658976772159804,0.9999232805156101,3.5881457526440193e-05
-0.2645731231343234,-0.2645731231343234,1.0000285062081802,3.5879459643845785e-05
-0.26285540675889935,-0.26285540675889935,0.999961404379013,3.587820399756704e-05
-0.2612347351358039,-0.2612347351358039,0.9999640322774812,3.5887413577637114e-05
-0.26006813730055,-0.26006813730055,0.9999822324764244,3.5874311265938774e-05
-0.2590643372241175,-0.2590643372241175,0.9999204526104641,3.587059028542342e-05
-0.2574551063909894,-0.2574551063909894,1.000089756603074,3.588873096191421e-05
-0.2557262188143795,-0.2557262188143795,0.9999713587734831,3.587685168855553e-05
-0.2543202375905821,-0.2543202375905821,0.9999767543624388,3.5875174134130385e-05
-0.25191127267025876,-0.25191127267025876,0.9999194750823308,3.587833845696064e-05
-0.25003968611708843,-0.25003968611708843,1.0000061645508747,3.588764181072271e-05
-0.2484128854383016,-0.2484128854383016,1.0000472136335818,3.588062634106173e-05
-0.24701711992238415,-0.24701711992238415,0.9999979940838168,3.5877765137928665e-05
-0.24518552592489867,-0.24518552592489867,0.9999558213549709,3.589901933679314e-05
-0.24371390417509248,-0.24371390417509248,1.000052392866378,3.5880983260124446e-05
-0.24170002806640695,-0.24170002806640695,1.0000850652388948,3.588751983558464e-05
-0.23991002869734074,-0.23991002869734074,1.0000679324829451,3.5880071334779984e-05
-0.2381527358898893,-0.2381527358898893,1.0000217628922918,3.587730530622215e-05
-0.23629135168739596,-0.23629135168739596,0.999995834955748,3.58741551092194e-05
-0.2348218264087336,-0.2348218264087336,0.9999408309229926,3.588574663879677e-05
-0.23280390002473722,-0.23280390002473722,0.9999825252067567,3.5879889822853916e-05
-0.2316677678274573,-0.2316677678274573,1.0000294149067732,3.5873067789527274e-05
-0.2297972360946005,-0.2297972360946005,0.9999612969751108,3.587802166878633e-05
-0.22827782409731298,-0.22827782409731298,1.000027481379478,3.5876194213813156e-05
-0.22677205762011,-0.22677205762011,1.0000144939538758,3.5877935276707835e-05
-0.22453190249507315,-0.22453190249507315,0.9999967750205105,3.588069644805905e-05
-0.2226815096073551,-0.2226815096073551,1.000046368705054,3.588719859308916e-05
-0.2212141626048833,-0.2212141626048833,1.0000137810388914,3.658928037291138e-05
-0.2199253678918467,-0.2199253678918467,0.9999474914735137,3.5870484755721106e-05
-0.21813517163682264,-0.21813517163682264,1.0000433750090665,3.589598514607059e-05
-0.21684684399806428,-0.21684684399806428,0.9999596704230417,3.587573070658221e-05
-0.2155216685292544,-0.2155216685292544,0.9999787104102438,3.587666036059382e-05
-0.21345766077865846,-0.21345766077865846,0.9999881138538879,3.588052078319435e-05
-0.21186226236168296,-0.21186226236168296,0.9999618074014182,3.5881220470368596e-05
-0.2098139224544866,-0.2098139224544866,0.9999987748285358,3.5879163649935705e-05
-0.20782026611850596,-0.20782026611850596,1.0000139274512274,3.588764716057818e-05
-0.2060887681436725,-0.2060887681436725,1.0000591718306768,3.58746529508837e-05
-0.20477315522148273,-0.20477315522148273,1.0000168468201547,3.587780270400842e-05
-0.20337307669688015,-0.20337307669688015,0.999914181561742,3.5885070029741974e-05
-0.20153211263823323,-0.20153211263823323,0.9999765190319204,3.587384422117318e-05
-0.2001254615286598,-0.2001254615286598,0.9999820449652065,3.5884726882748366e-05
-0.1982261940749595,-0.1982261940749595,0.9999526311244921,3.588564609402596e-05
-0.19632032193476334,-0.19632032193476334,1.0001227782227535,3.5885817435735325e-05
-0.19443522416695486,-0.19443522416695486,1.0000294590742853,3.588255288074231e-05
-0.1925274432025617,-0.1925274432025617,1.0000259668009868,3.5872409855851384e-05
-0.19095529710466508,-0.19095529710466508,0.9999328269714856,3.589289752087414e-05
-0.18962907682871447,-0.18962907682871447,0.9999755511450967,3.58710115767622e-05
-0.18869591361726634,-0.18869591361726634,0.9999492276232627,3.587596545944151e-05
-0.18686143873492256,-0.18686143873492256,1.0000632556551337,3.5892614842027315e-05
-0.18511921429890207,-0.18511921429890207,0.9999458960729791,3.587751257555927e-05
-0.1834225140773924,-0.1834225140773924,1.0000394275890505,3.588836703907764e-05
-0.18103850444022102,-0.18103850444022102,1.0000748816378144,3.5874757147563304e-05
-0.17943017043871806,-0.17943017043871806,0.9999803271394571,3.588791808144638e-05
-0.1778073866124032,-0.1778073866124032,0.999991102458921,3.5878793987651936e-05
-0.1764134109922452,-0.1764134109922452,1.00000248663991,3.5877892976198196e-05
-0.17457960416504648,-0.17457960416504648,1.0000470532152501,3.5900673353504226e-05
-0.17336595879751257,-0.17336595879751257,0.9998972644402983,3.58767031440167e-05
-0.1714787455945043,-0.1714787455945043,0.9999812975781929,3.588244236886813e-05
-0.16963487241009717,-0.16963487241009717,0.9999445330895591,3.587730338591216e-05
-0.16796793695830275,-0.16796793695830275,1.000016777197145,3.588719561618751e-05
-0.16568808483716566,-0.16568808483716566,1.0000230271791237,3.587706326393731e-05
-0.16421183043566998,-0.16421183043566998,1.0000566949291876,3.588602690087693e-05
-0.16219800567196216,-0.16219800567196216,0.9999415333131229,3.587846431572536e-05
-0.1610668966313824,-0.1610668966313824,0.9999419467530357,3.5870244251545185e-05
-0.15919076837017201,-0.15919076837017201,1.0000371660375122,3.5878494046838566e-05
-0.15767222807044162,-0.15767222807044162,0.9999061637406461,3.587347061496315e-05
-0.15607134838355705,-0.15607134838355705,0.9999934932870429,3.588544100904837e-05
-0.15346381167473738,-0.15346381167473738,1.0000117880699733,3.587900382604417e-05
-0.15168638800969347,-0.15168638800969347,0.9999710698537623,3.587989848510684e-05
-0.15017824669048424,-0.15017824669048424,1.0000077806540846,3.587936740604847e-05
-0.14871591465780512,-0.14871591465780512,0.9999867464382918,3.589343620621422e-05
-0.14689628830819856,-0.14689628830819856,0.9999824182836591,3.5879957729642534e-05
-0.1458100328251021,-0.1458100328251021,0.999997175093425,3.5871987105589226e-05
-0.14408321916125716,-0.14408321916125716,1.0000031512822114,3.5891601679319166e-05
-0.14226010327984112,-0.14226010327984112,1.0000399941292535,3.588107884856878e-05
-0.14061253335676155,-0.14061253335676155,0.9999672919038272,3.588549255218925e-05
-0.138279653628706,-0.138279653628706,0.9999743807688934,3.588044005089178e-05
-0.136623469251208,-0.136623469251208,1.0000236438872308,3.588592213682975e-05
-0.13482386640680488,-0.13482386640680488,0.9999911807464141,3.587899713995524e-05
-0.13367103271593805,-0.13367103271593805,1.000053370382152,3.587390956605518e-05
-0.13181912864092737,-0.13181912864092737,1.0001073163228889,3.588118602247692e-05
-0.13016734730335883,-0.13016734730335883,0.9999860683775885,3.588393554780751e-05
-0.12815126503119245,-0.12815126503119245,1.000074336298358,3.588982191753472e-05
-0.1260819644026924,-0.1260819644026924,0.9999553288657598,3.587833744640811e-05
-0.12431266256025993,-0.12431266256025993,0.9999964985653256,3.587710984462317e-05
-0.12251642925839405,-0.12251642925839405,0.999993820038988,3.5878152763686816e-05
-0.12102482866321225,-0.12102482866321225,0.9999262428893733,3.5889465262705703e-05
-0.11920765735849273,-0.11920765735849273,0.9999299335752317,3.5869308187126445e-05
-0.11830512710148469,-0.11830512710148469,1.0000253743506886,3.5877795150326614e-05
-0.11670628894644323,-0.11670628894644323,0.9999922205543601,3.589354460004154e-05
-0.11476728485722561,-0.11476728485722561,0.999902960854377,3.587042231508445e-05
-0.11325802635983565,-0.11325802635983565,0.9999200474083629,3.588439438508946e-05
-0.11082229201274459,-0.11082229201274459,0.9998563146898247,3.588021639991263e-05
-0.10940898063417989,-0.10940898063417989,1.000054111119855,3.588791900537844e-05
-0.10776402522169519,-0.10776402522169519,0.9999786307260257,3.587523058002451e-05
-0.10641882846684894,-0.10641882846684894,0.9999827190737587,3.5879741552768945e-05
-0.10469574724847916,-0.10469574724847916,0.99999150595398,3.5905210618249135e-05
-0.10319057715241797,-0.10319057715241797,1.000055020889878,3.587792795617673e-05
-0.10181898559530964,-0.10181898559530964,1.0000665162990536,3.587829582589142e-05
-0.10007519607897848,-0.10007519607897848,1.0000183675639023,3.588598185707754e-05
-0.09835518744366709,-0.09835518744366709,1.0000106095283166,3.588539954147525e-05
-0.09644960067234934,-0.09644960067234934,1.0000121254959755,3.5882172868373485e-05
-0.094489773051464,-0.094489773051464,0.9999837182222752,3.5870239883365295e-05
-0.09271062319166959,-0.09271062319166959,1.0000211049959336,3.588447716989692e-05
-0.09111496128316503,-0.09111496128316503,1.0000361411802121,3.587977440268243e-05
