time,time,flux,flux_err
-0.4990381462945758,-0.4990381462945758,0.959347831382051,0.02611332347682139
-0.4976502309764328,-0.4976502309764328,1.0132841185038852,0.02342963782486935
-0.4961149702037801,-0.4961149702037801,0.9796951550882221,0.023223464180070905
-0.4945070475281682,-0.4945070475281682,1.0102587629874065,0.02361970390426847
-0.4927598629896238,-0.4927598629896238,1.0110265591021477,0.02353216374040868
-0.4910942641261499,-0.4910942641261499,0.9772138406775006,0.023525281936286023
-0.4890607662833645,-0.4890607662833645,1.0045726462816682,0.023198668379743288
-0.4871205804898636,-0.4871205804898636,0.988415252929675,0.02308260623670916
-0.48536608357171646,-0.48536608357171646,0.9858326071604688,0.023410675128563797
-0.48373606920358725,-0.48373606920358725,0.998658894608852,0.023456919701349416
-0.48160269416257506,-0.48160269416257506,1.013810900880052,0.023809561181696703
-0.479879983234423,-0.479879983234423,0.9968313750838942,0.023551373214041514
-0.478433151030913,-0.478433151030913,0.9983501964077144,0.02338801977689401
-0.4768638710156665,-0.4768638710156665,0.977203008907533,0.023224371411380555
-0.47532707690552345,-0.47532707690552345,0.9971730810295281,0.023252755027790863
-0.4737200753988873,-0.4737200753988873,1.0108092084914921,0.02335129605549305
-0.4716648344350688,-0.4716648344350688,0.9988371548122899,0.023363215617473943
-0.46959816010858046,-0.46959816010858046,1.0144279212577052,0.0236183559150412
-0.4679880816685909,-0.4679880816685909,1.007266869912609,0.023706243654582137
-0.46635380055740827,-0.46635380055740827,0.9915330481954848,0.023973580698397945
-0.4645680965790234,-0.4645680965790234,1.0097977278055004,0.023710906901763834
-0.4628744425725017,-0.4628744425725017,0.9963103980137891,0.02320028682822266
-0.46128886990627505,-0.46128886990627505,0.9796018200777832,0.023722942723410283
-0.45958218889936686,-0.45958218889936686,0.9876859256125903,0.023381984170943445
-0.45797313915754784,-0.45797313915754784,0.9976024162036563,0.023207216862229686
-0.455867613763985,-0.455867613763985,0.9862128187124073,0.02346792669993189
-0.4542804270524357,-0.4542804270524357,0.9879869193993226,0.023712515163660717
-0.4524866930085409,-0.4524866930085409,1.0013769728022437,0.02362649912932435
-0.45126886348516565,-0.45126886348516565,0.984534060463854,0.02363637608382576
-0.44967793905743747,-0.44967793905743747,0.9957647454370685,0.023179300843367102
-0.4483620668965159,-0.4483620668965159,0.9980885605725135,0.023602980528444128
-0.44662091103891727,-0.44662091103891727,1.0012506296442039,0.023395253055783796
-0.4445399449621618,-0.4445399449621618,1.000526344167342,0.023442329601937442
-0.44281639323671695,-0.44281639323671695,0.9820824342821322,0.02356390629567055
-0.44054593818436844,-0.44054593818436844,1.03692837802743,0.02377426640709144
-0.4382371812716883,-0.4382371812716883,0.9970831451171632,0.023396920969033362
-0.43660023918710067,-0.43660023918710067,1.0116480589170256,0.023419537631596366
-0.43452696049425865,-0.43452696049425865,0.99878408579129,0.023335910649915758
-0.4332083947898354,-0.4332083947898354,0.9733514782004127,0.023322487287886988
-0.4314643345118384,-0.4314643345118384,0.9911237782587001,0.02316276172729575
-0.4299644197599264,-0.4299644197599264,1.0263918697888497,0.023400975184732074
-0.42793456780200356,-0.42793456780200356,1.0120496343638115,0.02341315612849023
-0.42616608005191664,-0.42616608005191664,0.9806356491386051,0.02359939578845241
-0.42449722288074554,-0.42449722288074554,0.9935383785387183,0.023566726674037235
-0.4231963622558396,-0.4231963622558396,1.0002725269148165,0.023595789227185568
-0.4214429923435091,-0.4214429923435091,0.9924715366121706,0.023390823019985872
-0.41964233647013316,-0.41964233647013316,1.016712486876522,0.02321715277784165
-0.41808883090416205,-0.41808883090416205,0.9851066109052968,0.023786131926605607
-0.41654555778513896,-0.41654555778513896,0.9927058719017083,0.02321611634044183
-0.41477382868979473,-0.41477382868979473,0.988983887039559,0.02344990724012732
-0.4131791423067625,-0.4131791423067625,1.0050631968326085,0.023218013169148753
-0.4114291067555314,-0.4114291067555314,0.9962778973601452,0.023529268172692692
-0.40982855520051087,-0.40982855520051087,1.028289479730533,0.023685756481708477
-0.40842116892235936,-0.40842116892235936,1.0227071101223069,0.023279484691829996
-0.4067169907299103,-0.4067169907299103,0.956705267876312,0.023316911676032608
-0.40557130602537655,-0.40557130602537655,1.0172155029014998,0.023546598442775412
-0.40403193014863065,-0.40403193014863065,1.0015076308297866,0.02329843426951018
-0.4024519322600099,-0.4024519322600099,1.0408461429363187,0.023317939821761988
-0.4008260227019491,-0.4008260227019491,0.9975168132632881,0.02331794531120188
-0.398951162344747,-0.398951162344747,1.0065798624272944,0.023602572070758446
-0.397617245609581,-0.397617245609581,1.0005629278181432,0.024286104195960896
-0.396096968591155,-0.396096968591155,1.0250612160866193,0.023457318815481354
-0.39401791004638653,-0.39401791004638653,0.988169987941989,0.02323022857604622
-0.39217374436557295,-0.39217374436557295,1.0011796177092893,0.023218127330030352
-0.3904248925835418,-0.3904248925835418,1.02574475336282,0.023294237926492746
-0.3886176111460372,-0.3886176111460372,0.964571978907127,0.02348735647621044
-0.386808415811538,-0.386808415811538,1.000052780071094,0.02356909161702552
-0.38481756449327803,-0.38481756449327803,0.9862350972210052,0.0236200099209933
-0.3833204929542262,-0.3833204929542262,0.991873548995269,0.02336789065134772
-0.38165131076457326,-0.38165131076457326,1.0226734557762818,0.02324996867489322
-0.3803448548089364,-0.3803448548089364,0.9851215279697149,0.023325015667268488
-0.37859592008826437,-0.37859592008826437,1.0226134143865644,0.023469649557725146
-0.3767925059517438,-0.3767925059517438,1.0046903306624473,0.023278849312609817
-0.3750274322570476,-0.3750274322570476,0.9937963218608512,0.023738605573726416
-0.37329641101096056,-0.37329641101096056,1.0108419705998368,0.023676596230263747
-0.3715051862243854,-0.3715051862243854,1.0029994224136627,0.02366830593017364
-0.36998070445333725,-0.36998070445333725,0.9884134092852765,0.024110779098794416
-0.3683467385628319,-0.3683467385628319,1.00444975181967,0.023470058759356253
-0.36630532742492505,-0.36630532742492505,0.9709746612012194,0.02331618753754575
-0.3649469842646795,-0.3649469842646795,0.9877667971082925,0.023669577946567467
-0.3632730384058959,-0.3632730384058959,1.0140582171892794,0.023240619950659173
-0.3614447088482848,-0.3614447088482848,0.9904967527496726,0.02321833125481691
-0.3594218302663649,-0.3594218302663649,1.0122782230472938,0.023590465844205634
-0.3583258776961884,-0.3583258776961884,0.989354709389344,0.02362334866326986
-0.35638852331685483,-0.35638852331685483,0.998435482998256,0.02374411863640665
-0.3552190449896443,-0.3552190449896443,1.002445017648765,0.02346366183488102
-0.3536460091811023,-0.3536460091811023,1.0078642869070398,0.02347231429305379
-0.3517381011544785,-0.3517381011544785,1.003415512960085,0.023551738262819793
-0.3501635504573642,-0.3501635504573642,1.0076626656269485,0.02320598525811427
-0.348313968966977,-0.348313968966977,1.0191764421229,0.023610244513354715
-0.3461236497023492,-0.3461236497023492,1.0033342674948407,0.02370798336444031
-0.34395911184401484,-0.34395911184401484,1.0123136618925366,0.023437065883794572
-0.3419643256936979,-0.3419643256936979,1.0233775044234892,0.02343056775969955
-0.34047506604983935,-0.34047506604983935,1.0148422663885197,0.02362683701209661
-0.33880556577714743,-0.33880556577714743,0.9806953837581712,0.023402432075467494
-0.3374935193758574,-0.3374935193758574,0.9972229595904241,0.023239209934937534
-0.3357490152164246,-0.3357490152164246,1.0246181688117897,0.023232410564132777
-0.3342491602830705,-0.3342491602830705,1.0086506656015308,0.02344041789725724
-0.3322196133158286,-0.3322196133158286,1.005556271545781,0.023356712739621054
-0.3304506470274646,-0.3304506470274646,0.9967737082325236,0.02370982164661055
-0.32865537393736305,-0.32865537393736305,0.9851953671286344,0.023403067798786512
-0.32713096559091354,-0.32713096559091354,1.0011828819853257,0.0235645823412842
-0.32549784561124395,-0.32549784561124395,1.0014152348640974,0.023405740811311953
-0.3234612352345721,-0.3234612352345721,0.9886925532782644,0.023070547422678812
-0.3220909887488233,-0.3220909887488233,1.000710071341599,0.023954253414223754
-0.3204269365705841,-0.3204269365705841,0.9933220628947389,0.023049214744669498
-0.3187873532675439,-0.3187873532675439,1.020184695371201,0.023520215746219954
-0.31711560050025583,-0.31711560050025583,0.9945505826638831,0.02321211142101805
-0.31548071887518747,-0.31548071887518747,0.9958577300741858,0.023692198090811037
-0.3134340233002149,-0.3134340233002149,0.9934588742716007,0.023350795075857515
-0.31208875131269453,-0.31208875131269453,0.9965524522331097,0.023535989934433097
-0.31046538342779967,-0.31046538342779967,1.0237272176848802,0.023121203959984685
-0.3088885792210931,-0.3088885792210931,1.0065871673383313,0.023446880359717984
-0.3074443921497732,-0.3074443921497732,0.9951599395929115,0.023360448343041275
-0.30570223115792033,-0.30570223115792033,0.989086846682085,0.02329498103049874
-0.30390205356306976,-0.30390205356306976,1.0326305389727306,0.023498542537710925
-0.30251850042986916,-0.30251850042986916,1.0010466467719021,0.02380713427690795
-0.30077468554518416,-0.30077468554518416,0.9963623522007324,0.02362070272966533
-0.2988334043249779,-0.2988334043249779,1.0162658910684492,0.023267624195660856
-0.297297245808295,-0.297297245808295,1.0082175130244426,0.023357442245898707
-0.295448749751813,-0.295448749751813,1.0205538435914412,0.023117048178998588
-0.29391404204943683,-0.29391404204943683,1.005152213943207,0.02365793507222386
-0.29230594098917206,-0.29230594098917206,1.0084715148019288,0.0234640724711292
-0.2901721220638137,-0.2901721220638137,0.9867019061618338,0.02362274552756386
-0.28845018028878255,-0.28845018028878255,0.9828310427056733,0.0236306273164383
-0.28700222567786116,-0.28700222567786116,0.999640188527918,0.023337980487117663
-0.28543392070932894,-0.28543392070932894,0.9908215971510741,0.02333131905506716
-0.2838969050440937,-0.2838969050440937,1.0018453393160387,0.023296512338348955
-0.2822900206054328,-0.2822900206054328,1.0091031434496185,0.023420058306239284
-0.2803092297486728,-0.2803092297486728,1.0117236434751473,0.023467361570697252
-0.27884911859655404,-0.27884911859655404,0.979982338836144,0.024518948667714226
-0.27729337113923974,-0.27729337113923974,0.961305834795634,0.023748794461102216
-0.27551006663416044,-0.27551006663416044,0.9802701036435693,0.023709526338194644
-0.27388048738284854,-0.27388048738284854,1.01169138397148,0.024042404901827692
-0.272274872197886,-0.272274872197886,1.0172145583478265,0.0234536357143244
-0.2702880310935143,-0.2702880310935143,0.9672702741149056,0.023413193733630034
-0.26883955909288487,-0.26883955909288487,1.0224304382032,0.023502845190102987
-0.26726337836225866,-0.26726337836225866,0.9793306595589101,0.023170088484745333
-0.26527613818252577,-0.26527613818252577,0.9866724237668791,0.02335215505241421
-0.2634355674206745,-0.2634355674206745,0.9898451059736704,0.0235952886186166
-0.2618366884009447,-0.2618366884009447,0.9833509412552044,0.023727081883774887
-0.2602311779199226,-0.2602311779199226,1.0044401545795965,0.0234068355318983
-0.25883209704406906,-0.25883209704406906,0.9891721442611046,0.023662361764481346
-0.2572326377390709,-0.2572326377390709,0.9898010581691888,0.023473186561787644
-0.2554523974824406,-0.2554523974824406,0.9799200615233101,0.023584327012879703
-0.2536070814145205,-0.2536070814145205,1.0046607867563395,0.02341058128084104
-0.2518174123571953,-0.2518174123571953,1.0325785723983412,0.02344860319582692
-0.24961724874228822,-0.24961724874228822,0.9974561517215623,0.023737170709795176
-0.24732504544736003,-0.24732504544736003,0.9868478553848959,0.023493743803793307
-0.2455992651077395,-0.2455992651077395,0.9929330630263573,0.023397983688292188
-0.24415691943504497,-0.24415691943504497,1.0109305870402658,0.023578776627534444
-0.24258374284618184,-0.24258374284618184,1.0030012676026872,0.023208640677752305
-0.24104783109942218,-0.24104783109942218,0.9994103077879206,0.023272597865376988
-0.23956477628598805,-0.23956477628598805,1.0022672376274255,0.023300057924774444
-0.23768966032657773,-0.23768966032657773,0.983768724345572,0.02330615691042672
-0.235645488188311,-0.235645488188311,1.0072148960408238,0.023564972680741487
-0.23413224805699429,-0.23413224805699429,1.009677338292601,0.02364398428271279
-0.23238734404149,-0.23238734404149,1.0379004857295766,0.023635163489950775
-0.23058945667144143,-0.23058945667144143,1.0039532552917692,0.023613732179101427
-0.22900938894890716,-0.22900938894890716,0.9780205411170078,0.02294146678991322
-0.2272312440465612,-0.2272312440465612,1.0135504392194568,0.023729482277952962
-0.22563481295946985,-0.22563481295946985,0.9853676651057729,0.02337376101980739
-0.2241082849781378,-0.2241082849781378,1.0136644355650406,0.02326178487606108
-0.2223575371222978,-0.2223575371222978,1.0172441764796791,0.023393257676168008
-0.22027335989114363,-0.22027335989114363,1.018663833423793,0.023459890627736978
-0.21858009122806835,-0.21858009122806835,0.993675583771763,0.02386508811459468
-0.21699069618116482,-0.21699069618116482,0.9783411269778755,0.02330670167610766
-0.21528697701141936,-0.21528697701141936,1.013977001770951,0.023281714021197768
-0.21410399365922786,-0.21410399365922786,0.9738386727639992,0.02324596047041899
-0.21260199139287578,-0.21260199139287578,0.997367951970322,0.02332684741007252
-0.2110212923871586,-0.2110212923871586,1.0033873670775573,0.02333420553987097
-0.20959936623694375,-0.20959936623694375,0.9936111086327527,0.0233600804017149
-0.20780352985020728,-0.20780352985020728,1.0172625028076738,0.023773968829422645
-0.20644028883907595,-0.20644028883907595,1.029943575623951,0.023819699967204906
-0.20466630766750313,-0.20466630766750313,1.012446648703816,0.023471507596083387
-0.20258804291879642,-0.20258804291879642,1.0349112984201168,0.023285183084586672
-0.20074413165057195,-0.20074413165057195,0.9881115486863044,0.023265946044070337
-0.19944850765896263,-0.19944850765896263,0.998899474240632,0.023504275839409998
-0.19774487523536663,-0.19774487523536663,1.0125266740093326,0.023546520069235116
-0.19618373356788651,-0.19618373356788651,1.0414073932312011,0.023348088636146763
-0.1944064286602952,-0.1944064286602952,0.9889844048093102,0.023668339374275284
-0.192735281764908,-0.192735281764908,0.9736095797089248,0.02370526939013062
-0.19128676595864819,-0.19128676595864819,1.0213036755421772,0.023331417179961355
-0.1897189485091076,-0.1897189485091076,1.0334916497434707,0.023423679470749213
-0.18818182167960912,-0.18818182167960912,1.0200714801288115,0.023308286809856978
-0.1865749960328685,-0.1865749960328685,0.986992563137236,0.023413379534301868
-0.18459391764336033,-0.18459391764336033,1.0000292939885829,0.023401638605399292
-0.18313415537995753,-0.18313415537995753,0.987164947900159,0.024422953915257894
-0.18157784954528325,-0.18157784954528325,1.0192469964864785,0.023679607284384372
-0.17979533729449032,-0.17979533729449032,1.004018080143188,0.023687769701853892
-0.17816543688240927,-0.17816543688240927,1.0112610651017184,0.023906538703732896
-0.17655988536353107,-0.17655988536353107,1.0218434846658309,0.023587028192186825
-0.17457275441556702,-0.17457275441556702,1.0021076950160581,0.023396970166442953
-0.17312490292242727,-0.17312490292242727,0.9897192151902644,0.023507279086371898
-0.17154761287674775,-0.17154761287674775,1.007116755108299,0.023142063073297574
-0.16956101220057462,-0.16956101220057462,1.035739151901302,0.023312348893277754
-0.16772094975603977,-0.16772094975603977,1.0294448606483528,0.023587459984422198
-0.1661214671745256,-0.1661214671745256,1.000455447405291,0.023631701257506802
-0.1645156550417596,-0.1645156550417596,1.0044370485095946,0.02350878817495958
-0.16311747219224343,-0.16311747219224343,0.9825454998312881,0.023668573176697613
-0.16151690562910517,-0.16151690562910517,1.0105182531166392,0.02345304382436674
-0.1597374483892054,-0.1597374483892054,0.9797691424854262,0.02366647122664304
-0.15789225914268173,-0.15789225914268173,1.0156427536471544,0.02338412368631231
-0.1561022275898722,-0.1561022275898722,0.9694075493718632,0.02343985879590668
-0.15390217205131193,-0.15390217205131193,1.009338081380227,0.023639463945545537
-0.1516097459199955,-0.1516097459199955,0.9987783305340813,0.02357706583062235
-0.1498843493856839,-0.1498843493856839,0.9857840890134131,0.02340421858337636
-0.14844144277012675,-0.14844144277012675,1.0250149662128103,0.02354332603956539
-0.14686875293118645,-0.14686875293118645,1.0254595461919576,0.023217730035684926
-0.1453327320778044,-0.1453327320778044,1.009696977925181,0.023258834046886
-0.14384937817740137,-0.14384937817740137,0.9863865717851047,0.02324712101721002
-0.14197416260722093,-0.14197416260722093,1.018141064997668,0.023358633891254133
-0.13993067618066563,-0.13993067618066563,1.0004396613328737,0.023577776413753863
-0.13841680630212067,-0.13841680630212067,1.0347912106216584,0.02372637778997694
-0.13667240623908583,-0.13667240623908583,0.9912477886241865,0.023611628406178847
-0.1348747915115382,-0.1348747915115382,1.0394839955819324,0.023704966093619773
-0.13329411535232794,-0.13329411535232794,0.995847398158282,0.02293465847819892
-0.13151574735384203,-0.13151574735384203,1.0081503874734543,0.023719981521312765
-0.1299200374116481,-0.1299200374116481,1.021940436608629,0.023386090222491808
-0.12839287608876476,-0.12839287608876476,0.9681600616885542,0.023256192585489964
-0.1266422191147285,-0.1266422191147285,0.9961880784384748,0.023397495255446335
-0.12455839154063142,-0.12455839154063142,0.969892221193296,0.023421271305615648
-0.12286515420128126,-0.12286515420128126,1.0199856433766856,0.023875800801749163
-0.12127546212141169,-0.12127546212141169,1.0009261467787796,0.023354446238102317
-0.11957197169103892,-0.11957197169103892,1.0160891212480125,0.02326878424261717
-0.11796358302308363,-0.11796358302308363,0.9852492619142936,0.023496838609953438
-0.11622424084416708,-0.11622424084416708,1.0088178574876234,0.02317158811111213
-0.11427255580347265,-0.11427255580347265,1.0259509749225972,0.02341894324414633
-0.11247130509655108,-0.11247130509655108,0.9804577998851371,0.023415508021939157
-0.11118892828380922,-0.11118892828380922,1.0304118731986882,0.02387860149202562
-0.1095572833371989,-0.1095572833371989,0.9964710506663131,0.023728761011915813
-0.10784531244644313,-0.10784531244644313,1.0199508028034647,0.023084256763270947
-0.10619884087718674,-0.10619884087718674,0.9982503056695469,0.02333709526982843
-0.1042613632787834,-0.1042613632787834,1.0002649186875172,0.023219815195515605
-0.1031970796349924,-0.1031970796349924,1.0169071113332744,0.023648346324332627
-0.10147161064378452,-0.10147161064378452,1.0317633515329234,0.023542376221313544
-0.09989884966198588,-0.09989884966198588,0.9971562285650808,0.023275673718035184
-0.09840519742574542,-0.09840519742574542,0.9933531754166924,0.02370030098463983
-0.09675452003866666,-0.09675452003866666,1.0041223837460111,0.023699700868416544
-0.09518344098032686,-0.09518344098032686,0.9937668600210159,0.023327760502955944
-0.09382186664734035,-0.09382186664734035,0.998919457623437,0.02347094726958883
-0.09202151215140475,-0.09202151215140475,0.9800928023398632,0.023314059535670673
-0.09075421235174871,-0.09075421235174871,0.9993940918582853,0.023371209359622766
-0.08887860784961958,-0.08887860784961958,1.015424835985306,0.023325241400040712
-0.08741919549865998,-0.08741919549865998,0.994013913385029,0.02442124326507676
-0.08586232949310216,-0.08586232949310216,0.9849208356695682,0.023557037158030862
-0.08408060821457183,-0.08408060821457183,1.015486562795138,0.02368194356783284
-0.08245038715176634,-0.08245038715176634,0.9851828140212497,0.02379570763640059
