time,time,flux,flux_err
-0.4998999815391774,-0.4998999815391774,0.9999934100210187,0.00039886372359261265
-0.49980520163929515,-0.49980520163929515,0.9997437011854916,0.0004541551770823766
-0.4996482514870877,-0.4996482514870877,0.9994107409160984,0.0003351612789851524
-0.49947218294473716,-0.49947218294473716,0.999467895951207,0.0004522353487202295
-0.49926185469303164,-0.49926185469303164,1.0001111785530392,0.00045584964588226253
-0.4990978162946703,-0.4990978162946703,0.9995412385274023,0.00034453383523540157
-0.4990106950288464,-0.4990106950288464,1.000118623127861,0.00044021220932849523
-0.49897388065073756,-0.49897388065073756,0.9997942590469254,0.0003806332478319793
-0.4989076221609139,-0.4989076221609139,1.0003528425138666,0.0004713502594616651
-0.49877132206820535,-0.49877132206820535,1.000317075920029,0.0003727325019658794
-0.49867646248458186,-0.49867646248458186,0.999783595006271,0.00035159631799577785
-0.49852522372966634,-0.49852522372966634,0.9999156393454266,0.0003540748462020933
-0.49835005492786877,-0.49835005492786877,1.000334417401175,0.0004276153667482108
-0.49817860896364435,-0.49817860896364435,0.9997237383672546,0.0004470607826523281
-0.498025462969963,-0.498025462969963,0.9999977195665867,0.00044956997213083225
-0.4979150017839856,-0.4979150017839856,1.0001584075757068,0.0003686803648837432
-0.49778201043445736,-0.49778201043445736,1.0000396777896625,0.0003177617407370718
-0.49765879773622146,-0.49765879773622146,0.999786236174294,0.00041388333603061363
-0.4975455565843731,-0.4975455565843731,1.000082335733855,0.00037265754570968917
-0.4974450093941414,-0.4974450093941414,1.000251768810258,0.00035472069347128776
-0.49737297940519054,-0.49737297940519054,1.0001901363722097,0.0004399235693931307
-0.49727333535047363,-0.49727333535047363,1.0005162063706066,0.000469224179693966
-0.4971267470311432,-0.4971267470311432,0.9995922244820313,0.00044051308252548657
-0.4969919149385532,-0.4969919149385532,1.000477311088303,0.00033639880075289695
-0.49690779119191575,-0.49690779119191575,1.0000866765337288,0.000416480161237757
-0.4967436902326881,-0.4967436902326881,0.9997442872573954,0.0003561150274156626
-0.49668414339830635,-0.49668414339830635,0.9996740765915693,0.00043373190279406956
-0.49651781741704326,-0.49651781741704326,1.0003308651099556,0.0004483017771606423
-0.4963428669143468,-0.4963428669143468,1.0003479886807682,0.0003214472047396988
-0.4962251690456469,-0.4962251690456469,1.0000915450176917,0.00034165992502195987
-0.4961370322671428,-0.4961370322671428,1.0000095358976955,0.00035499197726781857
-0.4960305512562627,-0.4960305512562627,1.000179742430747,0.0003440393673994225
-0.4958908107284515,-0.4958908107284515,0.9998398578200896,0.0003566052908268229
-0.49570518250839085,-0.49570518250839085,1.0001509973052005,0.0003391465010860081
-0.49558643951968406,-0.49558643951968406,1.0003427331877137,0.00035753309407325374
-0.4954195827209332,-0.4954195827209332,0.9997496631140026,0.000513953915103829
-0.49532536683254874,-0.49532536683254874,0.999252930156252,0.000438395132955319
-0.49516070485769886,-0.49516070485769886,1.0004110340488537,0.0005334278780122411
-0.4950264618593792,-0.4950264618593792,1.0000406191981859,0.0003653475729364535
-0.4948850259635947,-0.4948850259635947,0.9998952863094075,0.00039624762218899685
-0.49473058262374253,-0.49473058262374253,1.0003356624148345,0.00035065784842192016
-0.49464561041459093,-0.49464561041459093,0.9997081558418055,0.0005077279390492187
-0.4945661855657818,-0.4945661855657818,1.000156857681276,0.0004417681759033328
-0.49447086309592125,-0.49447086309592125,1.0000192122805251,0.000370894606635811
-0.49439078642753886,-0.49439078642753886,0.9995998261916064,0.00032847399270696527
-0.4942418701954011,-0.4942418701954011,1.0004050097362476,0.0004240901028629314
-0.49408387999646947,-0.49408387999646947,1.0000083407514908,0.00035450586369554626
-0.49394247055461166,-0.49394247055461166,1.0001225805340581,0.00036710914699657974
-0.4938334768230561,-0.4938334768230561,0.9995883536459184,0.0003320321655585152
-0.4937149386481906,-0.4937149386481906,1.000106197679559,0.0004462475950872337
-0.49360553188671474,-0.49360553188671474,0.9998259490906024,0.00035226451828219583
-0.4934949245602184,-0.4934949245602184,0.9997689018729885,0.0003947039739056621
-0.49337609694121054,-0.49337609694121054,0.9996415790226045,0.0004404979122490216
-0.49325017543596916,-0.49325017543596916,0.9999504170336323,0.00035908834514904615
-0.49310638188107986,-0.49310638188107986,0.9997144246254692,0.0004257215914851102
-0.49301518254724214,-0.49301518254724214,1.0003283056728862,0.0004431753988537993
-0.4929303011522279,-0.4929303011522279,1.0005154844848316,0.000456764520030866
-0.49276936496971757,-0.49276936496971757,0.9998694029333535,0.00042234013081877416
-0.492633326620853,-0.492633326620853,0.9995462491240303,0.000385418992942502
-0.4925229760498041,-0.4925229760498041,1.000114355918974,0.0003717913221700505
-0.4924521688393725,-0.4924521688393725,1.0002478207347687,0.0004612451675475483
-0.49232251547146005,-0.49232251547146005,1.0000563655035677,0.00031204500812106117
-0.4921831393141474,-0.4921831393141474,0.9994969178514911,0.00040075394222191773
-0.49208520503743786,-0.49208520503743786,0.9999141190991455,0.0003639322053721434
-0.4919304684903182,-0.4919304684903182,0.9999908721328399,0.00041831397859824727
-0.4917945894521836,-0.4917945894521836,1.0000960178033713,0.000511080502276021
-0.49171640928834676,-0.49171640928834676,0.9992652376931442,0.0003689723209009653
-0.49155963744196923,-0.49155963744196923,1.0002406348947868,0.0005174158312146083
-0.49138648364896653,-0.49138648364896653,0.9999435302120274,0.00033489905269375224
-0.49130443382964584,-0.49130443382964584,0.9999600090460152,0.00031956847072689545
-0.49115059417235896,-0.49115059417235896,1.000154456826564,0.0003936219753357597
-0.49097783199176775,-0.49097783199176775,1.0010314731664285,0.0004414679480085583
-0.4908436847901612,-0.4908436847901612,1.0006179636189534,0.000488687137183381
-0.49071439860126703,-0.49071439860126703,0.9995787837178923,0.00039301024068902763
-0.49057898982791814,-0.49057898982791814,1.000319084125741,0.0004233211195207944
-0.49041086564975556,-0.49041086564975556,1.0004281705849891,0.00033766940417770576
-0.49025985209373174,-0.49025985209373174,0.999393476520342,0.0004423912223978951
-0.4901588275773975,-0.4901588275773975,0.9993946690384476,0.0004814825683207301
-0.49005152553363585,-0.49005152553363585,1.0000964330630626,0.00045079754199325644
-0.4899385399541643,-0.4899385399541643,1.0001032133449923,0.00032885845502017363
-0.4898175322130555,-0.4898175322130555,1.0005104320814124,0.0003602360163098207
-0.48970245854507083,-0.48970245854507083,0.9997474893989861,0.00043794525016939477
-0.48960072586050957,-0.48960072586050957,0.99976871529921,0.00035452112082365425
-0.48950501308281674,-0.48950501308281674,0.9997382136727619,0.0003719319740859792
-0.4894037279584154,-0.4894037279584154,0.9998073708873282,0.00041541047273106627
-0.48914883648467367,-0.48914883648467367,1.0003043216987366,0.00044135328676904944
-0.4890297534315323,-0.4890297534315323,1.0001834936511413,0.00036120489112143273
-0.4888923150341725,-0.4888923150341725,0.9997065641624838,0.00040116636268758033
-0.48880359684335417,-0.48880359684335417,1.000135867614133,0.0004063531290265962
-0.4887298359666602,-0.4887298359666602,1.000003612642509,0.0005069724080996164
-0.48858990941080266,-0.48858990941080266,0.9998694940981112,0.000361331495326883
-0.48844314035450226,-0.48844314035450226,1.0001490776219202,0.0004615734087826541
-0.4883282525152026,-0.4883282525152026,0.9996328684163265,0.00033825013173772415
-0.4882127989520086,-0.4882127989520086,1.0002933522482567,0.0003577470851058435
-0.4880684155767085,-0.4880684155767085,0.9998302510225061,0.00042681556177511686
-0.4879736626622616,-0.4879736626622616,1.000145890685949,0.0004406207043248306
-0.48779758878954455,-0.48779758878954455,0.999776763195827,0.0003479452161269327
-0.48767274733327215,-0.48767274733327215,0.9996935559258076,0.0003586902732707623
-0.4875409123451391,-0.4875409123451391,0.9998755477102769,0.00042970939132933766
-0.4873354625888169,-0.4873354625888169,1.0004007662472523,0.0003511973588487703
-0.4872408007817285,-0.4872408007817285,0.9999140492729127,0.0004169434859480102
-0.4871376093491563,-0.4871376093491563,1.000475730247022,0.000463859402583666
-0.4869834366574651,-0.4869834366574651,1.0003278480432773,0.0003785829944919853
-0.4868195460338029,-0.4868195460338029,0.9996918090967613,0.0004479864894168598
-0.4866890314144257,-0.4866890314144257,0.9991813036840493,0.0004185958768976979
-0.4866209244057245,-0.4866209244057245,1.000885315259053,0.0004306301711388661
-0.48646434329930344,-0.48646434329930344,0.9995952608459877,0.0004410793862858936
-0.48628596484995795,-0.48628596484995795,0.9997583068609377,0.00043172103366566816
-0.4861349645332666,-0.4861349645332666,1.0000821813019776,0.00037156209523646447
-0.4860216394903546,-0.4860216394903546,1.0004197389798701,0.0003613773987059436
-0.4858410205997643,-0.4858410205997643,0.999973112595017,0.00034340422867386127
-0.48571401072040316,-0.48571401072040316,0.9999773141674162,0.00036129773959892584
-0.4855026768120297,-0.4855026768120297,1.0000038980166317,0.0003361927783561661
-0.4853670264557877,-0.4853670264557877,0.9998795830372826,0.0003578555726411397
-0.48525100062033744,-0.48525100062033744,1.0002462477262029,0.0005049341240943455
-0.4851251390122343,-0.4851251390122343,0.9999697323203571,0.0005128327772118146
-0.48497571054540456,-0.48497571054540456,1.0007723915601217,0.00035338596051009394
-0.4848847302717331,-0.4848847302717331,1.0000886187244789,0.00037234051972260445
-0.4847843830444617,-0.4847843830444617,1.00017924223627,0.0003809241713145728
-0.4846164133021375,-0.4846164133021375,1.000341564900785,0.00035538171936658956
-0.484510299921385,-0.484510299921385,0.9998769749331873,0.0004343455307074488
-0.48437524283799577,-0.48437524283799577,0.9998836340599,0.0003668742272662631
-0.48425934970073287,-0.48425934970073287,0.9996858950561134,0.00039017436254903633
-0.4841058358178998,-0.4841058358178998,0.999809278397213,0.0004241251177501392
-0.4839962799240311,-0.4839962799240311,1.000053374105479,0.00035254444418645497
-0.4838876049019746,-0.4838876049019746,1.0006076606103256,0.0003756087988987711
-0.4837171236635186,-0.4837171236635186,0.999956693283044,0.00036885880222566704
-0.48355074677892845,-0.48355074677892845,1.0000156436630259,0.0004418581300051327
-0.48344644738099307,-0.48344644738099307,1.0000588210784123,0.00032055595330332586
-0.48334908511242247,-0.48334908511242247,1.000030224678874,0.00035035913096608505
-0.4832450901856646,-0.4832450901856646,0.9996530935437627,0.000455548773812058
-0.4831680868039257,-0.4831680868039257,0.9998461376901376,0.00033094228227651876
-0.4830361701628135,-0.4830361701628135,0.9998546092790889,0.0003155854307309499
-0.48289508131638287,-0.48289508131638287,1.0000669324486595,0.00036058116795357575
-0.4827584727747308,-0.4827584727747308,0.9999863415498552,0.0004367193170998041
-0.4826099751648144,-0.4826099751648144,0.9998576579486123,0.0003411650578695305
-0.4825231342969346,-0.4825231342969346,0.9997342608106109,0.00044376888401698145
-0.4824006724142237,-0.4824006724142237,1.0000214671806351,0.00036652434828682507
-0.48233377763754104,-0.48233377763754104,1.0003155549128566,0.0004105351066275572
-0.48229726584322635,-0.48229726584322635,0.9995049694281274,0.0005333108574073198
-0.4821572611159354,-0.4821572611159354,0.9998055522791655,0.00042709400905456
-0.482080292597675,-0.482080292597675,0.9999327512498978,0.000376432710515967
-0.48195200974951147,-0.48195200974951147,1.0005431445644777,0.0004375443462502084
-0.4817824669145921,-0.4817824669145921,1.000437325024439,0.00032856592518734417
-0.48165136924435503,-0.48165136924435503,1.0003590050852147,0.0004965102188426093
-0.4815542494892725,-0.4815542494892725,0.9999718430181856,0.00036555487056542626
-0.4814380730145785,-0.4814380730145785,1.00051481785402,0.0005386338372880149
-0.48133122083672786,-0.48133122083672786,1.0001080990762095,0.00037077257686294414
-0.48123207945609464,-0.48123207945609464,0.9997227202491341,0.0003523550141083259
-0.4811009345605271,-0.4811009345605271,0.9999371716943471,0.00030845943124437194
-0.48095678730969665,-0.48095678730969665,0.9998596550827953,0.0004293978163915781
-0.4808457414575969,-0.4808457414575969,1.0001303896701061,0.00036526043057697675
-0.48077020912314766,-0.48077020912314766,0.9997844054448874,0.00033027356466204565
-0.48070401332806795,-0.48070401332806795,1.000129753285734,0.0004534972685587596
-0.480546157448407,-0.480546157448407,1.0000802195066714,0.0004843526429640658
-0.4803801413647307,-0.4803801413647307,0.9996381193220252,0.0004167797047621688
-0.48028862933570055,-0.48028862933570055,1.0003376081026711,0.00036590830110535004
-0.4801147258003766,-0.4801147258003766,1.0001139872592835,0.0003881827752496333
-0.48000339107748,-0.48000339107748,0.9997215149978074,0.000524592003989605
-0.4798742519618827,-0.4798742519618827,1.0000663297801173,0.00035658575580600586
-0.47972855175685253,-0.47972855175685253,1.0001790461864855,0.0003476464327166726
-0.4796106777808745,-0.4796106777808745,1.0000816589758854,0.0003473345339775549
-0.47952641888768993,-0.47952641888768993,1.0000776619502605,0.00034117514332361956
-0.4794123833147751,-0.4794123833147751,0.9998941473901048,0.0003585493179542564
-0.4792901259963401,-0.4792901259963401,0.9996715525402028,0.0003472568347046283
-0.47914631126695895,-0.47914631126695895,1.0003621771934346,0.0004596688253661337
-0.47902841432587595,-0.47902841432587595,0.999472072353328,0.0003497521334268435
-0.47889632443402663,-0.47889632443402663,1.0001021918262702,0.0004435346463352155
-0.4787490865768632,-0.4787490865768632,0.9999494222087119,0.0005091417653894323
-0.4786342053565022,-0.4786342053565022,1.0005627233713335,0.0004256353227021376
-0.47849547235746287,-0.47849547235746287,0.9995519328382194,0.00036208225413328295
-0.4783962452180276,-0.4783962452180276,0.9999508575991969,0.0004690389729488383
-0.47828696574870266,-0.47828696574870266,1.000045046174141,0.000378411411531164
-0.4781119932406,-0.4781119932406,0.9999418945903431,0.00035678607559420483
-0.47805260542445466,-0.47805260542445466,0.9997613886877668,0.00036867665727034125
-0.4779647158735315,-0.4779647158735315,0.9997004231223432,0.00048134913344122373
-0.47787177658319707,-0.47787177658319707,1.0000197058193154,0.0003666469844036467
-0.4777691826064256,-0.4777691826064256,0.999909165833731,0.00035311219403676874
-0.4776661192539905,-0.4776661192539905,1.0002569468233427,0.00043977696109783577
-0.4775275556850829,-0.4775275556850829,0.9998936666877796,0.0003538980156660528
-0.4774085529941658,-0.4774085529941658,1.0004111868321113,0.00035553219477732115
-0.4772609172410739,-0.4772609172410739,0.9997526869475998,0.0003583995965625456
-0.4771104111467139,-0.4771104111467139,0.9997646553914906,0.0003414859081154665
-0.4770457754457311,-0.4770457754457311,0.9999783489590142,0.0004361609017137986
-0.47694006246019854,-0.47694006246019854,0.9992796895924879,0.0003554846768487292
-0.4768210887268651,-0.4768210887268651,0.999685861341994,0.00038827635208594016
-0.47670660549702004,-0.47670660549702004,1.0002103309028079,0.0004570487500468132
-0.4765872566211328,-0.4765872566211328,1.000135727511506,0.0004110220306276553
-0.47648101616359784,-0.47648101616359784,1.0000979458023553,0.00044437059509544214
-0.47637187082727905,-0.47637187082727905,0.9999239927246257,0.0004413992923358578
-0.4762444785425032,-0.4762444785425032,1.0003675560136365,0.0004567381524234952
-0.4760756289848359,-0.4760756289848359,0.9999242153075825,0.00042837031491920846
-0.47596266036052837,-0.47596266036052837,0.9997840431606264,0.0003679047872450755
-0.4758704011401278,-0.4758704011401278,0.9994817082877269,0.00037822192679582507
-0.4757764849171508,-0.4757764849171508,0.9995511275774174,0.000456945216503547
-0.47561030363795,-0.47561030363795,1.0001946179177814,0.00033184216511076
-0.4754834935891267,-0.4754834935891267,0.9999764340769823,0.0004207306317286385
-0.47536155979469186,-0.47536155979469186,1.000121907901179,0.0003505865930599202
-0.4752129249842255,-0.4752129249842255,0.9999390567647577,0.00042180779786280323
-0.47512810496773455,-0.47512810496773455,0.9999181799944477,0.0005062670154918046
-0.47501200559490825,-0.47501200559490825,0.9998775276293911,0.0004416588524840803
-0.4748962992998713,-0.4748962992998713,0.999824582591869,0.0005097406322034164
-0.47477582932842777,-0.47477582932842777,1.000007069652387,0.0004205501612211023
-0.47467243340579446,-0.47467243340579446,1.000475899251851,0.00033495404143050317
-0.4745634741986578,-0.4745634741986578,1.000206049082325,0.00044683761600660245
-0.4744028383800469,-0.4744028383800469,1.0008135993443168,0.0004744191169159224
-0.47429472742805956,-0.47429472742805956,0.9999081620154463,0.00043096795338122334
-0.4740863199411251,-0.4740863199411251,0.9994863160676417,0.00046546328712717593
-0.47393027328071186,-0.47393027328071186,1.0000655955337718,0.00042264664939339793
-0.473784273029014,-0.473784273029014,1.0004676801724095,0.0003497218295019662
-0.47364760187119825,-0.47364760187119825,0.9995253452587025,0.0003486880586156805
-0.4735305569432967,-0.4735305569432967,1.0001790690940384,0.0005335141574300492
-0.4734364109957824,-0.4734364109957824,1.0002951556514117,0.00044243837688786745
-0.47332184829137985,-0.47332184829137985,1.0002985824362287,0.00034271911090471885
-0.473186180410994,-0.473186180410994,1.0001567893894676,0.0003602142735292387
-0.47308784763445144,-0.47308784763445144,0.9997594193955953,0.00042687047640689363
-0.4729770544974599,-0.4729770544974599,1.0000202212531055,0.00035277922041647414
-0.4728762505983468,-0.4728762505983468,1.0006064134772963,0.00045601548721956156
-0.4727956614042341,-0.4727956614042341,1.0001625069773319,0.00041914072970434586
-0.4725481731424225,-0.4725481731424225,0.9999554366031849,0.00044424828980379826
-0.47236850759072696,-0.47236850759072696,0.9998379462529691,0.0004374777722717758
-0.47227897814227615,-0.47227897814227615,0.9997011228830717,0.00037802632354825655
-0.47218419208438717,-0.47218419208438717,0.9999369870233281,0.00043959330162251224
-0.4721063956269063,-0.4721063956269063,0.9995845106254734,0.0004912561786693077
-0.47203228033904454,-0.47203228033904454,1.0001863606845651,0.00045079783742436197
-0.47191105660895116,-0.47191105660895116,1.0001461786017811,0.0004307972056856313
-0.47177777029501156,-0.47177777029501156,0.9999066738733898,0.000394980814930469
-0.471664416956628,-0.471664416956628,1.0000943278863028,0.0003500314315599544
-0.47156526165053947,-0.47156526165053947,0.9999079108828344,0.0003578797070792384
-0.4714363669503655,-0.4714363669503655,1.000326261269505,0.00044825331497167783
-0.47133544213138523,-0.47133544213138523,1.0000214293381298,0.000449111023960526
-0.4711436476987728,-0.4711436476987728,1.0001814811349905,0.0003711309358355408
-0.4709810870888759,-0.4709810870888759,0.9999670868475932,0.0004389153603552586
-0.4708315622578084,-0.4708315622578084,1.0000011485183653,0.00032009150830733583
-0.47072385473293255,-0.47072385473293255,1.000051782929385,0.0003511917321975063
-0.4706261805600661,-0.4706261805600661,1.0001308414506374,0.00037192428614203946
-0.47052892914289257,-0.47052892914289257,0.9997219703833865,0.00034502674793350263
-0.4703913939811173,-0.4703913939811173,0.9999838802508855,0.00040254567786087635
-0.47022621539363174,-0.47022621539363174,0.9997126946884404,0.000428830792177044
-0.47007756071107,-0.47007756071107,1.00038850538517,0.0003600410655251424
-0.46997313516694705,-0.46997313516694705,1.0001096537280545,0.0004300198405222419
-0.46979294792108706,-0.46979294792108706,1.0002678764470019,0.0005305262228279807
-0.4696030108549166,-0.4696030108549166,1.0001082395937393,0.0004429608146425449
