time,time,flux,flux_err
-0.4998621093989641,-0.4998621093989641,1.0000444615076975,0.00020983890985471458
-0.4997500959027093,-0.4997500959027093,1.0002662152712625,0.00019749497677877
-0.49953480705589753,-0.49953480705589753,0.9999107976550269,0.0002070309536190717
-0.49942532330387623,-0.49942532330387623,0.999756147262555,0.0001983197306401245
-0.49927616039567513,-0.49927616039567513,1.000016559096488,0.00020542388101472842
-0.4990668275175267,-0.4990668275175267,0.9998076868960384,0.00021260926399224332
-0.49887664390626013,-0.49887664390626013,0.9998559915662298,0.0001893752757925097
-0.4987453419591475,-0.4987453419591475,0.9997936797634708,0.00019634436647859654
-0.4986297413430293,-0.4986297413430293,0.9999581042082699,0.0002069983531457201
-0.49850714358035475,-0.49850714358035475,1.0000283073817113,0.00020741546519841047
-0.49829749351047214,-0.49829749351047214,0.9999895315312994,0.00022197748962542494
-0.49815296935339576,-0.49815296935339576,0.9998532722397868,0.00019502571660169631
-0.4979721104464261,-0.4979721104464261,0.9999974919468609,0.00021436602477539727
-0.4978068627176981,-0.4978068627176981,0.999967431940971,0.0002069630866466542
-0.4977063005979289,-0.4977063005979289,1.0000903875697458,0.00021577261894868203
-0.4976261094416259,-0.4976261094416259,1.0001106237254194,0.00020382786616917676
-0.49745004727301423,-0.49745004727301423,0.9998830342781039,0.00020664330622883754
-0.4973482718327432,-0.4973482718327432,1.0001716819043276,0.0002057846081162992
-0.4972619205102092,-0.4972619205102092,1.0002329443685165,0.00019906855616859327
-0.49716401264522575,-0.49716401264522575,0.9997938531879115,0.00020967065419410608
-0.4970973796618637,-0.4970973796618637,1.000321834213532,0.00021951394656878604
-0.497010284159478,-0.497010284159478,0.9997399429099246,0.00021451606291110568
-0.4968992507063376,-0.4968992507063376,1.0001208609096977,0.0002053594436457742
-0.49677334515799887,-0.49677334515799887,0.9998435033191333,0.00020628316080058664
-0.4966867508672294,-0.4966867508672294,1.0000711157724678,0.00021414036708254907
-0.49661043655287357,-0.49661043655287357,0.9999245318218856,0.00020643625020034124
-0.49652383772991016,-0.49652383772991016,1.0000817795380819,0.00020396504424791289
-0.4963563586839882,-0.4963563586839882,0.999831282143191,0.00020258932246734044
-0.4962367794942111,-0.4962367794942111,1.0003805312233387,0.00021131417971135963
-0.49605089773685906,-0.49605089773685906,1.0000556050446836,0.00025057675360923157
-0.49590799114084805,-0.49590799114084805,0.9997339695599358,0.00020367899548028563
-0.4957105821384175,-0.4957105821384175,0.9996697471183129,0.00020517964248126258
-0.49556701316978435,-0.49556701316978435,0.9998858389943,0.00019714309306885334
-0.49545517987789933,-0.49545517987789933,0.9998636245155165,0.000224281760379582
-0.49529533489767347,-0.49529533489767347,0.9998108041818987,0.00019779774029752818
-0.4952355363020615,-0.4952355363020615,0.9999153543189283,0.00021102837881789306
-0.4951224935684877,-0.4951224935684877,0.9998094266192263,0.00020608938735820412
-0.49496753567436824,-0.49496753567436824,1.000092096135322,0.00020236615996316163
-0.49473533830750965,-0.49473533830750965,1.0000592114888693,0.00021273649285560267
-0.49446295455927614,-0.49446295455927614,0.9998236548654958,0.0002093896797406828
-0.49428371718968267,-0.49428371718968267,1.000193838378328,0.0002023999075440092
-0.4941302869163337,-0.4941302869163337,0.9999539783426712,0.0002002165449201037
-0.4940227847750066,-0.4940227847750066,1.0001652853804783,0.00020760021399044088
-0.49388999568036523,-0.49388999568036523,1.0001569546137892,0.0002040750987119735
-0.4936359009196167,-0.4936359009196167,0.9997227359535517,0.00019541633616191497
-0.49355524710917964,-0.49355524710917964,0.9999928003295192,0.00020247591097857627
-0.4933920901836245,-0.4933920901836245,0.9998270065614803,0.00020638043032558144
-0.49324223341754986,-0.49324223341754986,1.000034278803956,0.00020544225571565207
-0.4931120411165466,-0.4931120411165466,0.9999361925757316,0.00020918246961144625
-0.49287159003142733,-0.49287159003142733,0.9998631778117467,0.0002117994828870789
-0.492703405325301,-0.492703405325301,0.9998722990850993,0.00020219802124060607
-0.49258085656183537,-0.49258085656183537,0.9999301991692493,0.00021104394893238878
-0.4924196426240087,-0.4924196426240087,0.9997173888205078,0.00021472884478045297
-0.492294139607111,-0.492294139607111,0.9996934117273899,0.00019498627244880868
-0.49221098371199334,-0.49221098371199334,1.000114206978795,0.00022240681538723633
-0.49211259740040986,-0.49211259740040986,0.9998806594242593,0.0002067079320854656
-0.49194268516585,-0.49194268516585,0.999750340190591,0.00021097848458896052
-0.4918669936785591,-0.4918669936785591,1.0005250239733159,0.00021768772965159673
-0.4917660508246627,-0.4917660508246627,1.0004515928873494,0.00021607003567628434
-0.49161965161692933,-0.49161965161692933,1.0001383436434963,0.00021371568589626048
-0.4914744451722072,-0.4914744451722072,0.9996718042349538,0.00020948991096113068
-0.4913430254855484,-0.4913430254855484,1.0000646192058993,0.00022900135170544764
-0.4912504052757868,-0.4912504052757868,0.9999728553731281,0.0002096416251445481
-0.4910876873123925,-0.4910876873123925,0.9998326964962662,0.00019904960770789857
-0.49094636465379154,-0.49094636465379154,1.000111883448631,0.0002047180959120445
-0.4908208131120773,-0.4908208131120773,1.000202693127105,0.0002716870058794681
-0.49067747524532024,-0.49067747524532024,0.9999998218135,0.00019787719647631672
-0.49050555156354675,-0.49050555156354675,0.9998057705171919,0.00023363762662035876
-0.49026978270267135,-0.49026978270267135,1.000422554044002,0.00021416127644362666
-0.49010850363411007,-0.49010850363411007,0.9999794053287252,0.0002186921109788551
-0.4900062930864806,-0.4900062930864806,0.9999834841884715,0.00020823710841794862
-0.4898769384541083,-0.4898769384541083,1.0000561738478366,0.0001921848149319555
-0.48977624676335835,-0.48977624676335835,1.0000272219977115,0.0001941360367109264
-0.48961642067806677,-0.48961642067806677,0.9999087533010741,0.00020633691761424628
-0.4894918948819395,-0.4894918948819395,1.000069479301325,0.0001960305833002217
-0.48934677445649866,-0.48934677445649866,0.9997642491005102,0.00020414398789123447
-0.4890815323393326,-0.4890815323393326,0.9999353853680322,0.00020830080337019315
-0.48889318671499493,-0.48889318671499493,1.000249714519585,0.00020679690898977535
-0.4887807580547815,-0.4887807580547815,1.0000133015057,0.00019666375053794486
-0.48864225175930187,-0.48864225175930187,1.0000559141587513,0.00020201896537470795
-0.4884237377358659,-0.4884237377358659,1.0000832711024183,0.00020168652135333287
-0.48822999814074136,-0.48822999814074136,0.999858848293219,0.00019390318586247124
-0.4880002294543374,-0.4880002294543374,1.0001575365802446,0.00019922854498110668
-0.48784394919784974,-0.48784394919784974,0.9999476727094325,0.00021347865208352877
-0.4877195689376094,-0.4877195689376094,1.0002482603967404,0.00019890919149389606
-0.4875732474392862,-0.4875732474392862,1.0000718671372533,0.00020285684287574905
-0.4874168312002439,-0.4874168312002439,0.9999495238096874,0.00020598694419024635
-0.4872554478679376,-0.4872554478679376,1.0001588918933,0.0002198035146141329
-0.4871637700489373,-0.4871637700489373,1.0000325499516243,0.0002157718936158146
-0.4870546428624948,-0.4870546428624948,0.9998931752895928,0.00021048049838562336
-0.4869228704490524,-0.4869228704490524,1.0002484233844275,0.000212741632859652
-0.48676764372212344,-0.48676764372212344,1.0002139083515111,0.00020811477836235793
-0.4866701547507546,-0.4866701547507546,1.0000469555413942,0.00020681794384635674
-0.48653164974675744,-0.48653164974675744,1.00014892377228,0.0002136863305115031
-0.48643058408633805,-0.48643058408633805,0.9999281723959612,0.0002217831766468651
-0.48635069306765216,-0.48635069306765216,1.0002095732413667,0.00021919143964630258
-0.4862169885192998,-0.4862169885192998,1.0002337322966202,0.00021356590154724452
-0.4860270886732906,-0.4860270886732906,1.0002213417251107,0.000257628092552073
-0.48586921110836556,-0.48586921110836556,0.9999238178485571,0.00021227418283663248
-0.48576450539258076,-0.48576450539258076,1.0001214074092526,0.00020396380203563475
-0.4856637906115793,-0.4856637906115793,1.0001741617707829,0.00020043451922275478
-0.4855707706788962,-0.4855707706788962,0.9997192616017987,0.0002042932677033343
-0.48538726715851227,-0.48538726715851227,0.999910961500986,0.00021135315605267253
-0.48523358175953035,-0.48523358175953035,1.0002204072992162,0.00021733197186347446
-0.48500702735473167,-0.48500702735473167,0.9999036836755171,0.00021362584429269224
-0.48487233552878023,-0.48487233552878023,0.9998401955200611,0.0001979763808070773
-0.4847444135193655,-0.4847444135193655,1.000233354793116,0.00021518580664469218
-0.48464961960416986,-0.48464961960416986,1.0003717699794632,0.00021545544038758247
-0.48451962241379076,-0.48451962241379076,0.9997659481767329,0.00019417042820426989
-0.48442074554041026,-0.48442074554041026,1.0000400263236395,0.0001988917051016353
-0.48434920070722,-0.48434920070722,0.9997688645458128,0.00022023769980000608
-0.48420850592228815,-0.48420850592228815,1.0001573904689303,0.0002014022129289971
-0.4841058473684825,-0.4841058473684825,0.9997867104881314,0.00019669057067181575
-0.48396536384534555,-0.48396536384534555,1.000002566933554,0.00021186515586333652
-0.4837642322432657,-0.4837642322432657,1.000246782380919,0.0002075427517236357
-0.4835084213736991,-0.4835084213736991,0.9997840550236955,0.00021124597367841281
-0.48338951926998563,-0.48338951926998563,1.000026907941018,0.00019604055190057009
-0.48331190039534705,-0.48331190039534705,0.9999472892711045,0.0002660356411357326
-0.4831267653644318,-0.4831267653644318,0.9998704724824309,0.0002054640990790077
-0.4829277372016804,-0.4829277372016804,0.9995704681972171,0.00020084570380204768
-0.4827635307374294,-0.4827635307374294,1.0002320753303444,0.000189865960490408
-0.482609574511298,-0.482609574511298,0.9999376854399525,0.00021179789244788323
-0.48249705045018343,-0.48249705045018343,0.999987338802072,0.00020518416271461757
-0.48226940884342184,-0.48226940884342184,1.0001352356511823,0.00020651980140375315
-0.4820983542187605,-0.4820983542187605,1.0000533517703973,0.00020305367545090142
-0.4818801340377831,-0.4818801340377831,0.9999822497191737,0.00021574806759289963
-0.4817074958693411,-0.4817074958693411,1.000130292288992,0.0002069469999486438
-0.48162532412679865,-0.48162532412679865,1.0003804787799506,0.00020808689912341438
-0.48152545020275284,-0.48152545020275284,1.0000480876159734,0.00020933720828021497
-0.4813887354910548,-0.4813887354910548,0.9996424877744415,0.00020467112453684933
-0.48129819031819354,-0.48129819031819354,1.0000561153925407,0.0002114270550420836
-0.4812025475344853,-0.4812025475344853,0.9999753752419048,0.00020255719085870757
-0.4811101231134671,-0.4811101231134671,0.9998711555093853,0.00021248585452769204
-0.4810404235380702,-0.4810404235380702,1.0002287507989158,0.00020576780555924952
-0.48096119073670707,-0.48096119073670707,0.9996949723206422,0.00021453339198776008
-0.4808394236570166,-0.4808394236570166,1.0003187334566048,0.00020931738606229088
-0.48067721997285845,-0.48067721997285845,0.9999522900035365,0.0002052419510377713
-0.4806031902880932,-0.4806031902880932,0.999907404479256,0.00022638144341187755
-0.4805207973869983,-0.4805207973869983,1.0000708053683174,0.0001976326628242592
-0.48039456796032026,-0.48039456796032026,1.0000290103500689,0.00020684409720028965
-0.48024504811037333,-0.48024504811037333,0.9998918321138573,0.00020302095959859285
-0.48012592183076774,-0.48012592183076774,1.0001404913752807,0.00021414636702997498
-0.4799363099846232,-0.4799363099846232,0.9994595102516136,0.000245770236173843
-0.4797762090754986,-0.4797762090754986,0.9997934113895237,0.0002086648151506043
-0.47958037321586744,-0.47958037321586744,1.000087193120698,0.00020044968835011048
-0.47950452204313476,-0.47950452204313476,1.0003975768628883,0.00020127294367146362
-0.47937232715921707,-0.47937232715921707,1.0002376516881095,0.0002263667661728801
-0.47923923108246524,-0.47923923108246524,1.0002542780384127,0.00019795026662858088
-0.4791693793791637,-0.4791693793791637,0.9996915473512351,0.0002109336465280903
-0.479080104122113,-0.479080104122113,0.9999826961594328,0.000206917935951835
-0.47900187489867674,-0.47900187489867674,1.0000781737849285,0.00019627492400525778
-0.4788202349074709,-0.4788202349074709,0.9999963160275884,0.0002102134152134238
-0.4785914323438192,-0.4785914323438192,0.9998916658575456,0.00020938079674823624
-0.4783440035433159,-0.4783440035433159,0.9999212516603413,0.00020862174862960065
-0.4782227930445515,-0.4782227930445515,0.9998847319395052,0.00020308282872298706
-0.47806653693769474,-0.47806653693769474,1.000081636019171,0.0001970218756347204
-0.477957853787666,-0.477957853787666,0.9999552741146122,0.00020693231807800003
-0.4778179249522509,-0.4778179249522509,0.9997443804521519,0.0002068634010903034
-0.4775900302847731,-0.4775900302847731,0.9999863764050317,0.00019561161326150331
-0.4775100372658926,-0.4775100372658926,1.0001219703550874,0.00020256785757738932
-0.4773359396502201,-0.4773359396502201,1.000147071224664,0.00020957037336618526
-0.477196132660174,-0.477196132660174,1.000047028960692,0.00020545131892063924
-0.477098089944775,-0.477098089944775,0.9998212352418141,0.00020919409989072563
-0.4768649690478924,-0.4768649690478924,0.9997708270213665,0.00024250047776470216
-0.47666232637129724,-0.47666232637129724,0.9998824446232473,0.0002022005918541301
-0.47655228995354265,-0.47655228995354265,1.0002582820374184,0.00021096110331220923
-0.476444890996936,-0.476444890996936,1.0000400513171637,0.00021452676071315868
-0.4762804615587811,-0.4762804615587811,1.000189341046487,0.00020150444853398987
-0.4761772392303101,-0.4761772392303101,0.999897283720016,0.00020574484666869064
-0.4760338569663872,-0.4760338569663872,1.0000286380046635,0.0002076915515711694
-0.47589388060587223,-0.47589388060587223,0.9998063613674925,0.0002062201587924581
-0.47581002324077415,-0.47581002324077415,0.9999550129982208,0.00020286239579634757
-0.4757046948558127,-0.4757046948558127,1.0003049188520399,0.00020816197223315702
-0.4755963973198959,-0.4755963973198959,1.000106777327633,0.00021381074500314667
-0.4754872687801253,-0.4754872687801253,1.0001167323717637,0.0002088512399905427
-0.47532769492463556,-0.47532769492463556,0.9997786967842798,0.00020653653359741813
-0.47522900643889443,-0.47522900643889443,1.000088893786435,0.00021223302507815205
-0.4750184475247806,-0.4750184475247806,1.0000206450647444,0.00019726573960814926
-0.4749196567259787,-0.4749196567259787,1.0001319348441775,0.00020206324676096048
-0.47479978224946534,-0.47479978224946534,1.0003183439003192,0.00021321613204262836
-0.4746396061695123,-0.4746396061695123,1.000022703653513,0.00026122310317615104
-0.474466383158142,-0.474466383158142,0.9999119191475307,0.00023461073489648455
-0.47426182396520744,-0.47426182396520744,1.0001692963517033,0.00020369490802659893
-0.47410094067890896,-0.47410094067890896,0.9999780957348576,0.00021798257937781246
-0.4739924838009756,-0.4739924838009756,0.9998427252066101,0.00021066676033574646
-0.47383533007305234,-0.47383533007305234,0.9998556199685604,0.00019218054871430573
-0.4737601779284887,-0.4737601779284887,0.9995311385338408,0.00019688360674524982
-0.47357835569418966,-0.47357835569418966,1.000201924591602,0.0001984844294603806
-0.4734132485195005,-0.4734132485195005,0.9999103983538123,0.00020596526664751666
-0.47327522825435153,-0.47327522825435153,0.9998108217461124,0.00020858978333562406
-0.47299530873351614,-0.47299530873351614,1.0000765569851606,0.00021071968588996814
-0.47286952846552593,-0.47286952846552593,1.0002333667963825,0.00020189909928194078
-0.47274388498844927,-0.47274388498844927,0.9999754947709771,0.00020027471466214133
-0.47260132676456124,-0.47260132676456124,1.0000252007730122,0.00019672666403652166
-0.47241110654722435,-0.47241110654722435,0.9999621474855488,0.00021091430062390775
-0.4721550613277941,-0.4721550613277941,1.0000444971834095,0.00019467641327651773
-0.47195272186436343,-0.47195272186436343,0.9999485320945978,0.0001993364186686401
-0.4718077100529626,-0.4718077100529626,0.9999378270004214,0.00021066281649844586
-0.471723940098309,-0.471723940098309,1.000050949365157,0.00020099567654454313
-0.4715366031326994,-0.4715366031326994,1.0000948296148444,0.00020292553088355122
-0.4713829120271839,-0.4713829120271839,1.0000678564043153,0.0002020596509502344
-0.47124554202746366,-0.47124554202746366,0.9999019312612546,0.0002204907630856779
-0.47108347139219403,-0.47108347139219403,0.9999672853308414,0.00021093601156517986
-0.4709673025725351,-0.4709673025725351,1.0000592066328147,0.00020512245555608615
-0.4708209940479719,-0.4708209940479719,0.9997952488866437,0.00021413932001008597
-0.4706933516492427,-0.4706933516492427,0.9999842696956509,0.00021055750787375805
-0.4706229657676886,-0.4706229657676886,0.9998104946753523,0.0002034997288932015
-0.4705020656794659,-0.4705020656794659,1.0004297204631,0.0002062971107394031
-0.4704053608817048,-0.4704053608817048,1.0003769368763982,0.0002313903937190132
-0.470317287780199,-0.470317287780199,0.9999762639884,0.00021323662134605398
-0.4702407269003743,-0.4702407269003743,1.0002163700421136,0.0002095124294121238
-0.47003899562041623,-0.47003899562041623,0.9999554081812272,0.00021465931307974696
-0.4699134566712019,-0.4699134566712019,1.0004157621505096,0.0002043592607615734
-0.46979849667477536,-0.46979849667477536,0.9998017186226885,0.00021822112465663194
-0.469724237848277,-0.469724237848277,1.0001321588529535,0.00020489711767991025
-0.46961414652032546,-0.46961414652032546,1.0000956332302198,0.0002004833483615634
-0.46952456269282267,-0.46952456269282267,0.9998655844224296,0.00020433042263665502
-0.4693242840228777,-0.4693242840228777,1.0002116672738925,0.00021305668111769048
-0.4691239320585737,-0.4691239320585737,0.9997474627817216,0.00023041125582519967
-0.4688875749132421,-0.4688875749132421,0.9999115800484386,0.00021210545884646433
-0.4687336241622688,-0.4687336241622688,0.9999820664176706,0.00021183621369418328
-0.4685995260668278,-0.4685995260668278,1.0000430987261721,0.0002082427252783002
-0.46847601507688524,-0.46847601507688524,0.9999452381400324,0.00019419295832836012
-0.46837536911989447,-0.46837536911989447,0.9999789334234969,0.00020367782507242781
-0.4682543314345821,-0.4682543314345821,1.0000057822323674,0.00019803740868231556
-0.4681178182749136,-0.4681178182749136,1.0000955451014775,0.0002054265217667986
-0.4680076524266042,-0.4680076524266042,1.0001404705782728,0.00020951371968688098
-0.46778714239335384,-0.46778714239335384,1.000015426215126,0.00020015150130533755
-0.467630436347099,-0.467630436347099,1.0002946445821672,0.00021325676173490545
-0.4674095434413175,-0.4674095434413175,1.0001646868848284,0.00020612952359647167
-0.4673345690818678,-0.4673345690818678,0.9999902343530966,0.00020057712781978437
-0.4672434266416531,-0.4672434266416531,1.0001386858384405,0.0002664777020899949
-0.4670522915308538,-0.4670522915308538,0.9998748789656933,0.00020020078907877895
-0.46687656937720023,-0.46687656937720023,0.9998783021193649,0.00020088348943441819
-0.4667499234448769,-0.4667499234448769,0.999917732080753,0.00018986827683073365
-0.46658293504006,-0.46658293504006,1.0003553705173303,0.0002037610611017772
-0.46647522839994054,-0.46647522839994054,0.9998388379876937,0.00020948406211891533
-0.46629603927067365,-0.46629603927067365,1.0000344709012114,0.00020720728821838568
-0.4661164800221741,-0.4661164800221741,0.9996144795838191,0.00020611635077218696
-0.4659674431932217,-0.4659674431932217,0.9998670372160607,0.00020501070047932663
-0.46577861389669123,-0.46577861389669123,1.0001526087877533,0.00020781910442325808
-0.46566539664927403,-0.46566539664927403,0.9999626870238372,0.00020704316051994246
-0.4655770308963838,-0.4655770308963838,1.000011871352399,0.00020809878082640585
