time,time,flux,flux_err
-0.4979250790570404,-0.4979250790570404,1.0000084186987859,0.0001070309869969655
-0.4954351779233548,-0.4954351779233548,0.9999375039121005,0.00010630789846126731
-0.4940329676063963,-0.4940329676063963,1.000032756550185,0.00010643301573366203
-0.4919943814541057,-0.4919943814541057,1.000244803392539,0.0001065289864092954
-0.49119406502168206,-0.49119406502168206,0.9999244009133698,0.00017981550990248796
-0.4905812812097793,-0.4905812812097793,1.0060283409138933,9.728750934833604e-05
-0.48897315011372483,-0.48897315011372483,1.0001387502160024,9.718857314227998e-05
-0.48712371707715646,-0.48712371707715646,1.0000654670574352,9.782275326621946e-05
-0.4847686839790185,-0.4847686839790185,1.0004188591337266,9.705214503169085e-05
-0.48405480230239845,-0.48405480230239845,1.0000099365537165,9.7207105208693e-05
-0.48184867292347916,-0.48184867292347916,0.9998772277775926,9.711206551313653e-05
-0.4812088164130728,-0.4812088164130728,0.9999281894071034,0.00018069934096573797
-0.48056551230556577,-0.48056551230556577,1.0002930810665789,9.710438456578399e-05
-0.47961037110680993,-0.47961037110680993,1.0216744807451295,9.798781468249571e-05
-0.4768559423676379,-0.4768559423676379,1.0003150985401625,9.782412709293338e-05
-0.4749950137914311,-0.4749950137914311,1.0000884952083542,9.714264732217984e-05
-0.4739436477235358,-0.4739436477235358,1.0002600898507954,9.704706410424799e-05
-0.4724349712043477,-0.4724349712043477,0.9998380631900765,9.712574868672529e-05
-0.47121081149425664,-0.47121081149425664,0.9997698626318556,0.00018282918249446365
-0.4704320951207592,-0.4704320951207592,1.0003007111872357,9.724740220427e-05
-0.4697418135974658,-0.4697418135974658,1.0046147419737033,9.728485281133546e-05
-0.46757605589364176,-0.46757605589364176,0.9998556383231108,9.806022017050382e-05
-0.4655434847468314,-0.4655434847468314,0.9999988937537548,9.703194283534749e-05
-0.4637311387191403,-0.4637311387191403,0.9998531835508591,9.699835449952169e-05
-0.4625607072466664,-0.4625607072466664,1.0004338115804825,9.716066542816602e-05
-0.46101079150939767,-0.46101079150939767,1.00022782192131,9.728977266486222e-05
-0.4604150795565147,-0.4604150795565147,1.0004873732907806,0.00018774180429889236
-0.4598591909689276,-0.4598591909689276,0.9998894195687041,9.704833338948538e-05
-0.4583350460968177,-0.4583350460968177,1.001771142072106,9.734967837067768e-05
-0.45600232995875556,-0.45600232995875556,0.9997928067321533,9.795727265442317e-05
-0.45384391519928613,-0.45384391519928613,0.9997530255053897,9.702501927316657e-05
-0.45313038887752555,-0.45313038887752555,1.0001127824551315,9.718950726985475e-05
-0.45125859602248963,-0.45125859602248963,1.0001325152201912,9.716212430120923e-05
-0.45044071143893233,-0.45044071143893233,0.9999813642985067,9.796486783510438e-05
-0.44972934907673334,-0.44972934907673334,0.999968556408052,9.716093871479863e-05
-0.4489044372718126,-0.4489044372718126,1.000568411483897,9.721347414404332e-05
-0.4464272628669278,-0.4464272628669278,0.9999860964019531,9.816570060723578e-05
-0.4442609063689815,-0.4442609063689815,0.9999799967763856,9.703147504686709e-05
-0.4430191194461258,-0.4430191194461258,0.9998584377889174,9.703344855925508e-05
-0.4417898105388304,-0.4417898105388304,1.000056756528004,9.723151650397447e-05
-0.4403940997891368,-0.4403940997891368,0.9998297492228143,9.727965198272015e-05
-0.43965328103031426,-0.43965328103031426,0.9999164050697378,9.785627485148396e-05
-0.43904062747105854,-0.43904062747105854,1.0002285730962757,9.71026722240334e-05
-0.4371809957528967,-0.4371809957528967,0.9999051596817846,9.836218512669597e-05
-0.4347918318372649,-0.4347918318372649,0.9999441156265172,9.709111826135706e-05
-0.4328201668244219,-0.4328201668244219,0.9998238648871931,9.694816916192096e-05
-0.432314903319093,-0.432314903319093,1.000224296104766,9.732678467262731e-05
-0.43030710687435203,-0.43030710687435203,0.9999800703341434,9.711805987361007e-05
-0.42966748291710244,-0.42966748291710244,1.0000513681312542,9.794180055806342e-05
-0.42902487518367705,-0.42902487518367705,0.9999952208994023,9.708201049991462e-05
-0.4280694772250172,-0.4280694772250172,1.0000075900884535,9.726753355482143e-05
-0.4252753641683739,-0.4252753641683739,1.0016443555933243,9.835243702554864e-05
-0.42291914756706317,-0.42291914756706317,1.0014622614868613,9.708055763585054e-05
-0.4222856238180611,-0.4222856238180611,0.9998988024236543,9.708298972949908e-05
-0.42076136544583276,-0.42076136544583276,1.0022652075968126,9.731827752916328e-05
-0.41966907915211776,-0.41966907915211776,1.0001464921116932,9.78820253011775e-05
-0.41889127255954006,-0.41889127255954006,0.9999255578657124,9.723632791744933e-05
-0.41820118008345164,-0.41820118008345164,1.0005288542791173,9.714712283166382e-05
-0.41603542865632337,-0.41603542865632337,0.9999567405799461,9.852406137786458e-05
-0.41365000117748424,-0.41365000117748424,1.0005889616289516,9.709876480102615e-05
-0.4121304118533772,-0.4121304118533772,1.0010805278609285,9.700613453484911e-05
-0.4112804489896916,-0.4112804489896916,0.9999148729650115,9.735420119651446e-05
-0.40957897857633724,-0.40957897857633724,1.000779906563124,9.722208846193445e-05
-0.4088911706508952,-0.4088911706508952,0.9997543281852265,9.786886103860057e-05
-0.4083186499544354,-0.4083186499544354,1.0031558265446194,9.712251355733116e-05
-0.40679424204599857,-0.40679424204599857,0.9998864517926942,9.729842798734312e-05
-0.40438541370922393,-0.40438541370922393,1.0000524439440928,9.855597119773246e-05
-0.401975644778031,-0.401975644778031,1.000993412690566,9.702489266295112e-05
-0.4015807293046237,-0.4015807293046237,1.0000653639044246,9.714032793699351e-05
-0.39971737661926454,-0.39971737661926454,1.0000186071789203,9.729864994337632e-05
-0.39889907332371877,-0.39889907332371877,0.9999764143674084,9.787805314442289e-05
-0.39818862039683156,-0.39818862039683156,1.0012365899861169,9.714801164763923e-05
-0.3973636771407655,-0.3973636771407655,0.9997285193838396,9.719967412332993e-05
-0.39488680224112616,-0.39488680224112616,0.9999350999385861,9.874871726515229e-05
-0.3925120203785809,-0.3925120203785809,0.9999841853524731,9.70643444486651e-05
-0.3914386323624058,-0.3914386323624058,1.0003510810684435,9.702068353210004e-05
-0.3902489201136632,-0.3902489201136632,0.9999981382253555,9.739829007708092e-05
-0.3888523731009627,-0.3888523731009627,1.0000055411890985,9.728510841497941e-05
-0.38811228751728777,-0.38811228751728777,0.9999244047406337,9.77602595090915e-05
-0.3874999769536771,-0.3874999769536771,1.0003409844564721,9.70194605567474e-05
-0.38562750119681366,-0.38562750119681366,0.9999496643647351,9.725310773745543e-05
-0.3831814139388371,-0.3831814139388371,1.0001279015636282,9.885985418063356e-05
-0.38125654292634864,-0.38125654292634864,1.0002374773402276,9.697062079593559e-05
-0.3803560097275295,-0.3803560097275295,0.9998608291092446,9.747890191341577e-05
-0.37865399315523973,-0.37865399315523973,1.000008569220866,9.71911795187716e-05
-0.3779663875217011,-0.3779663875217011,1.000101063105062,9.781855810908888e-05
-0.37739432687194496,-0.37739432687194496,1.000420086587019,9.69711435906967e-05
-0.37617598981642003,-0.37617598981642003,0.9999316972536845,9.729807957251153e-05
-0.3734728166014065,-0.3734728166014065,0.9998800331081806,9.709694619450473e-05
-0.3710419359264961,-0.3710419359264961,0.9999838639773835,9.697504859817853e-05
-0.3704662131644,-0.3704662131644,0.9999594603512891,9.755777336833968e-05
-0.36845723206988623,-0.36845723206988623,0.9999463812973861,9.710103212643987e-05
-0.367817716412992,-0.367817716412992,1.0000432575575098,9.783400969546352e-05
-0.36717611485728413,-0.36717611485728413,1.0005814618428066,9.701464315586283e-05
-0.366220409305879,-0.366220409305879,1.0002198596780996,9.729049534149006e-05
-0.3631647272797636,-0.3631647272797636,0.9998837652466067,9.71008350584093e-05
-0.36073369091482166,-0.36073369091482166,0.9999183662947895,9.697598071118365e-05
-0.36015809846157937,-0.36015809846157937,1.0001625198714457,9.760631564337803e-05
-0.3581489201072145,-0.3581489201072145,0.9998271809054831,9.709237889197926e-05
-0.35750942225586185,-0.35750942225586185,0.9999595281158893,9.781647549076734e-05
-0.35686798856995666,-0.35686798856995666,1.0002881288420042,9.700781152528823e-05
-0.356085355783307,-0.356085355783307,1.0000474876058516,9.722910331408507e-05
-0.35359370285723346,-0.35359370285723346,0.9998441487285692,9.713297466115562e-05
-0.3507613609182044,-0.3507613609182044,0.9998464092143632,9.702762352897421e-05
-0.35003988888192905,-0.35003988888192905,0.9997941654291095,9.71537897731357e-05
-0.3481761598844969,-0.3481761598844969,0.9999201426086335,9.753231403208738e-05
-0.34735743735118374,-0.34735743735118374,0.9998327046472614,9.777558644422572e-05
-0.34664789496537196,-0.34664789496537196,1.0000133968527216,9.70889814629045e-05
-0.34597537013087276,-0.34597537013087276,1.0001829765344294,9.716851002165549e-05
-0.3438417743485843,-0.3438417743485843,0.9999187969803677,9.720901402742455e-05
-0.3409709510669018,-0.3409709510669018,0.9998855979278176,9.705013250347643e-05
-0.3398308957660447,-0.3398308957660447,0.9998837199784149,9.706958274590389e-05
-0.33829569187755626,-0.33829569187755626,0.99992435087703,9.761062290709793e-05
-0.33720219947781516,-0.33720219947781516,1.0000711171103338,9.772190822964421e-05
-0.33642596324953045,-0.33642596324953045,0.9999590910154541,9.723567885525168e-05
-0.3358676421496966,-0.3358676421496966,0.9999709496306621,9.704119393828829e-05
-0.3340868519095238,-0.3340868519095238,0.9999572497352623,9.726755975652268e-05
-0.3311846199941101,-0.3311846199941101,0.9999737058318413,9.707934416556762e-05
-0.3296199990525565,-0.3296199990525565,0.9998659278094711,9.701151131525934e-05
-0.32839985509826874,-0.32839985509826874,1.0000930761132207,9.772352399568941e-05
-0.32700230579230266,-0.32700230579230266,1.0009335917330642,9.730385923051179e-05
-0.3262630980829272,-0.3262630980829272,0.9999360458035744,9.765640398717133e-05
-0.3257614002948685,-0.3257614002948685,0.9998288796740031,9.698329113523219e-05
-0.3247713390726858,-0.3247713390726858,1.0000271246621426,9.752712650809216e-05
-0.3219323715005885,-0.3219323715005885,0.999991789296962,9.710253404425805e-05
-0.3195007120716582,-0.3195007120716582,0.9999212520643926,9.69823594783945e-05
-0.31892564092067915,-0.31892564092067915,0.9996883086815844,9.782653530645466e-05
-0.3169156734310491,-0.3169156734310491,1.0003233791918718,9.710029262279094e-05
-0.31627624677512356,-0.31627624677512356,1.0001449325103269,9.773027721043088e-05
-0.3156354847315015,-0.3156354847315015,1.0000270414480912,9.704401990902017e-05
-0.3148527333457423,-0.3148527333457423,0.9998690857257628,9.722175829632757e-05
-0.3128763456304114,-0.3128763456304114,0.9999914104985649,9.735433031200648e-05
-0.31004631101941416,-0.31004631101941416,1.0002012578788464,9.706555755304268e-05
-0.30890633594144673,-0.30890633594144673,0.9999181971844611,9.708235934993814e-05
-0.30737106595879593,-0.30737106595879593,1.0000752932084633,9.778340424063707e-05
-0.30627712125369727,-0.30627712125369727,1.000033640210032,9.767126417949236e-05
-0.3055014743855281,-0.3055014743855281,1.0000331946742258,9.72381169262007e-05
-0.304943312776868,-0.304943312776868,0.9999732253321756,9.704909671576876e-05
-0.30362921084361005,-0.30362921084361005,1.0000261924649874,9.745329852243303e-05
-0.30078612824454465,-0.30078612824454465,0.9999855423773758,9.71027764455106e-05
-0.29879073961637914,-0.29879073961637914,1.0001962425373006,9.699561012618273e-05
-0.2978908430563024,-0.2978908430563024,1.0001144621177207,9.795394871627609e-05
-0.2961873716649279,-0.2961873716649279,0.9999859743846391,9.716957952869369e-05
-0.29550030301106744,-0.29550030301106744,1.000046223431706,9.769561490219712e-05
-0.2949294708623711,-0.2949294708623711,0.9997423031713193,9.70044122443217e-05
-0.29404041347133897,-0.29404041347133897,0.9998997142381031,9.729702424968742e-05
-0.2917248601006577,-0.2917248601006577,0.9999286181711533,9.72733074970684e-05
-0.2889118345290626,-0.2889118345290626,0.9997553058507018,9.70445066112379e-05
-0.2881908846103215,-0.2881908846103215,1.0002010697614478,9.715202224376128e-05
-0.2863267034049386,-0.2863267034049386,1.0000077298549976,9.794218169115281e-05
-0.28550747737490384,-0.28550747737490384,0.9998571296942987,9.768648098438973e-05
-0.2847990288276378,-0.2847990288276378,1.0000814349525216,9.714450513309947e-05
-0.28412657683284126,-0.28412657683284126,1.000075141572267,9.716275521438382e-05
-0.2824840453174147,-0.2824840453174147,1.0001271945864805,9.737839068799556e-05
-0.27964376110276135,-0.27964376110276135,1.0001264983173483,9.709006568458815e-05
-0.2780789708541306,-0.2780789708541306,1.000087013866012,9.701397244812971e-05
-0.2768589703408907,-0.2768589703408907,0.9999644410993354,9.810646226610193e-05
-0.2754605870119121,-0.2754605870119121,0.9999537981929297,9.725451688826934e-05
-0.2747221091181927,-0.2747221091181927,0.9999083799255921,9.760871393673679e-05
-0.2742208194383238,-0.2742208194383238,1.0001508058878525,9.701050755732319e-05
-0.2732303258039792,-0.2732303258039792,1.0000262147892596,9.748100196782888e-05
-0.27039192974471005,-0.27039192974471005,0.9999115985940561,9.710734908612736e-05
-0.26795949136931085,-0.26795949136931085,0.9998549581090715,9.698482830505508e-05
-0.26738507120653593,-0.26738507120653593,1.0000142231556826,9.827136362179298e-05
-0.26537411820672785,-0.26537411820672785,1.0000458064161628,9.709120410817168e-05
-0.26473477954268676,-0.26473477954268676,1.0000536508165432,9.769392421456328e-05
-0.26409485792282794,-0.26409485792282794,0.9999758881250915,9.707428442924882e-05
-0.2633119584364977,-0.2633119584364977,1.0000923535517878,9.722606690771564e-05
-0.26133582486845625,-0.26133582486845625,0.9999213659654362,9.730244928404673e-05
-0.25850524687784854,-0.25850524687784854,0.9999372680383509,9.705912809834513e-05
-0.25736540549469283,-0.25736540549469283,1.0001713250546858,9.707993835952739e-05
-0.25583002483454037,-0.25583002483454037,0.9999756274446272,9.83116327162578e-05
-0.25473532624591827,-0.25473532624591827,0.9999342112138316,9.760415808038791e-05
-0.2539606622483916,-0.2539606622483916,1.0000410217471922,9.725923891408833e-05
-0.25338146228168623,-0.25338146228168623,1.000005053458688,9.705672127501268e-05
-0.25202720042061627,-0.25202720042061627,0.9998885096788875,9.74022635058758e-05
-0.24924547901300684,-0.24924547901300684,0.9996544553853756,9.709702138012636e-05
-0.2472496165965822,-0.2472496165965822,1.0000585001544366,9.699367461341585e-05
-0.246350117113343,-0.246350117113343,1.0000044200672247,9.853806432410858e-05
-0.2446457378213381,-0.2446457378213381,0.9999990259970877,9.717433371380347e-05
-0.24395900313620586,-0.24395900313620586,1.000076680900936,9.765630001867878e-05
-0.2433889399392683,-0.2433889399392683,1.0001304313240311,9.704262556214288e-05
-0.24241601921057737,-0.24241601921057737,0.999985214762179,9.736484277489734e-05
-0.23985568303833132,-0.23985568303833132,1.00014892295435,9.715857308074678e-05
-0.2373705659942061,-0.2373705659942061,0.9998799510168943,9.70407630142654e-05
-0.2366500511967388,-0.2366500511967388,0.9999557215960178,9.713289500019884e-05
-0.2347854923239538,-0.2347854923239538,0.9999261408241784,9.861540231928191e-05
-0.23396584683541732,-0.23396584683541732,0.9999175350255598,9.763017706175291e-05
-0.23325831065412786,-0.23325831065412786,1.000109912281745,9.717007721356897e-05
-0.23254358042695458,-0.23254358042695458,0.9999918802141806,9.714181113442441e-05
-0.23057337304953762,-0.23057337304953762,1.000099313460224,9.734913231667198e-05
-0.22810290540464848,-0.22810290540464848,0.999929163953891,9.708365556868058e-05
-0.22653794576581276,-0.22653794576581276,1.0001398881443249,9.701504118400291e-05
-0.2253180880722539,-0.2253180880722539,1.0000237060425874,9.887906372772621e-05
-0.22391887188132387,-0.22391887188132387,0.9998732312562815,9.72563428016541e-05
-0.22318112253124128,-0.22318112253124128,1.0000325687328417,9.756687162903544e-05
-0.22268024167879047,-0.22268024167879047,0.9997601878508359,9.702206508299903e-05
-0.2212769887608374,-0.2212769887608374,0.999899506223523,9.741265609268914e-05
-0.21885149136260224,-0.21885149136260224,0.9999433724237555,9.710915390107198e-05
-0.21641827379098685,-0.21641827379098685,0.9999141093831803,9.69880513065719e-05
-0.2158445039117396,-0.2158445039117396,0.9998140915879341,9.917066742234286e-05
-0.21383256631388575,-0.21383256631388575,1.0003286626050807,9.710489345067702e-05
-0.21319331471595432,-0.21319331471595432,0.9999042626081318,9.762548817440628e-05
-0.21255423429411166,-0.21255423429411166,0.9999836841647529,9.709742314334832e-05
-0.21170809993391232,-0.21170809993391232,1.0000289761132946,9.721026571693226e-05
-0.2094460670911758,-0.2094460670911758,1.000002319125418,9.726582792626217e-05
-0.2069641859571675,-0.2069641859571675,1.0000470697611212,9.707027258824382e-05
-0.20582447811684687,-0.20582447811684687,0.9998483435635297,9.706337646411954e-05
-0.20428898612944976,-0.20428898612944976,1.0002553017196658,9.935263598504714e-05
-0.20319353394734208,-0.20319353394734208,1.0000984555258108,9.756229747707299e-05
-0.20241985337315782,-0.20241985337315782,0.9999955706867839,9.726353078754569e-05
-0.2018409050925584,-0.2018409050925584,0.9999342658869823,9.706917774530003e-05
-0.2001565069809658,-0.2001565069809658,0.9999912322965916,9.736418539200994e-05
-0.19770483318234255,-0.19770483318234255,1.0000864943900145,9.710395271425281e-05
-0.19570849671499674,-0.19570849671499674,1.0001167243428075,9.70084276045834e-05
-0.19480939353416032,-0.19480939353416032,1.0000829715231443,9.971112573321401e-05
-0.193104107475574,-0.193104107475574,1.0006075433018378,9.717234329111375e-05
-0.19241770576381895,-0.19241770576381895,1.0000621318927763,9.760365206281258e-05
-0.19184841212709217,-0.19184841212709217,1.0000786916582896,9.705536824373269e-05
-0.19087507343256221,-0.19087507343256221,1.0001181516092408,9.733614301427987e-05
-0.1883153909177963,-0.1883153909177963,1.000177037932313,9.714847009331482e-05
-0.18582930068050701,-0.18582930068050701,0.9995279621802784,9.703332277760749e-05
-0.18510922100385868,-0.18510922100385868,1.0000740411647635,9.714799985183429e-05
-0.1832442837317103,-0.1832442837317103,0.9999953149947981,9.991144678157915e-05
-0.18242421882578128,-0.18242421882578128,1.0002083845343783,9.757452742526604e-05
-0.18171759574324825,-0.18171759574324825,0.9998939394919439,9.718639833995713e-05
-0.181002897352937,-0.181002897352937,1.0000551729914202,9.714494383055531e-05
-0.17903272094199565,-0.17903272094199565,1.0003591773609481,9.731286899434315e-05
-0.17656205301045702,-0.17656205301045702,1.0000509041565682,9.709105854600228e-05
-0.17499692380224588,-0.17499692380224588,1.0000016538870697,9.70234663137633e-05
-0.17377720812582992,-0.17377720812582992,1.000112554840667,0.00010031789250054047
-0.17237716030294906,-0.17237716030294906,0.9998736195913663,9.722636989260428e-05
-0.17164013833535136,-0.17164013833535136,1.0001392711517076,9.751053161751242e-05
-0.17113966704318956,-0.17113966704318956,0.9999611873612334,9.7038646215925e-05
-0.16973598185086303,-0.16973598185086303,1.0001085584549336,9.74114131686014e-05
-0.16731105636727078,-0.16731105636727078,0.9999432034731812,9.710246968330091e-05
-0.16487705939243824,-0.16487705939243824,1.0000475538045692,9.700974879552249e-05
-0.1643039388149191,-0.1643039388149191,1.0001655168648569,0.00010070186754750224
-0.16229101775270466,-0.16229101775270466,1.0000821240566542,9.708683536813756e-05
-0.16165185258469136,-0.16165185258469136,0.9998276506406786,9.75668892526534e-05
-0.1610136139001952,-0.1610136139001952,1.000025670403834,9.710903036939136e-05
-0.16016728739487007,-0.16016728739487007,0.9998764530136561,9.721271688786541e-05
-0.15790559684355684,-0.15790559684355684,1.0001136253611924,9.72461730454498e-05
-0.15542312828520152,-0.15542312828520152,0.9996959193582095,9.706522068543877e-05
