time,time,flux,flux_err
-0.4999045220261905,-0.4999045220261905,1.000052407067417,0.0001108045290064661
-0.4997171107388567,-0.4997171107388567,1.000034823998567,0.00010488136216471602
-0.49952260714489966,-0.49952260714489966,1.0000685120374633,0.00010273349022313217
-0.4993342120258603,-0.4993342120258603,0.9998191221281966,0.00010390584632579921
-0.4992068408988416,-0.4992068408988416,0.999949441295197,0.00010436742137509794
-0.4990024079655996,-0.4990024079655996,0.9998739894558784,0.00010441127485755469
-0.4987958137644455,-0.4987958137644455,0.9997399405059758,0.00010624918003432526
-0.49864714000141247,-0.49864714000141247,0.9999706343389722,0.00010907209492805254
-0.49853904226038137,-0.49853904226038137,1.0001005865727692,0.00010307952508846951
-0.4983538297499763,-0.4983538297499763,1.0001569306783575,0.00010460694596587754
-0.4981975272705313,-0.4981975272705313,1.0000448778292585,0.00010321748508085355
-0.4981342999351909,-0.4981342999351909,1.0001276832004629,0.00010737425043458952
-0.4979742231458658,-0.4979742231458658,0.9999782633760621,0.0001050972336621313
-0.49776764944253954,-0.49776764944253954,0.9999396104990858,0.00010490543671715685
-0.49766708860115616,-0.49766708860115616,1.0001727730276477,0.00010362896903851129
-0.49755706868309063,-0.49755706868309063,0.9998877921242861,0.00010438431110702906
-0.49746895946736913,-0.49746895946736913,1.0000389856207221,0.00010258480585554274
-0.49736369075835685,-0.49736369075835685,0.9998954966884295,0.0001037608739730673
-0.4973320983699523,-0.4973320983699523,0.9999652472633785,0.00010356896335306843
-0.4972487372695468,-0.4972487372695468,0.9999798544574208,0.00010751974816535985
-0.4971999973320635,-0.4971999973320635,1.000118886643914,0.0001079007598538811
-0.49713490286667367,-0.49713490286667367,0.9998200317907878,0.0001039629188166296
-0.49705452303751374,-0.49705452303751374,1.0000157607127433,0.0001047174831541711
-0.49693352793401574,-0.49693352793401574,0.9997811217877057,0.0001070676124133917
-0.49683823744417166,-0.49683823744417166,1.0001912999334661,0.00010735814016290502
-0.4967396914493293,-0.4967396914493293,1.0000886457540603,0.00010483016673413148
-0.4966629399772501,-0.4966629399772501,1.0001206898239714,0.00010309002111884783
-0.4965683851216454,-0.4965683851216454,1.0001057394159176,0.00010249339986387713
-0.4964757274079602,-0.4964757274079602,1.0000130027336671,0.00010480773796344797
-0.49641717273916586,-0.49641717273916586,1.0000287168859665,0.00010261026637218647
-0.49635883695445954,-0.49635883695445954,1.000112708950215,0.00010812002246588747
-0.49629497026035096,-0.49629497026035096,1.0000878597196916,0.00010361899854393625
-0.4961759925878141,-0.4961759925878141,0.9999957780533242,0.00010796084261660746
-0.49603503437538166,-0.49603503437538166,0.9998455133830589,0.00011472384302047644
-0.4959148484340403,-0.4959148484340403,0.9998848645298561,0.00010488327176784548
-0.4958037600124953,-0.4958037600124953,1.000152936090465,0.00010587011605561006
-0.49566754484549164,-0.49566754484549164,1.0001114667202653,0.00010355775103665244
-0.4955599733395502,-0.4955599733395502,0.9999564639653885,0.00010616511910862292
-0.49546373628254514,-0.49546373628254514,0.9999291742496543,0.00010376115690842848
-0.4953734985901974,-0.4953734985901974,1.0000007919555571,0.00010539905549994044
-0.49527397329511585,-0.49527397329511585,0.9999285645833794,0.00010711111480315397
-0.49513953504210806,-0.49513953504210806,0.9999673077485367,0.00010517342842950462
-0.4950222137937089,-0.4950222137937089,1.0000711970016471,0.00010754441361315379
-0.494960578501923,-0.494960578501923,1.0000962882068511,0.00010900303055107855
-0.4948670145880897,-0.4948670145880897,0.9999354202679929,0.00010852457695567034
-0.4947262836241862,-0.4947262836241862,0.9997927628131137,0.0001027079819001907
-0.4946184685599292,-0.4946184685599292,1.0000648137742958,0.00010281985272724513
-0.49447360782069155,-0.49447360782069155,0.999953706457449,0.00010367415349606189
-0.4943120311218081,-0.4943120311218081,0.9999974817148974,0.00010367987258335717
-0.49423272773856297,-0.49423272773856297,1.0001208840927274,0.00010480131014199209
-0.4940391665149946,-0.4940391665149946,1.0000375794011773,0.00010889928604091513
-0.49382601557299494,-0.49382601557299494,1.0001147475193095,0.00010457394006275509
-0.4937366647471208,-0.4937366647471208,1.000135348500881,0.00010256215306069622
-0.49367724086041564,-0.49367724086041564,1.0000687137052588,0.00010858322850996922
-0.49359400259854735,-0.49359400259854735,1.0000836610215935,0.0001047605167650368
-0.49352583644504194,-0.49352583644504194,1.000181078551898,0.00010436189601382387
-0.4934785866411403,-0.4934785866411403,1.0001768247841265,0.00010332945738624765
-0.4933687538228696,-0.4933687538228696,0.9998775680646217,0.00010211462458226887
-0.4933172019431368,-0.4933172019431368,0.9999650003344506,0.00010222778550548434
-0.4932473464170471,-0.4932473464170471,1.0000632172650399,0.00010673346464390204
-0.4931028567778412,-0.4931028567778412,1.0000850123377145,0.00010711116414573723
-0.49296061898057814,-0.49296061898057814,1.0001862302352431,0.00010186005613230192
-0.492819972653524,-0.492819972653524,1.000001555429084,0.00010277933495921304
-0.4927117541519692,-0.4927117541519692,0.9999137914692895,0.00010922606950851293
-0.49254965839500076,-0.49254965839500076,1.000105702846478,0.00010543306524825563
-0.4923756278061774,-0.4923756278061774,1.0001166475557797,0.00010583103019252442
-0.4922110604675254,-0.4922110604675254,1.0000395049602042,0.00010785448516851615
-0.49206759496300945,-0.49206759496300945,1.0000552603647652,0.00011135358828081796
-0.4919494242494693,-0.4919494242494693,1.0000681505034499,0.00010808077222174083
-0.49184350329160226,-0.49184350329160226,1.0001363380086385,0.00010483115990479152
-0.491732607097947,-0.491732607097947,1.0001240219502754,0.00010694392461908556
-0.4916923787270207,-0.4916923787270207,0.9999700881729892,0.0001044512346884916
-0.4916254548879806,-0.4916254548879806,1.0001293032018428,0.00010875978935222313
-0.4915793480584398,-0.4915793480584398,1.0001216218646451,0.00010567575667886568
-0.4915207005367847,-0.4915207005367847,1.0000565464848559,0.00010506111193698269
-0.4914636186498683,-0.4914636186498683,1.0000372799194372,0.00010688105492331558
-0.49134137555083723,-0.49134137555083723,1.0000432144036908,0.00010362059440446848
-0.4912170885829255,-0.4912170885829255,1.0001201510255515,0.00010697728746478477
-0.4911288958246587,-0.4911288958246587,0.9999768414270616,0.0001066641744276606
-0.49099399339174854,-0.49099399339174854,1.0000026743846686,0.00010288631606431848
-0.4908601564791752,-0.4908601564791752,1.0001676915337994,0.0001029258767406503
-0.49075613369059284,-0.49075613369059284,1.000147499037388,0.00010346648197186716
-0.49064536797814073,-0.49064536797814073,1.000090179934909,0.00010297317778536082
-0.4905211406789022,-0.4905211406789022,1.0001974823596869,0.00010767305648456545
-0.490437458868837,-0.490437458868837,0.9998832458584399,0.0001088325363863076
-0.49027097937650976,-0.49027097937650976,0.9999689344839482,0.00010852537061156337
-0.4901093542779563,-0.4901093542779563,0.9998969206557599,0.00010904710722863427
-0.48995230930449907,-0.48995230930449907,1.000259671516797,0.00010318012081513255
-0.48981621593411545,-0.48981621593411545,1.0000248080781287,0.0001079469283701702
-0.489627021481283,-0.489627021481283,0.9998590107586625,0.00010494835565159375
-0.48941053595917766,-0.48941053595917766,1.0000024496479762,0.00010458681685947152
-0.4891734481265303,-0.4891734481265303,1.0000272242264414,0.00010295574323181452
-0.48903581213962755,-0.48903581213962755,0.9999159481827056,0.0001034935437638878
-0.4888685198966414,-0.4888685198966414,0.9999027661993439,0.00010385616841709604
-0.48874321454204617,-0.48874321454204617,1.000182053825903,0.00010542669211498248
-0.4886500931432238,-0.4886500931432238,1.0000980889347673,0.00010667046947895995
-0.4884241453750292,-0.4884241453750292,0.999960866694148,0.00010486662424295233
-0.4882965058059199,-0.4882965058059199,0.9999558094319413,0.00010653181065305693
-0.4882409516751068,-0.4882409516751068,0.9999184047283125,0.00010651301549643537
-0.4881897479412146,-0.4881897479412146,0.9999673695474621,0.00010638023618033475
-0.4880979183333693,-0.4880979183333693,0.9999294777903579,0.00010537393715503402
-0.48796454834518954,-0.48796454834518954,1.0002349696806125,0.00010372781253139573
-0.48781134008895605,-0.48781134008895605,1.000003374187774,0.00010243122012884138
-0.48766226422740144,-0.48766226422740144,0.9999743928369916,0.00010454596942839425
-0.48753094057319685,-0.48753094057319685,1.0000787775018456,0.00010479155794632808
-0.4874300726951333,-0.4874300726951333,0.9999979283634002,0.00010323773972537067
-0.48714898159378206,-0.48714898159378206,1.0000374458578671,0.00010968960528507719
-0.4869020379235735,-0.4869020379235735,0.9999985814491985,0.00010689296926326553
-0.48672290560498366,-0.48672290560498366,1.0000303403585575,0.00010485293695921706
-0.4864869861630723,-0.4864869861630723,1.0000414163827023,0.0001029202654570748
-0.4863144663337152,-0.4863144663337152,1.0000011967568585,0.00010257441886634604
-0.4861049998376984,-0.4861049998376984,0.9997185386918025,0.00010214222437978756
-0.48578955881239383,-0.48578955881239383,1.0000481521197653,0.00011374657007999142
-0.4855789588094922,-0.4855789588094922,0.9999493206443268,0.00010415155704365368
-0.48535190749971663,-0.48535190749971663,0.9999804228858562,0.00011000506465105933
-0.4852360127493739,-0.4852360127493739,1.000073140433002,0.00010223730201974353
-0.48504769149876664,-0.48504769149876664,1.0001025332441593,0.0001059198099586325
-0.48490943990764207,-0.48490943990764207,0.9999636192219702,0.00011085194510422403
-0.4847335243743146,-0.4847335243743146,1.0000206827797942,0.00010303685553294368
-0.4844647919991985,-0.4844647919991985,1.0002291673786559,0.00010785722999105872
-0.4842932277242653,-0.4842932277242653,1.0000373519645154,0.00010847825492329589
-0.48414331604144534,-0.48414331604144534,1.0000361371685043,0.00010324809482287008
-0.4839729152939981,-0.4839729152939981,0.9999698663429404,0.0001054229597136641
-0.48385742353857497,-0.48385742353857497,0.999932516579881,0.00010361090070179039
-0.48374052850413135,-0.48374052850413135,0.9999898121106991,0.00010600773044063403
-0.48357462607091295,-0.48357462607091295,1.0000360058754876,0.0001025627300747201
-0.483446132222889,-0.483446132222889,0.999870458486825,0.00010371442271265872
-0.4833057179755997,-0.4833057179755997,1.0000589915115305,0.00010564125851530012
-0.48318733532796615,-0.48318733532796615,1.000013230295788,0.00010753768156512042
-0.48306902425538284,-0.48306902425538284,0.9999655266457544,0.0001117649035288145
-0.4829583148530219,-0.4829583148530219,0.999882499939651,0.00010598493039554822
-0.4828316043742234,-0.4828316043742234,1.0000488746602378,0.00010552174425243416
-0.4827300271485001,-0.4827300271485001,0.9999521186216104,0.0001031488714185722
-0.4825790389528265,-0.4825790389528265,0.9999495444202356,0.00010689575098646442
-0.48236583773978053,-0.48236583773978053,1.000188813440165,0.00010428863438276034
-0.48230500416248107,-0.48230500416248107,0.9998601209147152,0.00010351120798878103
-0.48220597811159677,-0.48220597811159677,1.0001205873642225,0.00010375447486387883
-0.4821268222556682,-0.4821268222556682,0.9999258947902201,0.00010482037836326483
-0.48200974481587766,-0.48200974481587766,0.999957845187101,0.00010337215699561842
-0.48192927936906926,-0.48192927936906926,0.9998350566155738,0.00010308217893663225
-0.48186914369580336,-0.48186914369580336,1.000019303966448,0.0001066168203838654
-0.4818196603882825,-0.4818196603882825,0.999911362093231,0.00011078191548428438
-0.48172185121802613,-0.48172185121802613,1.0001400843507804,0.00010511165581425855
-0.48162917855952403,-0.48162917855952403,0.9999275218999317,0.00010565376142072718
-0.4815065942850197,-0.4815065942850197,0.999860016557905,0.00010683843922442435
-0.48143227538093925,-0.48143227538093925,1.0000153974851527,0.00010668212039668482
-0.48132372768304776,-0.48132372768304776,0.9999616050257076,0.00010412784085658141
-0.4812661775678862,-0.4812661775678862,1.0002440903192984,0.00010395321845088551
-0.48118362205277665,-0.48118362205277665,0.9999860110180986,0.00010303270266321769
-0.48109284332604146,-0.48109284332604146,1.0000313689796632,0.00010196196509948108
-0.4810196882986929,-0.4810196882986929,0.9999188098577119,0.00010541217725660071
-0.4809783892153064,-0.4809783892153064,0.9999029618222458,0.00010378819442930286
-0.4808874060952803,-0.4808874060952803,0.9999454979266987,0.00010813666994737021
-0.4807737599010579,-0.4807737599010579,0.9999572622270965,0.00010773362684667169
-0.4806664300878765,-0.4806664300878765,0.9999884821835057,0.00011387850164436457
-0.48053908911824694,-0.48053908911824694,0.9999923115756125,0.00010524395417239518
-0.48041221739840695,-0.48041221739840695,0.999914916965565,0.00010447408761488539
-0.48025983460538557,-0.48025983460538557,1.0000916186829507,0.00010355154922796176
-0.48017656870943026,-0.48017656870943026,1.0000318258247831,0.00010626625213175016
-0.4800507867854321,-0.4800507867854321,0.9998985662750828,0.00010432048544078295
-0.47998363147198686,-0.47998363147198686,1.0000611343034573,0.00010444847754424221
-0.47991630229225846,-0.47991630229225846,0.9998758513582375,0.00010746287131267801
-0.4798302189592505,-0.4798302189592505,1.0000731664702365,0.00010573817540813246
-0.47975370745989493,-0.47975370745989493,0.9999535168962161,0.00010437297876721231
-0.47964691727538594,-0.47964691727538594,0.9999204059774142,0.00010747091754952167
-0.47958297929144467,-0.47958297929144467,1.0000895226000897,0.0001124180863200788
-0.47953028563933914,-0.47953028563933914,1.0000873387854496,0.00010509680952904884
-0.47937830080336424,-0.47937830080336424,1.0000573011878695,0.00010371488126949938
-0.47929977418098135,-0.47929977418098135,1.000070716761444,0.00010414559171253567
-0.4791494472039631,-0.4791494472039631,0.9998930932787842,0.00010271910097426964
-0.478941097058123,-0.478941097058123,1.0001261364222007,0.00010456424420295126
-0.47887307284690905,-0.47887307284690905,1.0000504163577975,0.00010634178045490692
-0.4787409134034533,-0.4787409134034533,0.9998997266364172,0.00010435564926089282
-0.4785551645240048,-0.4785551645240048,0.9999538790696942,0.0001069635120488615
-0.47837255146587265,-0.47837255146587265,1.0001206727170218,0.00010391038635646136
-0.4783258919545915,-0.4783258919545915,1.0000940492988986,0.00010706793929418884
-0.4782518958643777,-0.4782518958643777,0.9998792651696823,0.0001063720228135456
-0.47818788926524575,-0.47818788926524575,0.9998898750116594,0.00010510708831894262
-0.47814429775171446,-0.47814429775171446,0.9998485320970569,0.00010556561412755972
-0.4780835694022244,-0.4780835694022244,1.0000277094010568,0.00010214899745459403
-0.47796401142550166,-0.47796401142550166,1.0001099637623045,0.00010339056146321374
-0.4778962949087145,-0.4778962949087145,1.0001792196687165,0.00010232863480501477
-0.4777812914719107,-0.4777812914719107,1.0000494111850746,0.00010728626443081476
-0.4776179335545748,-0.4776179335545748,1.0000686805132033,0.00010513144057026168
-0.4775147728068987,-0.4775147728068987,1.000086962712708,0.00010403991720286686
-0.47739351671480107,-0.47739351671480107,1.0001074936501735,0.00010653225466734085
-0.47728414200246333,-0.47728414200246333,1.0001586295856106,0.0001049691356931366
-0.4771047332615126,-0.4771047332615126,0.999959369463442,0.00011067232372609709
-0.47692513397778385,-0.47692513397778385,0.9999660844482754,0.00010116623256850288
-0.4767838556756033,-0.4767838556756033,1.0000994593416805,0.0001090581230844361
-0.47668399759568275,-0.47668399759568275,0.9999333412012412,0.00010160374211728692
-0.4765756391105242,-0.4765756391105242,1.0000474939262234,0.00010553998371423562
-0.4764969934563851,-0.4764969934563851,1.0000478129505923,0.00010599454673619149
-0.4763636184972711,-0.4763636184972711,1.0000009776447105,0.00010782583977327405
-0.47630757721490224,-0.47630757721490224,0.9999975320624191,0.0001053044209885851
-0.47623700805124825,-0.47623700805124825,1.000256397917693,0.00010637025946791025
-0.47619272920419464,-0.47619272920419464,0.9998989615435946,0.00010760775315791894
-0.4761400728049921,-0.4761400728049921,0.9999319994967826,0.00010537004204643285
-0.47609261820616666,-0.47609261820616666,0.9999783981437469,0.00010995220350495688
-0.47598170762066727,-0.47598170762066727,1.0001677335545147,0.0001045236134509502
-0.4758116945187794,-0.4758116945187794,0.999953311430323,0.0001029052656611944
-0.4757538392848801,-0.4757538392848801,1.0001981843055072,0.0001106035431026206
-0.4755961974413367,-0.4755961974413367,1.000072186907455,0.00010289451769158123
-0.47546041301975495,-0.47546041301975495,1.0001222328508734,0.00010297507931323802
-0.47537079159810675,-0.47537079159810675,0.9998692917938538,0.00010357815415692598
-0.4752770962368231,-0.4752770962368231,1.0001162794305594,0.000103787513595893
-0.47515176244778556,-0.47515176244778556,1.0000937339349876,0.00010666060256003514
-0.47503752855700443,-0.47503752855700443,1.0000436978070926,0.00010872447505499622
-0.47488696365617217,-0.47488696365617217,0.9998542940227214,0.00010705476867661347
-0.47474406795809043,-0.47474406795809043,1.000051752899564,0.00010952377109000667
-0.47455014066654255,-0.47455014066654255,1.0001495324580543,0.00010490040496284313
-0.4743624768656446,-0.4743624768656446,1.0001958789161587,0.00010600607229026209
-0.47413421096862296,-0.47413421096862296,1.0000568778480252,0.00010415942882345989
-0.47393016968271695,-0.47393016968271695,1.000002219554211,0.00010418093035300971
-0.47379228194185996,-0.47379228194185996,0.999999528363609,0.00010373919009641259
-0.47369470572739375,-0.47369470572739375,1.0000417184597548,0.00010363191239628549
-0.4735533768165624,-0.4735533768165624,0.9999364451238545,0.00010438120022542427
-0.47346043506404384,-0.47346043506404384,1.0000717116149123,0.00010315911722431628
-0.4733538774220506,-0.4733538774220506,1.0001155186928476,0.00010305434266905076
-0.4732754990865942,-0.4732754990865942,0.9997102322796364,0.00010490783966660868
-0.4731282548658783,-0.4731282548658783,1.00012919486503,0.00010873676742924102
-0.4729560470295837,-0.4729560470295837,1.0000503479843155,0.00010487191323168825
-0.4728931520250626,-0.4728931520250626,1.0001520283606506,0.0001053093698109115
-0.47283105106034784,-0.47283105106034784,1.000051553871365,0.00010723484845958739
-0.47278544784639964,-0.47278544784639964,1.0000214540036003,0.00010876651717472902
-0.4726809308165684,-0.4726809308165684,1.0000978163352656,0.00010457488827290546
-0.47252549463300964,-0.47252549463300964,1.000102117227757,0.00010083905316665803
-0.4723468740558019,-0.4723468740558019,0.9999023485236866,0.00010454039293282203
-0.47221546872751785,-0.47221546872751785,0.9999726108407112,0.00010327332325302881
-0.47211009821330663,-0.47211009821330663,1.0000240594991923,0.0001051955702062209
-0.4719122699054424,-0.4719122699054424,0.9999654340590741,0.00010477983924297978
-0.4715623071766458,-0.4715623071766458,0.9999005783420252,0.00010938544916141846
-0.4713141293061199,-0.4713141293061199,1.0001102699689277,0.00010479108960644395
-0.47104627937369514,-0.47104627937369514,0.9999868739280882,0.00010238371161725858
-0.4708071308588842,-0.4708071308588842,1.0000342958854427,0.00010364595239610885
-0.470529237340088,-0.470529237340088,0.9999135835562016,0.00010155618988100712
-0.47031064084731045,-0.47031064084731045,0.999941568155123,0.00011380294973281878
-0.4702047671598848,-0.4702047671598848,1.0001968942081867,0.00010676228452883407
-0.4699691770598292,-0.4699691770598292,1.0000507461346162,0.00011003467541096005
-0.4698279319651192,-0.4698279319651192,0.999910215224919,0.00010466897780858757
-0.469695722227334,-0.469695722227334,1.0000956688642062,0.00010501950682168516
-0.46948358572262805,-0.46948358572262805,1.000152788624654,0.00011053797705989342
