time,time,flux,flux_err
-0.49946167748712467,-0.49946167748712467,0.9999430531552254,0.00011759978671804681
-0.49721010048961034,-0.49721010048961034,1.0000113562197028,0.00011666801510507282
-0.4942816978407791,-0.4942816978407791,1.0000873444132807,0.0001166943634131174
-0.4930656199576333,-0.4930656199576333,0.999956872691097,0.00011901563878051942
-0.4919182153666043,-0.4919182153666043,1.0001425044013825,0.00011923258853503832
-0.49006709849491015,-0.49006709849491015,1.0000765840673984,0.00011679402156886374
-0.48750308391609,-0.48750308391609,1.0000955427417888,0.00011667422620347484
-0.48572242948866917,-0.48572242948866917,0.9998700668547622,0.00011690849834135648
-0.48435750116041165,-0.48435750116041165,0.9999012812732037,0.0001167505493355008
-0.48345764070254515,-0.48345764070254515,1.0000056355005245,0.00012023171249565917
-0.48135385271016273,-0.48135385271016273,1.0000790715610548,0.00012042874192017371
-0.4797093839748413,-0.4797093839748413,0.9999965389080083,0.00011666782642364706
-0.47864072754018705,-0.47864072754018705,0.9998729811396225,0.00011664949184399717
-0.47769119925360426,-0.47769119925360426,0.9999716042619546,0.00011734898828667639
-0.47559618840605256,-0.47559618840605256,1.0001040982777876,0.0001166889484281921
-0.47363422238995556,-0.47363422238995556,1.0000244435253944,0.00011664671837256342
-0.4718906456313562,-0.4718906456313562,1.0001209750850237,0.00012054997759370926
-0.4698195498698624,-0.4698195498698624,1.0000677115170515,0.00011668403427363739
-0.46813957992562794,-0.46813957992562794,1.000202906282653,0.00012209078211612335
-0.4658618129746174,-0.4658618129746174,0.9999662691433123,0.00011670295560729866
-0.46413135112670717,-0.46413135112670717,1.000018213607277,0.00011687854910282639
-0.46283221999619856,-0.46283221999619856,0.9999240983133493,0.00011997894181791667
-0.46156770053785295,-0.46156770053785295,1.0001074807172787,0.0001167426774764776
-0.4606185127631761,-0.4606185127631761,1.0001026371966855,0.0001204537176371498
-0.45780948883038947,-0.45780948883038947,1.0001066602687334,0.00011666642138105769
-0.4559589359807433,-0.4559589359807433,1.0000607923236613,0.00011665126118268912
-0.45497034127620284,-0.45497034127620284,1.00012792690099,0.00011722813113209299
-0.4525658525977633,-0.4525658525977633,0.9999541691884859,0.0001188926802155099
-0.4510589968180284,-0.4510589968180284,1.0000125000572944,0.00011977545786318627
-0.4490244441112736,-0.4490244441112736,1.0001575816347175,0.00011683747536182173
-0.4469178683270002,-0.4469178683270002,0.9999608292590594,0.00011944672724516742
-0.4451841294285259,-0.4451841294285259,1.0000623813863239,0.00011668434467951598
-0.4432002515080967,-0.4432002515080967,0.999989248356046,0.00011666897647136766
-0.44085941474913853,-0.44085941474913853,0.9998387928146328,0.00011672324587949019
-0.4384229782372131,-0.4384229782372131,0.9999681268393857,0.00011666483758959198
-0.43667981570761183,-0.43667981570761183,1.0000526512089376,0.0001166776324756146
-0.4344373951025773,-0.4344373951025773,0.9999777698261958,0.00011857035290054282
-0.4328325173657504,-0.4328325173657504,0.9999508195495354,0.00011893786986660498
-0.4321697620805935,-0.4321697620805935,1.0001507953283955,0.00011712341735769811
-0.429732848131971,-0.429732848131971,0.9999249791409495,0.00011667387282542081
-0.4275270848243963,-0.4275270848243963,1.000026590753889,0.00012049925285634762
-0.42550715480319923,-0.42550715480319923,1.0000294348265624,0.00011670308109387844
-0.42347958636964905,-0.42347958636964905,1.0001798250771117,0.00011668817462050164
-0.420759921730496,-0.420759921730496,0.9999751793067565,0.00011665519866802107
-0.4185782346801716,-0.4185782346801716,1.0001069356235326,0.0001167131267408017
-0.41623379777156516,-0.41623379777156516,1.0001306415920481,0.00011670733461289075
-0.41340356681030244,-0.41340356681030244,1.0001363709181779,0.00011665204858972307
-0.4105483597901184,-0.4105483597901184,1.0000054972189194,0.00011700340920278313
-0.4091241029222147,-0.4091241029222147,1.0001756942151911,0.00011978860914185554
-0.40751283749559664,-0.40751283749559664,1.0001771651172848,0.00011666995332224584
-0.40529609725927,-0.40529609725927,1.0001424400901207,0.00012056448028000685
-0.4038489365193527,-0.4038489365193527,0.9998135180518448,0.00011666671844525316
-0.40224909355456473,-0.40224909355456473,0.9997936073051694,0.00011663330662765472
-0.40084537439252016,-0.40084537439252016,1.000184606311266,0.00011776385583010742
-0.3985960758276633,-0.3985960758276633,0.9998926964123402,0.00011665639181238255
-0.3965772473471588,-0.3965772473471588,0.9999685024723461,0.00011805778583851526
-0.3943684666752233,-0.3943684666752233,1.0000481429280668,0.00011668131033968467
-0.3930742057171301,-0.3930742057171301,0.9998574623928264,0.0001166834960451801
-0.3891845171136083,-0.3891845171136083,0.9999422331042183,0.00011665376883173571
-0.3869159418085474,-0.3869159418085474,0.9999847696540618,0.000116961338636422
-0.38563905093906214,-0.38563905093906214,1.0000782246521105,0.00011677819367186778
-0.38460258105915274,-0.38460258105915274,1.0000792477647202,0.00011664274948701694
-0.382043817829981,-0.382043817829981,1.0000492993769297,0.00011665290491713501
-0.3806811525006196,-0.3806811525006196,0.9999722629869128,0.00011667706440520542
-0.37984940756869034,-0.37984940756869034,0.9998346087144864,0.00011667220228996169
-0.3787277145544067,-0.3787277145544067,1.0001261099434544,0.00011748569162012372
-0.37651228021422867,-0.37651228021422867,1.0000848583813915,0.00011668545061962218
-0.374612559088564,-0.374612559088564,0.999875101638688,0.00011664435841925989
-0.37274421121692286,-0.37274421121692286,1.0000821097299526,0.00011670604756352081
-0.37147801841638284,-0.37147801841638284,0.9999231130806793,0.00011665845201289102
-0.3694993200377212,-0.3694993200377212,1.0000535721970418,0.00011667588150399339
-0.3675332839047769,-0.3675332839047769,1.0000085976432103,0.00011669585574697006
-0.36585067020059797,-0.36585067020059797,0.9998553412219711,0.00011689456527544961
-0.36435372122068654,-0.36435372122068654,1.000150528507617,0.00011682489407618873
-0.36276554124924587,-0.36276554124924587,1.0000231611767425,0.00012039376418247211
-0.36126310790714344,-0.36126310790714344,1.0000844027839817,0.00012027405450559209
-0.359300431869633,-0.359300431869633,0.9999564445436133,0.00012009055653611359
-0.35800720723054835,-0.35800720723054835,1.0001838104537266,0.00011840329639126345
-0.3568086121813394,-0.3568086121813394,0.9999835959533521,0.00011727869434229213
-0.35462267212278675,-0.35462267212278675,1.0000701152511406,0.00011868345955812722
-0.3527576207066886,-0.3527576207066886,0.9999684193455535,0.00011958659499958953
-0.35175814170361264,-0.35175814170361264,0.9999156613061608,0.00011667567294087404
-0.3491962927088025,-0.3491962927088025,0.9999872071096426,0.00011954200411267925
-0.34760889774479437,-0.34760889774479437,0.9999334925786991,0.00011666414678310145
-0.3447566695715068,-0.3447566695715068,0.9999154797394724,0.00011670340184792318
-0.34293113248277224,-0.34293113248277224,0.9998469346782638,0.00011683912748369156
-0.34131992194161287,-0.34131992194161287,0.9998428285812384,0.00011671310892157126
-0.33934518851310713,-0.33934518851310713,0.9999004792982804,0.00011663979760220124
-0.3369589757930953,-0.3369589757930953,0.9999176045755084,0.00011668479105907725
-0.33497552843327866,-0.33497552843327866,1.0000251997144214,0.00011662312941991498
-0.333863767546427,-0.333863767546427,1.0001605976386203,0.00011717666514600826
-0.3322778720030328,-0.3322778720030328,1.0002180884155578,0.00011910804985327038
-0.33025477337068876,-0.33025477337068876,1.0000551499126538,0.00011668520978592733
-0.3274185422429582,-0.3274185422429582,0.9999879884709013,0.0001166922335329918
-0.32509241787774956,-0.32509241787774956,1.000002482862954,0.00011671571295948635
-0.32284204967872937,-0.32284204967872937,1.0002159956073287,0.00011667992419137868
-0.3209961547370767,-0.3209961547370767,1.0000347511559267,0.00011669894868750214
-0.3184780572890304,-0.3184780572890304,0.9997940512694641,0.00011670065271814031
-0.3166886138715199,-0.3166886138715199,0.9999688494988792,0.00011668732585971523
-0.3130526667038794,-0.3130526667038794,1.000042372403156,0.00011663703435667351
-0.3114535403146874,-0.3114535403146874,0.9999698259624736,0.00011708235255281949
-0.3103531028449652,-0.3103531028449652,1.000057438610908,0.00011665478004652859
-0.3085351779809571,-0.3085351779809571,1.0000546678011655,0.00011668468944602108
-0.30680355140793836,-0.30680355140793836,1.0002420234175116,0.00012051043933163244
-0.3045759463726426,-0.3045759463726426,1.0001728438310955,0.00011668509642656789
-0.3032437132060295,-0.3032437132060295,1.0001410379667264,0.00011668196926374553
-0.3022904247045517,-0.3022904247045517,0.9999789854220309,0.00011792333692254096
-0.29995846278470706,-0.29995846278470706,0.9998394344471839,0.0001166526005835278
-0.2962561921332963,-0.2962561921332963,0.9999313423150985,0.00011670700361498013
-0.29497144426422894,-0.29497144426422894,0.9999590807518789,0.00011668222263832666
-0.2930464452016167,-0.2930464452016167,1.000386650280522,0.00011666721660613126
-0.2900624061774579,-0.2900624061774579,0.9999649183088991,0.00011697368414116652
-0.28766743987507654,-0.28766743987507654,0.9998460329144461,0.00011666395752695996
-0.2855791976748151,-0.2855791976748151,1.0001558863919289,0.00011667300616295417
-0.2835414736851817,-0.2835414736851817,1.0000171228827142,0.00012055632816690145
-0.2821381512534572,-0.2821381512534572,1.0001117861261748,0.00011666069195247631
-0.28120874312880917,-0.28120874312880917,0.9999741317925288,0.00011822393132905078
-0.2802279082752648,-0.2802279082752648,0.9999839818151093,0.00011757988265466897
-0.2785303410157212,-0.2785303410157212,0.9999655444975504,0.00011669289241155493
-0.2767199345253175,-0.2767199345253175,1.0001694089611248,0.00011665720264269523
-0.27413486657605973,-0.27413486657605973,0.9998636838897472,0.00011669143071213685
-0.2730561466582003,-0.2730561466582003,1.0000960652777091,0.00011668250520076618
-0.27130648205347824,-0.27130648205347824,1.0000379707204003,0.00011666221642121239
-0.2692398076629615,-0.2692398076629615,1.000038880390108,0.00011668923247142165
-0.26732357609580504,-0.26732357609580504,0.9998644084351798,0.00011689563786592075
-0.2657629856155836,-0.2657629856155836,1.0002320751782026,0.00011668609892150394
-0.26462759940768593,-0.26462759940768593,1.0001997818047428,0.00011675380062339192
-0.2636856560464366,-0.2636856560464366,1.0000833866872392,0.00012020893684825613
-0.26147374868596673,-0.26147374868596673,0.9998092222113758,0.00011668015530185418
-0.25993773838854395,-0.25993773838854395,0.9998831346192528,0.00011663321443972697
-0.2587443377356976,-0.2587443377356976,1.0000662864710306,0.00011668622844544485
-0.2576227025856497,-0.2576227025856497,0.9999217276508165,0.00011739034617080449
-0.2554191379924305,-0.2554191379924305,0.9998422473939504,0.00011668629305749338
-0.2539095887055737,-0.2539095887055737,1.0000459653144904,0.00011664625981458722
-0.25255679180409063,-0.25255679180409063,0.9999664309135998,0.0001204736145663116
-0.2500955786090344,-0.2500955786090344,1.0001116570905868,0.00011668420183507133
-0.24747119710227708,-0.24747119710227708,1.0001653230890346,0.00011669266146847445
-0.24547086660313652,-0.24547086660313652,0.9998893687586922,0.00011669854305082288
-0.2439251158342813,-0.2439251158342813,1.0000565594987727,0.00011686578896376201
-0.24269536364008673,-0.24269536364008673,1.0003368815340425,0.00011683086856747722
-0.24166370176390045,-0.24166370176390045,1.0002110856166826,0.00012048779774960584
-0.2399880389959435,-0.2399880389959435,1.000031334913343,0.00012008099711481311
-0.23797811882395764,-0.23797811882395764,1.000064630933854,0.0001190471133410454
-0.23623510027246084,-0.23623510027246084,1.0002415061804713,0.00011666242280556015
-0.2352469894423848,-0.2352469894423848,0.9999593699768201,0.00011723902493987445
-0.23303040134633193,-0.23303040134633193,0.9998885361553146,0.00011884112259174463
-0.23157439555652673,-0.23157439555652673,1.0000626543262867,0.00011976526900085568
-0.2298109636263689,-0.2298109636263689,0.9999038430833231,0.00011665234341758175
-0.22716272028337697,-0.22716272028337697,1.0000199601902788,0.00011935130164564964
-0.22525451288674958,-0.22525451288674958,1.00010790611685,0.0001205404559022985
-0.22385129251342734,-0.22385129251342734,0.9999484126959979,0.00011669121766417538
-0.2223357489609043,-0.2223357489609043,0.9998568777221706,0.00011683135945379562
-0.2200728362353402,-0.2200728362353402,1.0000392515263554,0.00011671065332863716
-0.21797972812200897,-0.21797972812200897,1.000017488600794,0.00011666201440505015
-0.21615145559917437,-0.21615145559917437,1.0002242294836639,0.00011865015222441806
-0.21387560316361487,-0.21387560316361487,1.0000558692819166,0.00011662873487478156
-0.21275722857535584,-0.21275722857535584,1.0000885434718132,0.00011712792020599717
-0.21090779743535676,-0.21090779743535676,1.0002317165458614,0.0001193289041532868
-0.20789416956104106,-0.20789416956104106,0.9997936674185667,0.00011662699174296795
-0.20539601498894627,-0.20539601498894627,1.0001343819771555,0.0001167064224683834
-0.20326373368006898,-0.20326373368006898,1.0000264961294407,0.0001167060307032677
-0.20064720329828561,-0.20064720329828561,1.0000542896359352,0.00011667079102313194
-0.19836521427205298,-0.19836521427205298,0.999997519615339,0.00011666924590542546
-0.19658211027708603,-0.19658211027708603,1.0001221182881799,0.00011887108036372598
-0.19468802479386796,-0.19468802479386796,0.9998987129368972,0.0001166706511901498
-0.1915804408155964,-0.1915804408155964,1.0000372447703612,0.00011663836994573913
-0.19002928702684585,-0.19002928702684585,0.9999913584379587,0.00011703937518251308
-0.18819952798221493,-0.18819952798221493,1.0001204162317632,0.00011666252024961825
-0.18553892213385553,-0.18553892213385553,0.9997141318409497,0.00012054602559722742
-0.18372110219934257,-0.18372110219934257,0.9999506877092126,0.00011667634021963647
-0.18209943874826423,-0.18209943874826423,1.0001519090022524,0.00011668757986686297
-0.18072933817020384,-0.18072933817020384,1.0000019455720524,0.00011777662625308482
-0.17848998170229607,-0.17848998170229607,0.9999299350851192,0.00011667775670825027
-0.17605120203952537,-0.17605120203952537,1.0000395862869191,0.0001166936809495213
-0.17446617174573475,-0.17446617174573475,0.9999965675377054,0.00011668462480191612
-0.17254878635285423,-0.17254878635285423,1.0000962777107048,0.00011667678546680682
-0.16920810780866305,-0.16920810780866305,1.0001116008022644,0.00011895135670451881
-0.16703672141156858,-0.16703672141156858,1.000052138273141,0.00011697791665776743
-0.16576163201098099,-0.16576163201098099,0.9999869324528315,0.00011675166953222841
-0.1642945147017599,-0.1642945147017599,0.9998430852006728,0.00011670820840243335
-0.16203932326752693,-0.16203932326752693,1.000157254205194,0.00011983433520734721
-0.1608356158612878,-0.1608356158612878,0.9997934056265319,0.00011665254510675632
-0.16017722939286613,-0.16017722939286613,1.000014338281462,0.00011809554188010642
-0.15934249777637888,-0.15934249777637888,0.9999116070931304,0.00011747878522205028
-0.15725394501787376,-0.15725394501787376,1.000050788009909,0.0001167066005056156
-0.15523968952475115,-0.15523968952475115,0.9999253525241187,0.00011662264018604451
-0.15330011347687106,-0.15330011347687106,1.0001078181985354,0.00011671573206942271
-0.15216202659794362,-0.15216202659794362,0.9999534706191261,0.00011668224954557716
-0.1506896287057316,-0.1506896287057316,1.000030132423792,0.00011667255103849192
-0.1479399575968273,-0.1479399575968273,1.0001735038103543,0.00011669913462377937
-0.14579240635648602,-0.14579240635648602,1.0000501771140922,0.00011691379504936556
-0.14424506602663315,-0.14424506602663315,1.00000663170592,0.00011682647543626103
-0.14289368559548166,-0.14289368559548166,1.000036919291643,0.00012036288154705444
-0.1409058078294038,-0.1409058078294038,0.9997997794719206,0.00012030834226079066
-0.1395842920173891,-0.1395842920173891,0.999981455907643,0.00011666534963415054
-0.1385166714899242,-0.1385166714899242,1.0000621532763905,0.00011844968840365967
-0.13752763912052615,-0.13752763912052615,0.9998926140525699,0.00012046427035063759
-0.1357498338998994,-0.1357498338998994,1.0000621462218495,0.00011733435858168886
-0.13294791969674408,-0.13294791969674408,1.0000751948297246,0.0001195332562419706
-0.13106457580579445,-0.13106457580579445,1.0000230965275123,0.00011669657913529999
-0.12913816185609903,-0.12913816185609903,1.0001922968042998,0.00011958161350533682
-0.126733686310763,-0.126733686310763,0.9998551950543467,0.00011669783865219906
-0.12436470069224015,-0.12436470069224015,1.0001454510802665,0.00011670138113916975
-0.12259191980265313,-0.12259191980265313,0.9997736291224214,0.00011685094558979773
-0.12102510282566073,-0.12102510282566073,1.0001718493575347,0.0001200814973561485
-0.11915998687472892,-0.11915998687472892,1.000110528369937,0.00011667263097282752
-0.11697993630950805,-0.11697993630950805,1.000065264272314,0.00011666721406991957
-0.11513046018808382,-0.11513046018808382,0.9999011993103469,0.00011663635853914716
-0.11414040802919771,-0.11414040802919771,0.9998859991716536,0.00011717810592308253
-0.11211889297701419,-0.11211889297701419,0.999993754951437,0.00011904938627380888
-0.10951020294596674,-0.10951020294596674,1.0000325040244533,0.00011664303778738836
-0.10685076943045715,-0.10685076943045715,1.0000769063984372,0.00011672358093633253
-0.10465101384033915,-0.10465101384033915,0.9998319643746321,0.00011669540820496607
-0.10237322020984721,-0.10237322020984721,0.9999918923849606,0.00011666769493677905
-0.10019812719838228,-0.10019812719838228,1.0000918058617265,0.00011673627804730817
-0.09792995456809876,-0.09792995456809876,0.9999119149037048,0.00011668687369489164
-0.09565878062567208,-0.09565878062567208,1.0000672220806348,0.00011665142344692139
-0.0924076129536843,-0.0924076129536843,1.0001629730012782,0.00011664724563034616
-0.09136281919199973,-0.09136281919199973,0.9999777483881493,0.00011708731124004357
-0.09004862799920374,-0.09004862799920374,1.0001678968854386,0.0001166647313942096
-0.08781454895797651,-0.08781454895797651,0.9999206242996619,0.00011667619125330928
-0.08659995970374439,-0.08659995970374439,1.000126773464714,0.00012053393417445098
-0.08467936266388279,-0.08467936266388279,1.0000034251377001,0.00011671176732257432
-0.08337011807598174,-0.08337011807598174,0.9998398626826281,0.00011666682361620952
-0.08211250584572553,-0.08211250584572553,0.999852492201269,0.00011793736141333523
-0.07851813167362706,-0.07851813167362706,1.000052615337921,0.00011667614529842331
-0.07594542473525508,-0.07594542473525508,0.999890299631154,0.00011669058456894788
-0.07404343006055569,-0.07404343006055569,0.9999449083529441,0.00011665974735649179
-0.07154183168313466,-0.07154183168313466,0.9998691319050357,0.00011666041765287618
-0.06912754039949505,-0.06912754039949505,0.9999353928871277,0.00011697806865371098
-0.06689214506623102,-0.06689214506623102,1.0001082713562996,0.00011665432203087126
-0.06443398501869524,-0.06443398501869524,1.0000113785183242,0.00012056885769734602
-0.06282380787015426,-0.06282380787015426,0.999665636554378,0.00011666421262732294
-0.06191668180108536,-0.06191668180108536,1.0000034065938235,0.00011666681412055234
-0.061151614513073584,-0.061151614513073584,1.0002235274847942,0.00011824992811401854
-0.05964768660633126,-0.05964768660633126,1.0001391365018102,0.00011765146148810012
-0.05795066658174619,-0.05795066658174619,1.0000049248904688,0.00011669548805528776
-0.05642543356516398,-0.05642543356516398,1.0000746374896199,0.00011664223706228472
-0.05461327150114812,-0.05461327150114812,0.9999550375417281,0.00011669372830253459
-0.053541032277280465,-0.053541032277280465,0.9999473444676223,0.00011667431140920787
-0.051875243478571066,-0.051875243478571066,1.0000655032531234,0.0001166603882507967
