time,time,flux,flux_err
-0.49901366224852,-0.49901366224852,1.0000138924183253,4.622000726450722e-05
-0.4979485762208545,-0.4979485762208545,1.0000486331588254,4.627552033579005e-05
-0.4961094763487684,-0.4961094763487684,1.0000456103769666,4.6217932967505736e-05
-0.49434135112169314,-0.49434135112169314,0.9998976172668341,4.2217561014519954e-05
-0.49253671676196975,-0.49253671676196975,0.9999916895379315,4.218761284069375e-05
-0.4907152278123249,-0.4907152278123249,1.0000333308940759,4.2196697966107735e-05
-0.48874622778093907,-0.48874622778093907,1.0000454477360088,4.219258675423324e-05
-0.48737275038074584,-0.48737275038074584,1.0000067772485102,4.2194507148123264e-05
-0.4860988621781871,-0.4860988621781871,0.9999964374990509,4.302438839979985e-05
-0.48510788097337354,-0.48510788097337354,0.999973651289146,4.220651496947328e-05
-0.48388898613411585,-0.48388898613411585,1.0000156495794257,4.219215732129392e-05
-0.48266744961802033,-0.48266744961802033,1.0000417419880752,4.219318204697034e-05
-0.48152194587019037,-0.48152194587019037,1.0000387688202554,4.219047921284493e-05
-0.48040685533414945,-0.48040685533414945,0.9999724132973566,4.219366719352779e-05
-0.47850893060531235,-0.47850893060531235,1.0000123696563477,4.219627707322915e-05
-0.4772863562873681,-0.4772863562873681,0.9999707891904149,4.2221838073759785e-05
-0.47621900749363705,-0.47621900749363705,1.0000496906867535,4.219277072324336e-05
-0.47515190330086626,-0.47515190330086626,0.9999380829161064,4.223179669593463e-05
-0.47438643515561124,-0.47438643515561124,1.0000272807728172,4.2218719170383525e-05
-0.4732545686631056,-0.4732545686631056,1.0000439627261068,4.221724943074876e-05
-0.4718551154299348,-0.4718551154299348,1.0000947368599626,4.222460290214412e-05
-0.4705629025644157,-0.4705629025644157,1.0000604985471788,4.221487893784631e-05
-0.46910964360940854,-0.46910964360940854,1.0000191313293536,4.2191053849353934e-05
-0.46749849120969883,-0.46749849120969883,0.999994219996984,4.2196792016427764e-05
-0.4662346359560615,-0.4662346359560615,0.9999765659806454,4.2195258728065067e-05
-0.4645813161085243,-0.4645813161085243,1.0000743397490672,4.219848600298549e-05
-0.46352427743404406,-0.46352427743404406,0.999998079423946,4.2201343088268724e-05
-0.4622776888987573,-0.4622776888987573,0.9999604216028658,4.220908737152443e-05
-0.4615677616056928,-0.4615677616056928,0.9999565870906302,4.219974134536567e-05
-0.46035393353595283,-0.46035393353595283,0.999945957089782,4.2207539906773766e-05
-0.4589160001465643,-0.4589160001465643,1.0000387764353313,4.221305930833841e-05
-0.45756064560337106,-0.45756064560337106,1.0000170278544955,4.2215130633349225e-05
-0.4562442928814562,-0.4562442928814562,0.9999588209123995,4.2205523048890603e-05
-0.45422498658736005,-0.45422498658736005,1.0000857775570224,4.221650270944492e-05
-0.45274664833996214,-0.45274664833996214,0.9999030210096199,4.221470135938338e-05
-0.4519141508390021,-0.4519141508390021,1.0000882249086345,4.2215112609303435e-05
-0.45066481780377216,-0.45066481780377216,1.000063865298734,4.218532106187277e-05
-0.44950800626465937,-0.44950800626465937,0.999999734428733,4.221477365770819e-05
-0.4477675982656365,-0.4477675982656365,1.00009337757452,4.219753384914847e-05
-0.4457337197905872,-0.4457337197905872,0.9999181468081921,4.220053434488643e-05
-0.4442622575748828,-0.4442622575748828,1.0000496915069896,4.218503560774619e-05
-0.4428475841115869,-0.4428475841115869,1.0000751728844621,4.220251327175816e-05
-0.4413798578963906,-0.4413798578963906,1.0000215145151716,4.219203942229872e-05
-0.4399197431259381,-0.4399197431259381,0.999886669973016,4.2199834798241175e-05
-0.43837320608945446,-0.43837320608945446,0.9999705747427152,4.2208866841488915e-05
-0.4369885857515328,-0.4369885857515328,0.9999821030118122,4.2191868307945276e-05
-0.4356557952974981,-0.4356557952974981,1.0000254107903392,4.220149263126046e-05
-0.43443704468736544,-0.43443704468736544,1.0000396881085132,4.2209422760902635e-05
-0.4337328425586747,-0.4337328425586747,1.0001349349024962,4.219493520738791e-05
-0.43216583398825603,-0.43216583398825603,1.0000135021739842,4.2195232152370805e-05
-0.43104015094068016,-0.43104015094068016,1.0000167565426443,4.2224640061737946e-05
-0.4292430711131601,-0.4292430711131601,1.0000675133405745,4.2208994902421786e-05
-0.42736391992730205,-0.42736391992730205,0.9999543915672543,4.218211327069287e-05
-0.4261957888629695,-0.4261957888629695,1.00013132401385,4.2215616538951655e-05
-0.4251231414062204,-0.4251231414062204,1.0000132830580888,4.2191850053201504e-05
-0.4238900552933046,-0.4238900552933046,0.9999913455419144,4.2220465967142366e-05
-0.42250702739474943,-0.42250702739474943,1.0000566978209016,4.21965847200659e-05
-0.4209471376532747,-0.4209471376532747,0.9999523905103171,4.218515159038581e-05
-0.4196616186563915,-0.4196616186563915,0.9999701256686615,4.219763418876949e-05
-0.41794893315527587,-0.41794893315527587,1.0000146500413436,4.21884789268947e-05
-0.41676455732667816,-0.41676455732667816,0.9999696596545217,4.220179398513926e-05
-0.41512887636126833,-0.41512887636126833,1.0000799954970478,4.2208254343143924e-05
-0.41344274400689757,-0.41344274400689757,1.0001149684036181,4.220252282209944e-05
-0.41152183511439944,-0.41152183511439944,1.0000009285995215,4.21957822192326e-05
-0.410232251490379,-0.410232251490379,1.0000825440584442,4.222522340862565e-05
-0.408687666777405,-0.408687666777405,1.0000437652192289,4.2206969786658126e-05
-0.40700402322327134,-0.40700402322327134,1.0000472666181364,4.2217438506007905e-05
-0.40462403047131373,-0.40462403047131373,0.999872776546882,4.21834271157006e-05
-0.4030573074975109,-0.4030573074975109,1.0000581694135624,4.221644081818491e-05
-0.4020843627440627,-0.4020843627440627,1.0000099369538922,4.21875119958185e-05
-0.40129019456726384,-0.40129019456726384,0.9999613019793733,4.219068756400615e-05
-0.400018757829821,-0.400018757829821,0.9999532883835306,4.218465236974344e-05
-0.3985852954938309,-0.3985852954938309,0.9999516673045183,4.219497127711651e-05
-0.3969126375654014,-0.3969126375654014,1.000020573131634,4.219599067850524e-05
-0.3959827351689455,-0.3959827351689455,0.9999895010123592,4.220213143180401e-05
-0.39479653554444666,-0.39479653554444666,1.0000205344985638,4.2187018237624336e-05
-0.39344756088394206,-0.39344756088394206,0.9999262443683149,4.220110025902127e-05
-0.3918493408418726,-0.3918493408418726,0.999963821867258,4.2234700398829763e-05
-0.39051843644774636,-0.39051843644774636,0.9999564021204137,4.2195731190696774e-05
-0.38949895016339725,-0.38949895016339725,1.000096325348886,4.220227530595936e-05
-0.38778929267573403,-0.38778929267573403,1.0000501931342447,4.221386451445481e-05
-0.3868864565556578,-0.3868864565556578,0.9999955092862732,4.222099408767811e-05
-0.38562005742860495,-0.38562005742860495,0.9999939011655533,4.220663583839016e-05
-0.3845260435475211,-0.3845260435475211,0.9999926484963085,4.221451612139881e-05
-0.3834599847388745,-0.3834599847388745,0.9999899252048932,4.2219958143775e-05
-0.3819663310998294,-0.3819663310998294,0.9999437627226827,4.2186351958650415e-05
-0.3802856216505461,-0.3802856216505461,1.0000605508774505,4.221296853067781e-05
-0.37857463428299526,-0.37857463428299526,0.999979487788846,4.219078023648381e-05
-0.377077341479162,-0.377077341479162,0.9999129994870565,4.22062205971159e-05
-0.37543099427275595,-0.37543099427275595,0.9999722893772521,4.2195956975655165e-05
-0.37388325323845495,-0.37388325323845495,1.0000093407937023,4.218749560561627e-05
-0.37246012997784417,-0.37246012997784417,0.9999419994812795,4.2200968023595875e-05
-0.37122427298818367,-0.37122427298818367,0.9999398934845722,4.2201359527822225e-05
-0.37020592095868776,-0.37020592095868776,1.0000910311931388,4.219242130747451e-05
-0.36910653289814943,-0.36910653289814943,1.0000778084346695,4.219174902220785e-05
-0.3677960141911171,-0.3677960141911171,0.9999700044458695,4.218814812630757e-05
-0.36650875118211845,-0.36650875118211845,0.9999897544764476,4.220372899317621e-05
-0.36486246063432193,-0.36486246063432193,1.000036367435122,4.219601032859694e-05
-0.36374061001406516,-0.36374061001406516,0.9999042810594945,4.22194705168797e-05
-0.3626833643953432,-0.3626833643953432,0.9999147587014375,4.219035942887844e-05
-0.3614691256705555,-0.3614691256705555,1.0000390334517737,4.223380616169254e-05
-0.3605745511020359,-0.3605745511020359,0.9999709509560339,4.221224056215132e-05
-0.35957167180386024,-0.35957167180386024,0.9999832502110552,4.221634680436897e-05
-0.3583914138362161,-0.3583914138362161,1.000000564649613,4.2217108889381316e-05
-0.3572937485216244,-0.3572937485216244,0.9999629244579686,4.222157047259504e-05
-0.35599753581627736,-0.35599753581627736,0.9999736094140459,4.2190030387641406e-05
-0.35469115133964807,-0.35469115133964807,1.0000903832622392,4.219435099396017e-05
-0.3531244578509359,-0.3531244578509359,1.0000618276890147,4.219638754105294e-05
-0.3518624664466188,-0.3518624664466188,0.9999610991147903,4.2191853472560064e-05
-0.35045533151715064,-0.35045533151715064,0.9999985882759448,4.219356227763656e-05
-0.3491648669150891,-0.3491648669150891,0.9999258461052956,4.220191655897127e-05
-0.34804402563895565,-0.34804402563895565,0.9999152793616666,4.2199464087095685e-05
-0.34662650520549504,-0.34662650520549504,1.0000616261498316,4.219562357833491e-05
-0.34485709189757474,-0.34485709189757474,0.9999835708750933,4.222172312398514e-05
-0.3438003761388245,-0.3438003761388245,1.0000297661887645,4.2200809720374216e-05
-0.3425561134565214,-0.3425561134565214,0.9999925633961299,4.2215048613485966e-05
-0.3405415485489357,-0.3405415485489357,0.9999293724276189,4.22278188889833e-05
-0.3390627284701623,-0.3390627284701623,1.000015882615497,4.221844055041641e-05
-0.33823110883604385,-0.33823110883604385,0.9998777956340941,4.221002926441275e-05
-0.3369810202122608,-0.3369810202122608,0.9999940173556675,4.218398972727674e-05
-0.3358240742025373,-0.3358240742025373,1.0000087838448204,4.2212967237165e-05
-0.33426199501773224,-0.33426199501773224,0.9999952644325563,4.220079554535919e-05
-0.3325500557286432,-0.3325500557286432,1.0000159324702773,4.220470119080008e-05
-0.331238457323343,-0.331238457323343,1.0000303134076862,4.218874791209736e-05
-0.3296593258120993,-0.3296593258120993,1.0000221971198329,4.2197816370856674e-05
-0.3280805087699264,-0.3280805087699264,0.9999727995065257,4.219905103397264e-05
-0.32661111398338105,-0.32661111398338105,0.9999662308195555,4.2199725147898726e-05
-0.3248597682075342,-0.3248597682075342,0.9999225031461098,4.2205679568549796e-05
-0.32358824130133146,-0.32358824130133146,0.9999424923621347,4.219098957254161e-05
-0.3225219093976193,-0.3225219093976193,0.9999585422839964,4.220867462286287e-05
-0.3209873560430424,-0.3209873560430424,0.9999899807220342,4.21961955883404e-05
-0.31968619727922487,-0.31968619727922487,1.0000417571885234,4.219460151576122e-05
-0.31812089654340525,-0.31812089654340525,0.9999979314647804,4.2202127294936595e-05
-0.31682792911160507,-0.31682792911160507,0.9999724993781365,4.2232980788311865e-05
-0.31544309084201816,-0.31544309084201816,0.9999799896868996,4.2194874521636676e-05
-0.31368043152615427,-0.31368043152615427,0.9999340973844582,4.2179766460269226e-05
-0.31244127651589226,-0.31244127651589226,0.9999527633388599,4.2215781232308914e-05
-0.3112642812237027,-0.3112642812237027,0.9999644709951581,4.2204477631348526e-05
-0.30986799333477394,-0.30986799333477394,1.0000563110579348,4.218941043037132e-05
-0.3085753188941453,-0.3085753188941453,0.9999679826584951,4.219799002097658e-05
-0.30690168530491063,-0.30690168530491063,1.0001193358313218,4.2187285718027547e-05
-0.3056318994393223,-0.3056318994393223,1.000006756562709,4.219900288747701e-05
-0.3041391956321604,-0.3041391956321604,1.0000708688643134,4.218594832697422e-05
-0.30308065484205143,-0.30308065484205143,0.9999780192150549,4.22034780062612e-05
-0.3012904563038319,-0.3012904563038319,1.0000190242030602,4.2212796440906764e-05
-0.2994360712626076,-0.2994360712626076,0.999976921684741,4.219677577821463e-05
-0.29782478746710694,-0.29782478746710694,0.999985886476549,4.219548197961819e-05
-0.2965487917485007,-0.2965487917485007,1.0000136868336296,4.2226880451895485e-05
-0.29485138310847103,-0.29485138310847103,0.9999698073344094,4.222888614304091e-05
-0.29291895601418216,-0.29291895601418216,1.000048945753464,4.222112412185918e-05
-0.29100000993930736,-0.29100000993930736,1.0000077245676025,4.2193251467422325e-05
-0.2896765777069959,-0.2896765777069959,1.0001046805499583,4.221631326876637e-05
-0.28861346802877963,-0.28861346802877963,1.0000138586527747,4.218564991867255e-05
-0.28739237371701165,-0.28739237371701165,0.9999746151042659,4.219201599682791e-05
-0.28609230586589546,-0.28609230586589546,0.9999752808949818,4.2187199774243644e-05
-0.2846265920314181,-0.2846265920314181,1.000047725767328,4.219485807593676e-05
-0.28321612249783357,-0.28321612249783357,1.000106307344458,4.220599627110024e-05
-0.28200319165553084,-0.28200319165553084,0.999947880800705,4.218573799449255e-05
-0.2809348653776397,-0.2809348653776397,0.9999730710581949,4.219276432580954e-05
-0.27969500102626627,-0.27969500102626627,1.0000275462704986,4.220422429839506e-05
-0.27816176881242427,-0.27816176881242427,0.9999830051661907,4.222437287102453e-05
-0.2768352066159423,-0.2768352066159423,1.0000509327481049,4.219904594988724e-05
-0.2758161307501723,-0.2758161307501723,1.0000433759053142,4.219925050691728e-05
-0.27420596504525746,-0.27420596504525746,1.0000129850677815,4.2207841971037376e-05
-0.27339918320867584,-0.27339918320867584,1.0000520678243703,4.2194685188819416e-05
-0.27241630934659045,-0.27241630934659045,1.0000308956286075,4.221800825795727e-05
-0.27100955819478256,-0.27100955819478256,1.0000491450970235,4.2214239100473415e-05
-0.2701810176826257,-0.2701810176826257,1.0000564308525168,4.22188885397725e-05
-0.2689179884058831,-0.2689179884058831,0.999959083672952,4.2193452088832876e-05
-0.2672616766882129,-0.2672616766882129,1.0000486837577802,4.218907134223271e-05
-0.26552966207746065,-0.26552966207746065,1.0000391764725272,4.221236384830028e-05
-0.2638094855334202,-0.2638094855334202,1.0000538720724221,4.2199012624566045e-05
-0.26210324886487796,-0.26210324886487796,0.9999799965877021,4.219646879501737e-05
-0.26031014019899884,-0.26031014019899884,1.0000394059548978,4.219208867249813e-05
-0.25879698466451373,-0.25879698466451373,1.0000594505179632,4.2201150832602015e-05
-0.25774070780025793,-0.25774070780025793,1.0000538675236108,4.220904249683493e-05
-0.25645354531588965,-0.25645354531588965,0.9999674749697774,4.2197533790456866e-05
-0.2554357385248295,-0.2554357385248295,0.9999642555539129,4.218929222082852e-05
-0.25414998859050686,-0.25414998859050686,0.999972553314714,4.219928653466059e-05
-0.2530403926211875,-0.2530403926211875,0.9998954762124708,4.2192559406681946e-05
-0.25152749364351623,-0.25152749364351623,0.999981215617867,4.2208442338790196e-05
-0.2502812891623762,-0.2502812891623762,0.9999793636185984,4.2192114388866264e-05
-0.24926489266435964,-0.24926489266435964,1.0000340613232581,4.221937067907133e-05
-0.24794255613014685,-0.24794255613014685,1.000023929317969,4.223221071415419e-05
-0.24713264252932277,-0.24713264252932277,1.0000680813653517,4.2213245073845505e-05
-0.24595892639263184,-0.24595892639263184,0.9999261251118753,4.219031508379763e-05
-0.244590529310517,-0.244590529310517,1.0000123279933164,4.2218377107299375e-05
-0.2434133568487596,-0.2434133568487596,0.999993425125328,4.2223476197881046e-05
-0.2420206528608105,-0.2420206528608105,0.9999649131095374,4.2185950860263604e-05
-0.24060083112854044,-0.24060083112854044,1.0000168638243605,4.219503833793055e-05
-0.23898346811547527,-0.23898346811547527,0.9999926932019949,4.220351019963682e-05
-0.23752065294975183,-0.23752065294975183,1.0000257942410038,4.2186104545149575e-05
-0.23636420329057728,-0.23636420329057728,0.9999681412508983,4.219814727487067e-05
-0.23493834620239795,-0.23493834620239795,0.9999862382329718,4.219291089634875e-05
-0.2339051220937108,-0.2339051220937108,0.9999997100867919,4.220461713893558e-05
-0.23264680152933578,-0.23264680152933578,0.9999285717145743,4.219223262027326e-05
-0.23097423711442389,-0.23097423711442389,0.9999256999309578,4.2220517815657885e-05
-0.23011664165969706,-0.23011664165969706,1.000013660901919,4.220062281650709e-05
-0.22842072763232862,-0.22842072763232862,1.0000275988224958,4.2217618817816826e-05
-0.2264991297641245,-0.2264991297641245,1.0000328814613293,4.223349546223355e-05
-0.22511916320654562,-0.22511916320654562,1.0000756043044867,4.221568055973924e-05
-0.2243258175898518,-0.2243258175898518,1.0000133693333795,4.220911722834109e-05
-0.22304118019965244,-0.22304118019965244,0.9999757331780931,4.2187440529589046e-05
-0.222096305629384,-0.222096305629384,1.00005436743032,4.2214326737597135e-05
-0.22039917491711095,-0.22039917491711095,0.9999077689003057,4.219488829563629e-05
-0.2183664700765803,-0.2183664700765803,0.999975363200573,4.219997291663984e-05
-0.21657067553605885,-0.21657067553605885,1.0001304658665386,4.2192411855028026e-05
-0.21542712029840913,-0.21542712029840913,0.9999187347091205,4.2209735195151505e-05
-0.21412582054690574,-0.21412582054690574,1.000050184544206,4.221681063740504e-05
-0.2129277832202206,-0.2129277832202206,1.0000142873019626,4.220023033812929e-05
-0.21117612826346885,-0.21117612826346885,1.0000054731643333,4.2206455643859484e-05
-0.20996484274364774,-0.20996484274364774,1.0000510167537615,4.220952374194587e-05
-0.20897930348583033,-0.20897930348583033,0.9999944067725648,4.221265362475023e-05
-0.20730416097139823,-0.20730416097139823,1.00010128872765,4.219749378358161e-05
-0.2063108980168181,-0.2063108980168181,0.9999150449959927,4.2189628864443564e-05
-0.20463682546760537,-0.20463682546760537,1.0000271607676063,4.2194935858391456e-05
-0.20367529606664903,-0.20367529606664903,1.000047638131453,4.2229291156138795e-05
-0.20213396019171342,-0.20213396019171342,1.0000503036657609,4.2201342627871785e-05
-0.20040484641649528,-0.20040484641649528,1.0000077191122285,4.2182794518442706e-05
-0.19906334052720923,-0.19906334052720923,0.9999941536628473,4.221379575171837e-05
-0.19745465690648417,-0.19745465690648417,0.9999862246976468,4.2202840573697067e-05
-0.19580145782674663,-0.19580145782674663,0.99996076710189,4.218475382616989e-05
-0.19429076400629128,-0.19429076400629128,1.000014853732828,4.219361664313264e-05
-0.19273500493727624,-0.19273500493727624,1.0001119678340848,4.2191108526235575e-05
-0.19117067677143496,-0.19117067677143496,1.0000584310640115,4.2203366536783024e-05
-0.18997267765807918,-0.18997267765807918,0.9999400899847799,4.219442896458466e-05
-0.18845297121224575,-0.18845297121224575,1.0000664034113458,4.219638555374608e-05
-0.18679153635021067,-0.18679153635021067,0.99997995117278,4.2211941885058825e-05
-0.1853599531146756,-0.1853599531146756,1.0000421376686026,4.2202576410843874e-05
-0.18401322556019295,-0.18401322556019295,1.0000101285747838,4.220298163693813e-05
-0.18286533444697853,-0.18286533444697853,1.000029302981978,4.222508221735749e-05
-0.1815625689290755,-0.1815625689290755,1.0000216026172122,4.220798302714577e-05
-0.1796380877167394,-0.1796380877167394,1.0000392040883828,4.221527678902693e-05
-0.17752821640096955,-0.17752821640096955,1.0000422695614009,4.2221509884705144e-05
-0.17631243068026378,-0.17631243068026378,0.9999519933784047,4.2186337480249454e-05
-0.17514600152353524,-0.17514600152353524,1.0000752828249166,4.2217216626215534e-05
-0.173706185248011,-0.173706185248011,1.000049512325993,4.2198615446493876e-05
-0.17196550932640092,-0.17196550932640092,1.0000484337258446,4.2198225571924934e-05
-0.17005441787041492,-0.17005441787041492,0.9999904643986609,4.219083597462431e-05
-0.1688958471713704,-0.1688958471713704,0.9999881681663998,4.219951201840489e-05
-0.16763381528144236,-0.16763381528144236,0.9999688651271154,4.2189495010286964e-05
-0.16644238914523157,-0.16644238914523157,1.00003266887005,4.220113039523217e-05
-0.16474544619195514,-0.16474544619195514,1.0000434935424414,4.2212263238800104e-05
