time,time,flux,flux_err
-0.49974790082948556,-0.49974790082948556,0.9999059538585596,6.714128522547995e-05
-0.49806010894462815,-0.49806010894462815,0.9999449402456876,6.718588802851364e-05
-0.49586540209444746,-0.49586540209444746,1.0001080515658416,6.706368618158301e-05
-0.49401413438245073,-0.49401413438245073,1.0000028139423172,6.123947442599552e-05
-0.49225527542366765,-0.49225527542366765,1.0001052571609215,6.126537222693636e-05
-0.4911612824544136,-0.4911612824544136,1.0000153874384905,6.124327778379679e-05
-0.4904661662723811,-0.4904661662723811,1.0000620220935768,6.123602601789923e-05
-0.48926017419289564,-0.48926017419289564,0.9999531698294459,6.124680332321284e-05
-0.4881840571651992,-0.4881840571651992,1.0000201045446382,6.132115405188731e-05
-0.48692731939154327,-0.48692731939154327,1.0000411862954097,6.122684300361385e-05
-0.48586821879289344,-0.48586821879289344,0.9999794997371554,6.135770897576903e-05
-0.48412445053763803,-0.48412445053763803,1.0000436219355975,6.129085178836227e-05
-0.48224649835465244,-0.48224649835465244,1.0000176164572454,6.127355808694083e-05
-0.4807955672375101,-0.4807955672375101,1.0000284741392997,6.12095925226151e-05
-0.4792951100956998,-0.4792951100956998,1.000115140694405,6.124187189062443e-05
-0.4781298211106332,-0.4781298211106332,1.0001105386456905,6.128139533868355e-05
-0.4770716275059385,-0.4770716275059385,1.0000014935459223,6.124974904551353e-05
-0.47650750899119887,-0.47650750899119887,0.9998997068229732,6.127417326097841e-05
-0.47583841307641705,-0.47583841307641705,1.0000180181917175,6.128823123338479e-05
-0.47462850405136126,-0.47462850405136126,0.9999848630036746,6.129162326831277e-05
-0.472640401157696,-0.472640401157696,1.0000470583090617,6.130731592002544e-05
-0.4717484480592248,-0.4717484480592248,0.9999854663886161,6.126199598857147e-05
-0.47039122538189987,-0.47039122538189987,1.0000236555443185,6.129280698089129e-05
-0.4692505125043681,-0.4692505125043681,0.9999968992552285,6.133139770173964e-05
-0.4677572916254576,-0.4677572916254576,0.9999258092102268,6.123324051130704e-05
-0.467005440279172,-0.467005440279172,1.0000322173868448,6.120422707500917e-05
-0.466180513202562,-0.466180513202562,0.9999332080388565,6.126733283599289e-05
-0.46487617599705117,-0.46487617599705117,1.000062913691935,6.130242716718623e-05
-0.46381620123793255,-0.46381620123793255,0.9999957377183938,6.133356802855008e-05
-0.46287245562343743,-0.46287245562343743,1.000105366259779,6.128202882034309e-05
-0.4620503125945106,-0.4620503125945106,1.0000355017670504,6.1304799844961e-05
-0.4598072734668676,-0.4598072734668676,1.0000115641102596,6.130941488770257e-05
-0.4576951135873969,-0.4576951135873969,1.000111751598494,6.125292172859357e-05
-0.4565460292855278,-0.4565460292855278,1.000026320547554,6.129157575537246e-05
-0.45519888340641046,-0.45519888340641046,0.9999909912437314,6.128564256380661e-05
-0.4535343493655091,-0.4535343493655091,1.0001571568355745,6.121535252249141e-05
-0.4530092143817456,-0.4530092143817456,1.000016852430906,6.132884806343265e-05
-0.4523605042260897,-0.4523605042260897,0.9999051400562097,6.123405040048059e-05
-0.45110861908106015,-0.45110861908106015,1.0000711983692752,6.129839523313188e-05
-0.44919222924800123,-0.44919222924800123,1.0000503905875533,6.130741010229915e-05
-0.4469337946531596,-0.4469337946531596,1.0000631292116633,6.127552078133911e-05
-0.44576024949346904,-0.44576024949346904,1.0000595987927516,6.131434590839217e-05
-0.4439554372926068,-0.4439554372926068,0.9999778482529462,6.121627957874058e-05
-0.44308955071537637,-0.44308955071537637,1.0001011017430128,6.124242464290392e-05
-0.44178327421686847,-0.44178327421686847,0.9999564958581815,6.1246398845363e-05
-0.4403840828941611,-0.4403840828941611,1.00001565749457,6.13670832240344e-05
-0.439112312184443,-0.439112312184443,0.999954394482625,6.123460219908589e-05
-0.43842071390536147,-0.43842071390536147,0.9999442855711955,6.129616843280399e-05
-0.43692979010083943,-0.43692979010083943,0.9999923769719284,6.125345594911343e-05
-0.4343600885513297,-0.4343600885513297,1.0000486867553071,6.128561165470424e-05
-0.43260730701877037,-0.43260730701877037,0.9999713374876794,6.126494567348015e-05
-0.4304811288791825,-0.4304811288791825,1.0000138583503868,6.123121877831809e-05
-0.4296329053140653,-0.4296329053140653,0.9999665739502668,6.127858254950571e-05
-0.42886622599908153,-0.42886622599908153,1.0001399711025976,6.123356756933554e-05
-0.42709532088920243,-0.42709532088920243,0.9999437609541154,6.127652667710167e-05
-0.4258486869650369,-0.4258486869650369,0.9999694871306689,6.125590963879579e-05
-0.4239291177313135,-0.4239291177313135,1.0000432608289545,6.128436089870363e-05
-0.4225405674762442,-0.4225405674762442,0.9999740734195457,6.124112997363307e-05
-0.42034648807384656,-0.42034648807384656,1.00008015507198,6.121831614287784e-05
-0.41943941889039704,-0.41943941889039704,1.0000605258354116,6.121756342932348e-05
-0.4180030945863109,-0.4180030945863109,1.0001530489747892,6.130968476056996e-05
-0.4164276287869143,-0.4164276287869143,0.9999715975138086,6.131428599674345e-05
-0.4154902368907642,-0.4154902368907642,0.9999594867112613,6.13042741584834e-05
-0.41483222281749477,-0.41483222281749477,0.9999650713931786,6.13062627601062e-05
-0.41351261712334236,-0.41351261712334236,0.9999164139006471,6.12856354021283e-05
-0.4114438870812592,-0.4114438870812592,0.9999432953233407,6.124746445889145e-05
-0.4093281986883085,-0.4093281986883085,1.000193163236091,6.125446159769142e-05
-0.40735059420840114,-0.40735059420840114,1.0000760179688588,6.127406666490437e-05
-0.4061551525082905,-0.4061551525082905,1.0000276499573615,6.125224348399112e-05
-0.4055690652734484,-0.4055690652734484,1.0000704241671114,6.12550789948292e-05
-0.4039471703821619,-0.4039471703821619,1.0000421074709094,6.123807422389797e-05
-0.4024103455922159,-0.4024103455922159,0.999989999249752,6.134831029292092e-05
-0.40105828678642863,-0.40105828678642863,0.9999440624724691,6.125743608704469e-05
-0.39958407025551423,-0.39958407025551423,1.0000034131362872,6.123619386684048e-05
-0.3977198338769085,-0.3977198338769085,1.0000618155983163,6.119370610914321e-05
-0.39625797638727817,-0.39625797638727817,0.999977823175463,6.12187947200197e-05
-0.3951108516062959,-0.3951108516062959,1.000146839487153,6.122653305542688e-05
-0.394081966172962,-0.394081966172962,1.0000627687707897,6.127140346482935e-05
-0.39219771260759445,-0.39219771260759445,1.000059877487657,6.122448614452306e-05
-0.3914896491063701,-0.3914896491063701,1.0000212301258664,6.130175424500448e-05
-0.390294497746072,-0.390294497746072,1.0000393111843597,6.129650428860259e-05
-0.38769401650861257,-0.38769401650861257,0.9998332349192047,6.12507990317261e-05
-0.38597853189276066,-0.38597853189276066,1.0001642560845485,6.129647795196326e-05
-0.38444268887033106,-0.38444268887033106,0.999981971925916,6.12066738975322e-05
-0.3829257128796598,-0.3829257128796598,0.9999939455005714,6.125607606992319e-05
-0.38226395145757125,-0.38226395145757125,1.0001055620045016,6.124116660976786e-05
-0.38135971758674714,-0.38135971758674714,0.9999857182715136,6.124030998033337e-05
-0.38003490603077805,-0.38003490603077805,1.0000496068517908,6.129698661264948e-05
-0.3789168117211375,-0.3789168117211375,0.9999671948293869,6.133088877204717e-05
-0.37781939653650626,-0.37781939653650626,1.0000285281305068,6.129169059505234e-05
-0.3765300875696994,-0.3765300875696994,1.0000474692497563,6.135199998105067e-05
-0.37480352327256694,-0.37480352327256694,1.0000196431512536,6.121275873251423e-05
-0.37316625548628507,-0.37316625548628507,1.0000615298857636,6.13302544779985e-05
-0.3720046644571994,-0.3720046644571994,0.9999852867818527,6.118897440627164e-05
-0.3707800419448176,-0.3707800419448176,0.99992903109547,6.12197876952011e-05
-0.36955199739531963,-0.36955199739531963,1.0001090644970616,6.128721983500424e-05
-0.3684779926828924,-0.3684779926828924,1.0000778389279295,6.11995452340937e-05
-0.36792214038432575,-0.36792214038432575,0.99996149150605,6.133045211795771e-05
-0.36721525066313915,-0.36721525066313915,1.0000968745894807,6.129471745630239e-05
-0.36559076971971083,-0.36559076971971083,0.9999317323599775,6.12986974902989e-05
-0.3636425972195866,-0.3636425972195866,1.0001125075683768,6.123056393038468e-05
-0.36193012667354196,-0.36193012667354196,1.0000590725232597,6.128365330999237e-05
-0.36030847116126097,-0.36030847116126097,1.0001021866824342,6.137472355115542e-05
-0.3590640600741608,-0.3590640600741608,1.0000937085188428,6.123617152941161e-05
-0.3583621965364728,-0.3583621965364728,1.000058309077682,6.124730870686474e-05
-0.3570468549914949,-0.3570468549914949,1.0000323166500453,6.128448525049227e-05
-0.3561349118645012,-0.3561349118645012,0.9999994477929759,6.13456742024922e-05
-0.35482324466720455,-0.35482324466720455,0.9999818992627105,6.123083245052305e-05
-0.35393206955559436,-0.35393206955559436,1.0000322107294053,6.124123811375101e-05
-0.35329023647573193,-0.35329023647573193,1.0000265071652332,6.134428459713996e-05
-0.3513870272130589,-0.3513870272130589,0.9999860654084533,6.132534144458478e-05
-0.34963823323705584,-0.34963823323705584,0.999957726396576,6.131767009235862e-05
-0.3484826650368632,-0.3484826650368632,0.9999834007705491,6.124135847630981e-05
-0.34724286367054447,-0.34724286367054447,0.9999721203113785,6.128113620642881e-05
-0.3458739299290755,-0.3458739299290755,0.9999163725006468,6.119452867200892e-05
-0.34499318459638745,-0.34499318459638745,1.0000545308284798,6.125615912912424e-05
-0.3445220681904175,-0.3445220681904175,0.9999025786069838,6.132423294351078e-05
-0.34387338655869826,-0.34387338655869826,1.0000837350332579,6.123750273934803e-05
-0.34289300299133174,-0.34289300299133174,1.0000379422208592,6.132886130800546e-05
-0.34115322488723904,-0.34115322488723904,1.000039335329171,6.12525326254455e-05
-0.33880864962775376,-0.33880864962775376,1.0000349729290636,6.13264760885439e-05
-0.3369471131176397,-0.3369471131176397,1.0000281582834665,6.127376612574384e-05
-0.33529507143393855,-0.33529507143393855,0.9999523690771408,6.118775574847824e-05
-0.3346026486615301,-0.3346026486615301,1.0000915514025872,6.12422607509341e-05
-0.33335981292329964,-0.33335981292329964,0.9999822921630586,6.124788954208643e-05
-0.3322296561687835,-0.3322296561687835,0.9999821386426767,6.133914111200335e-05
-0.33078859512897907,-0.33078859512897907,0.9999072811332417,6.127228206896442e-05
-0.3299416420442867,-0.3299416420442867,0.99992143805394,6.131710165293265e-05
-0.3281374852922454,-0.3281374852922454,0.9999952791543301,6.132158865031144e-05
-0.3255369043981773,-0.3255369043981773,1.0000616809961584,6.131647083271093e-05
-0.32377384483479543,-0.32377384483479543,1.000028304121827,6.123484491481974e-05
-0.32164124101691416,-0.32164124101691416,1.0000877324409394,6.127188758060651e-05
-0.3210074564885872,-0.3210074564885872,1.0000587563652832,6.12183339967857e-05
-0.32005050368607046,-0.32005050368607046,1.0000809329515028,6.126862697576941e-05
-0.31843396594704243,-0.31843396594704243,0.9999611643343769,6.126370699518917e-05
-0.3165994228278578,-0.3165994228278578,1.0000024738948843,6.122555972181874e-05
-0.3150972098635975,-0.3150972098635975,0.9999219174494046,6.126063578715249e-05
-0.31312331634617296,-0.31312331634617296,0.999943506623965,6.116049636294167e-05
-0.3115213060111273,-0.3115213060111273,1.0000644583788578,6.126342339035149e-05
-0.3104884522887005,-0.3104884522887005,0.9999463140916035,6.125524054575155e-05
-0.3089793575440126,-0.3089793575440126,1.0000316559096138,6.130424744132734e-05
-0.30765507955875365,-0.30765507955875365,0.9999214733358812,6.127701891349355e-05
-0.3067154066156945,-0.3067154066156945,1.0000920856739948,6.125002424839688e-05
-0.3060485528279969,-0.3060485528279969,0.9999422822995235,6.136584168019408e-05
-0.30394551164572475,-0.30394551164572475,1.0000265244678022,6.122244956287672e-05
-0.3016670891833201,-0.3016670891833201,0.9999944148665918,6.134361293051384e-05
-0.3001615577581106,-0.3001615577581106,0.9999493783477137,6.122887063715496e-05
-0.29820207491211476,-0.29820207491211476,1.0000209870646937,6.126485149207557e-05
-0.2973979058122495,-0.2973979058122495,1.0000039979572344,6.121405824999642e-05
-0.29621381071701763,-0.29621381071701763,0.9999461870277392,6.125737476479697e-05
-0.29471985872587536,-0.29471985872587536,1.0000316776409863,6.136156223072153e-05
-0.29298151426410185,-0.29298151426410185,1.0000613812149337,6.122193245467688e-05
-0.2912196553777903,-0.2912196553777903,0.9999927344630308,6.127407178749409e-05
-0.28911714380956255,-0.28911714380956255,1.0000050616392056,6.12278872603172e-05
-0.28783439170583736,-0.28783439170583736,0.9999463121358005,6.125584262708869e-05
-0.2868805814265215,-0.2868805814265215,0.9999216544532923,6.118186535911909e-05
-0.2852855344171985,-0.2852855344171985,1.0000105326823734,6.129660011645117e-05
-0.2837104535159597,-0.2837104535159597,1.0001227023452068,6.122462062164682e-05
-0.28300328129407715,-0.28300328129407715,0.9999723860441885,6.130364647746937e-05
-0.28180770742474126,-0.28180770742474126,1.0000056666110049,6.129850252263273e-05
-0.2794731854693964,-0.2794731854693964,1.000022117911762,6.122852693369025e-05
-0.2779618193540955,-0.2779618193540955,0.9999002415918365,6.121896668597937e-05
-0.2763257417085697,-0.2763257417085697,1.0000354976631634,6.122005230434053e-05
-0.27453190007436207,-0.27453190007436207,0.9999540816028232,6.123167079744863e-05
-0.2739199082578125,-0.2739199082578125,0.9998809989078424,6.129961768456487e-05
-0.27314641491539077,-0.27314641491539077,1.0000369404560525,6.118249494865003e-05
-0.27177290660474684,-0.27177290660474684,1.0000206309942459,6.130521243783728e-05
-0.2707199766169651,-0.2707199766169651,1.0000431315431029,6.134843267490344e-05
-0.269550629715377,-0.269550629715377,1.0000505486373796,6.124115832290171e-05
-0.2684804820048157,-0.2684804820048157,1.000099093520505,6.137012723733906e-05
-0.2671279309972306,-0.2671279309972306,1.0000795498868176,6.122417016169128e-05
-0.2657193024351727,-0.2657193024351727,0.9999692818814164,6.123882718489407e-05
-0.26424835092402643,-0.26424835092402643,0.99996267236264,6.12848824949627e-05
-0.26301520964625524,-0.26301520964625524,1.0000715165156175,6.117666797079346e-05
-0.2619943678117124,-0.2619943678117124,1.0000081215819692,6.129820785123569e-05
-0.2603798809235741,-0.2603798809235741,1.0000489421162397,6.12597031572823e-05
-0.2597798717331898,-0.2597798717331898,1.0000489254370684,6.129677669112089e-05
-0.2592335081688361,-0.2592335081688361,0.9999624378698506,6.129696914717663e-05
-0.25850343374841034,-0.25850343374841034,0.9999946422471485,6.127854607223479e-05
-0.25615640213436563,-0.25615640213436563,1.000009323673474,6.120000292374611e-05
-0.2542712234724604,-0.2542712234724604,0.9999212006748742,6.132183538275832e-05
-0.2524451000797853,-0.2524451000797853,1.000078568955454,6.130036793450183e-05
-0.25103324582232744,-0.25103324582232744,0.9999481435903694,6.127664127098372e-05
-0.25030655328009743,-0.25030655328009743,1.0000047957625204,6.129963393100826e-05
-0.24948122873393003,-0.24948122873393003,1.0000327710540176,6.119468166475363e-05
-0.24806036436202702,-0.24806036436202702,0.9999948149891236,6.133987644220851e-05
-0.24713338125147857,-0.24713338125147857,1.0000561205549168,6.134560023582253e-05
-0.24597239562717732,-0.24597239562717732,0.9999357617082831,6.122520207263813e-05
-0.2450774756158353,-0.2450774756158353,1.0001516286957677,6.135005874743896e-05
-0.24358397393662018,-0.24358397393662018,1.000038774020166,6.126459227626876e-05
-0.24145028285274747,-0.24145028285274747,1.0000189066745162,6.133596401803683e-05
-0.2399959172027593,-0.2399959172027593,0.9999629963459096,6.123940909648117e-05
-0.23873858171791654,-0.23873858171791654,1.0000099386473327,6.124881810771606e-05
-0.23702626088343096,-0.23702626088343096,1.0000956028295458,6.119077138287847e-05
-0.23627063056337647,-0.23627063056337647,1.0000553619695034,6.127222122941646e-05
-0.2356648503591714,-0.2356648503591714,0.9999245142161083,6.132456006213301e-05
-0.234885166172171,-0.234885166172171,1.0000262494062109,6.127815535810627e-05
-0.2337345585539879,-0.2337345585539879,0.9999193148621035,6.127159143100511e-05
-0.2317636803309142,-0.2317636803309142,1.0000284319513593,6.134087621921569e-05
-0.2298149540249142,-0.2298149540249142,0.999865386760232,6.126410961436309e-05
-0.228246245792252,-0.228246245792252,1.0000055680198305,6.132659720593724e-05
-0.22680634843345615,-0.22680634843345615,0.9999973307536889,6.126002778686411e-05
-0.22597182322788284,-0.22597182322788284,1.0000338336972094,6.11649687089566e-05
-0.22451552779748454,-0.22451552779748454,0.9999005835196584,6.130809183716164e-05
-0.22307558584361686,-0.22307558584361686,1.0000766518477124,6.13146584919566e-05
-0.22195132506385562,-0.22195132506385562,0.9999325437643382,6.129936608160589e-05
-0.22115611209883354,-0.22115611209883354,1.0000858391584917,6.136659997006501e-05
-0.2194561591524689,-0.2194561591524689,1.0000024373304401,6.126619569073821e-05
-0.21738405086070997,-0.21738405086070997,0.9999928592528782,6.128650739656253e-05
-0.21563348166891955,-0.21563348166891955,1.0000015697763522,6.126647431840816e-05
-0.21385464464474352,-0.21385464464474352,0.999909897056438,6.122526378805607e-05
-0.2127678053941054,-0.2127678053941054,1.0000780768948445,6.127809028024138e-05
-0.21205089700815732,-0.21205089700815732,0.9999722899413218,6.130324510102497e-05
-0.21071994068115601,-0.21071994068115601,1.000038711630657,6.125385095125087e-05
-0.20935445421928306,-0.20935445421928306,1.0000445937515505,6.125376381396733e-05
-0.20742834062039037,-0.20742834062039037,0.999981036627809,6.123722594361372e-05
-0.2059337978855183,-0.2059337978855183,1.0000567972317342,6.123506001549854e-05
-0.20373557973725837,-0.20373557973725837,0.9999735551148717,6.118127494950096e-05
-0.20271314753263142,-0.20271314753263142,0.9998979345564651,6.129002137120102e-05
-0.20147887964267283,-0.20147887964267283,0.9999874765397626,6.126730460672417e-05
-0.2003168497729348,-0.2003168497729348,0.9999254868643694,6.132773927254188e-05
-0.1989790816900495,-0.1989790816900495,0.9999598518582726,6.124373539442887e-05
-0.19822856769824285,-0.19822856769824285,1.0000112065528042,6.124745151207909e-05
-0.19756237124092876,-0.19756237124092876,0.999942863958321,6.136710837184009e-05
-0.19545796099046128,-0.19545796099046128,1.0000974450509745,6.122565945871074e-05
-0.19305470070758018,-0.19305470070758018,0.9999646328846288,6.13073758980721e-05
-0.19129283901202143,-0.19129283901202143,0.9999739939035489,6.124603117585236e-05
-0.18931933936983114,-0.18931933936983114,0.9999839871280305,6.120970686874166e-05
-0.1885951348762319,-0.1885951348762319,1.000046508623415,6.125337280309054e-05
-0.186972699049511,-0.186972699049511,1.000010880518499,6.123836052274133e-05
-0.18541651986670332,-0.18541651986670332,0.9999810282658392,6.128760358273464e-05
-0.1834688526818354,-0.1834688526818354,1.000006756017513,6.131739116438312e-05
-0.18151632887602318,-0.18151632887602318,0.9999489883476345,6.120147111990403e-05
-0.17970807250094367,-0.17970807250094367,0.9998976162616391,6.121192869066789e-05
-0.17884744898474308,-0.17884744898474308,0.999906191563737,6.120977821107062e-05
-0.17742816603931716,-0.17742816603931716,1.0001072760482153,6.123912102171369e-05
-0.17565681971536834,-0.17565681971536834,1.000030633460352,6.12435103743183e-05
-0.17461015079243225,-0.17461015079243225,1.0001199680159334,6.124860350335659e-05
-0.17374999912717612,-0.17374999912717612,0.9999904640939542,6.135439998766454e-05
-0.17138397092203378,-0.17138397092203378,0.999987918135816,6.123596306302701e-05
-0.16955415749325767,-0.16955415749325767,0.9999840997752469,6.129835583879405e-05
-0.16818983153934824,-0.16818983153934824,1.0000828575573284,6.127062034486813e-05
-0.1667243548341503,-0.1667243548341503,0.9998839226678067,6.125476787610621e-05
-0.16565630442928522,-0.16565630442928522,0.9999648397775498,6.12474310383413e-05
