time,time,flux,flux_err
-0.4992878886920759,-0.4992878886920759,0.9999468035855039,0.00014679186149611222
-0.49766847164088784,-0.49766847164088784,0.9999617872898305,0.00014677253250853698
-0.49562592351503554,-0.49562592351503554,0.9997945297452757,0.00013398541510211356
-0.4943459433299722,-0.4943459433299722,0.9999351011848298,0.00013397797147917653
-0.49317303853240446,-0.49317303853240446,0.9999553488993378,0.0001339813840273045
-0.4919969758288062,-0.4919969758288062,1.000026768459672,0.00013431786338923316
-0.4901354134781286,-0.4901354134781286,0.9999448823046496,0.00013399338473444206
-0.4885718341261963,-0.4885718341261963,0.9998082529745076,0.0001339446383613172
-0.487264312577463,-0.487264312577463,0.9998946616449326,0.00013435081535304814
-0.4856560315747629,-0.4856560315747629,1.0000853780504932,0.00013402523259019376
-0.484142525671632,-0.484142525671632,0.9999697613867813,0.00013395696108732167
-0.4826773201173637,-0.4826773201173637,0.9999050361821663,0.00013405666806477423
-0.48097928525239697,-0.48097928525239697,1.0000815615392682,0.00013398452051068167
-0.4796568479228881,-0.4796568479228881,1.000141449950374,0.00013397200130922337
-0.4782098453695653,-0.4782098453695653,0.9998402562974584,0.00013397623514684935
-0.4769814387684164,-0.4769814387684164,1.000014542240708,0.00013400094711926288
-0.47479601184240894,-0.47479601184240894,1.00008830268081,0.00013401284529988538
-0.473353258890711,-0.473353258890711,0.99984385094339,0.00013396132479134734
-0.4719319217503653,-0.4719319217503653,0.9999808913464486,0.00013457794977016218
-0.4703085622852086,-0.4703085622852086,0.9999943560813422,0.0001340258909105665
-0.4685433070291765,-0.4685433070291765,1.0001083183327482,0.00013407556281433262
-0.46711081038884006,-0.46711081038884006,0.9998629665249726,0.00013394771850589908
-0.4653264852669963,-0.4653264852669963,0.9999609048577188,0.00013401588510910436
-0.4639820331656665,-0.4639820331656665,0.9997224690410788,0.00013390571600325056
-0.46265752740291644,-0.46265752740291644,0.9999118555964912,0.00013399153305909578
-0.4613425591487612,-0.4613425591487612,0.999910260247721,0.00013722196891364282
-0.4597525804034376,-0.4597525804034376,1.0000124912129675,0.00013398644991644712
-0.45806273360503835,-0.45806273360503835,0.9999535722609251,0.00013402183127294898
-0.45689421374336237,-0.45689421374336237,1.0000938222932114,0.00013401759815843535
-0.4551385426566412,-0.4551385426566412,0.9999965037553938,0.00013401414773906784
-0.45358907474728766,-0.45358907474728766,0.9999794357912484,0.00013401529079094771
-0.4519987723506347,-0.4519987723506347,1.0000213996871157,0.00013408742168325818
-0.4503007384329976,-0.4503007384329976,0.9999465260175888,0.00013398017076503036
-0.4491096961261064,-0.4491096961261064,0.9999698933186341,0.00013400279280635467
-0.44754894819052427,-0.44754894819052427,0.9999765986161379,0.00013399357927271785
-0.44596070209372557,-0.44596070209372557,1.0001175440504517,0.0001340574000595279
-0.4442875794185966,-0.4442875794185966,0.9997647898222561,0.00013395694786273748
-0.44271779445989523,-0.44271779445989523,1.0000535335979157,0.00013403453814246264
-0.4415506461322366,-0.4415506461322366,1.0001782167886364,0.0001340216440593486
-0.439809734744631,-0.439809734744631,0.9997786264413275,0.0001341273944781352
-0.43824615157791413,-0.43824615157791413,0.9999477365539621,0.00013401185327700487
-0.43677345521427924,-0.43677345521427924,1.0000003869676863,0.000134216751399004
-0.4355634309875313,-0.4355634309875313,0.9999878826287256,0.00013396227348981738
-0.4339293196579092,-0.4339293196579092,0.9999446344610329,0.00013397263001933856
-0.4325509717593377,-0.4325509717593377,0.9998104007347066,0.0001340478039647657
-0.4310477915860247,-0.4310477915860247,0.9997499790627735,0.00013399079209802466
-0.4294073028184357,-0.4294073028184357,1.000195058397697,0.00013399060746620723
-0.4280297956764116,-0.4280297956764116,0.9998463355157176,0.00013392005964508026
-0.42692491366760804,-0.42692491366760804,0.9999784105975923,0.00013400859438486568
-0.4250622569161351,-0.4250622569161351,0.9999995439297653,0.00013399773212814328
-0.42324021879467183,-0.42324021879467183,0.9999680091041864,0.0001340215294483053
-0.421732081076334,-0.421732081076334,1.0000694561181456,0.00013447172784649238
-0.420377032939723,-0.420377032939723,0.99994931715853,0.00013400049618653812
-0.4185885204926308,-0.4185885204926308,1.000043085330531,0.00013398505117194693
-0.41721398534355103,-0.41721398534355103,1.0000458770318006,0.00013405503554457738
-0.415714900058083,-0.415714900058083,1.000170274723736,0.00013394491581099577
-0.41405791180441154,-0.41405791180441154,0.9999805346223415,0.0001340156139241306
-0.41270394284802026,-0.41270394284802026,1.000004376493892,0.00013392943123745967
-0.41157786742041935,-0.41157786742041935,1.0000621217372283,0.0001340157519712643
-0.4095694245763298,-0.4095694245763298,0.9998443003673941,0.00013394642401972858
-0.4076472534521599,-0.4076472534521599,0.9997586996066843,0.00013395959132094087
-0.40652248583792244,-0.40652248583792244,0.9999252818852631,0.00013464497954773842
-0.4054350987709768,-0.4054350987709768,0.9998792130608093,0.00013410198577470546
-0.4034344168569078,-0.4034344168569078,0.9998747166654095,0.0001339659336353135
-0.40187985058146297,-0.40187985058146297,0.9999834192278463,0.0001340266293410953
-0.40038352669434973,-0.40038352669434973,1.000243939950079,0.00013400820838544247
-0.3987060128834855,-0.3987060128834855,1.0001458963482885,0.00013404390371637404
-0.39717557076364757,-0.39717557076364757,0.9998566944747923,0.00013396338751460771
-0.39602440357484736,-0.39602440357484736,0.9998495426152697,0.00013395546251841284
-0.39399919873612815,-0.39399919873612815,1.00004008337616,0.000134042838340928
-0.3923112095806573,-0.3923112095806573,0.9999537149012456,0.0001339896800536347
-0.39108763764670584,-0.39108763764670584,0.9999362498176252,0.0001340099737460069
-0.38950735429025374,-0.38950735429025374,0.9997921115370346,0.0001340947599294447
-0.3878866719453072,-0.3878866719453072,0.9998182498190266,0.00013403111099434593
-0.3862340512911032,-0.3862340512911032,0.9998800627915474,0.0001340770613488448
-0.38501937555047333,-0.38501937555047333,1.0000550855049553,0.00013402698525916736
-0.3832301958282187,-0.3832301958282187,0.9995979078086284,0.0001339932183540336
-0.38184470429769135,-0.38184470429769135,1.0000543343085422,0.00013399957282394335
-0.3803479447022255,-0.3803479447022255,0.9999598162731342,0.0001340024746669628
-0.3787041742602014,-0.3787041742602014,0.9998644711585861,0.00013397006958229302
-0.3773201955205877,-0.3773201955205877,1.0001304432516709,0.0001339425202687477
-0.37622653570579134,-0.37622653570579134,0.9999720370864973,0.00013403432016022897
-0.37495369880780344,-0.37495369880780344,0.9997221100221528,0.0001342964545115986
-0.3730242854675453,-0.3730242854675453,0.9999674086013606,0.00013396224322453055
-0.37152788130770203,-0.37152788130770203,0.9999474729632581,0.00013431597927202488
-0.37030143984447933,-0.37030143984447933,1.000017633519361,0.00013403050297773825
-0.36848619970696744,-0.36848619970696744,1.0000604496986119,0.00013398536325776107
-0.36709963721368694,-0.36709963721368694,1.0000846728625625,0.00013405356902130785
-0.3656972086544556,-0.3656972086544556,0.9999267536278827,0.0001339681021522749
-0.36393352455779676,-0.36393352455779676,1.0000406229204908,0.00013403278295597628
-0.36256674799515165,-0.36256674799515165,0.9999487615682702,0.00013390897206678088
-0.36125369938527,-0.36125369938527,1.0000472247028003,0.00013402302999984342
-0.35986522520179276,-0.35986522520179276,1.0000150132993113,0.00013399705256507134
-0.357689534543897,-0.357689534543897,0.9999222565410564,0.00013394701330206085
-0.35630880442768104,-0.35630880442768104,0.9998310211160742,0.0001345724663409528
-0.35495992264841336,-0.35495992264841336,1.0001723314289024,0.00013402498427257946
-0.3531477111784625,-0.3531477111784625,0.9998443930639725,0.00013396144895454063
-0.3514980279142037,-0.3514980279142037,0.9999353286017957,0.000134052777145539
-0.3501194861084514,-0.3501194861084514,0.9999790459406179,0.00013399875179856353
-0.34818790861900195,-0.34818790861900195,0.9999471417561209,0.00013399025722144492
-0.34693951014633057,-0.34693951014633057,0.9999272905275982,0.000133984825030905
-0.34575020982010757,-0.34575020982010757,0.9999940480185462,0.00013397436614231634
-0.34401454025064593,-0.34401454025064593,1.0000030883962465,0.00013402006103890412
-0.3419448789820308,-0.3419448789820308,1.000035516664458,0.0001339872779960975
-0.3406117307000386,-0.3406117307000386,0.9999979707665464,0.00013395630493832352
-0.339198277201649,-0.339198277201649,1.0000346951020673,0.00013411271927551532
-0.33739158573880557,-0.33739158573880557,1.0001666948151464,0.00013399275112249486
-0.33584545160847484,-0.33584545160847484,0.9998083692923789,0.00013401343404988565
-0.3343404425548215,-0.3343404425548215,0.9999555626789878,0.0001339978750853741
-0.3326835463216412,-0.3326835463216412,0.9999303957197982,0.00013402749133454027
-0.33144035321165577,-0.33144035321165577,0.9998095724604624,0.00013395516396502092
-0.3300973866134882,-0.3300973866134882,1.0000968594214303,0.0001340153096373779
-0.32795287144326724,-0.32795287144326724,0.9997265370787731,0.00013402518881830636
-0.3262709302121948,-0.3262709302121948,1.0000445739596013,0.00013399458645925306
-0.3250427125763963,-0.3250427125763963,1.0000977586594106,0.00013403866606413641
-0.3234671741811326,-0.3234671741811326,0.9998625344623854,0.00013416900543946177
-0.321841456603579,-0.321841456603579,0.9999355794163606,0.0001340177596455833
-0.3203098077705363,-0.3203098077705363,1.0001464991905857,0.00013726674106787746
-0.31939686149853513,-0.31939686149853513,1.0001528970206086,0.00013408366105636846
-0.3173734091978986,-0.3173734091978986,0.9998709221541725,0.0001339772745802025
-0.31611465725363813,-0.31611465725363813,1.000044477402826,0.00013399278545308253
-0.31475682229356605,-0.31475682229356605,0.9997825904080522,0.00013400518144434192
-0.31283582630421736,-0.31283582630421736,1.000123195219339,0.00013401084375963123
-0.311562570730166,-0.311562570730166,1.000129692326953,0.00013398530643950126
-0.3103861879266333,-0.3103861879266333,1.0000215398671457,0.00013396218028732798
-0.30881526080775074,-0.30881526080775074,1.0000037080208055,0.00013404530461800677
-0.306720338435116,-0.306720338435116,0.9997160354097469,0.00013395657028219502
-0.30519138051749906,-0.30519138051749906,0.9998545974783755,0.00013441275476277546
-0.30404369185635005,-0.30404369185635005,1.0001381206666644,0.00013409299837480808
-0.30203128515859134,-0.30203128515859134,1.000007828908005,0.0001339826254713557
-0.30078953872289277,-0.30078953872289277,1.0000212832094664,0.0001339924749176556
-0.29941686577076326,-0.29941686577076326,1.0000958715453558,0.00013400631523790592
-0.29748893099895213,-0.29748893099895213,0.9999079362806625,0.00013398214173059606
-0.296231947884371,-0.296231947884371,0.9999344066558038,0.00013398018909684275
-0.2951039412226237,-0.2951039412226237,1.0000626667691095,0.00013398002216806867
-0.29382484625675714,-0.29382484625675714,1.0001805957393863,0.00013398161625328614
-0.2915191967098508,-0.2915191967098508,1.0002886932253938,0.00013396641078620498
-0.2901789033865498,-0.2901789033865498,1.0002417695062928,0.00013403329295420314
-0.28914815491225454,-0.28914815491225454,1.000099424266751,0.00013466978299203018
-0.28751860693155323,-0.28751860693155323,0.9997823698491064,0.00013401715085118468
-0.28575600393523926,-0.28575600393523926,0.9998806666911818,0.00013407823669947226
-0.28432739457493883,-0.28432739457493883,0.9999505758362004,0.00013396066307025698
-0.28253505941975166,-0.28253505941975166,0.9998989320169922,0.00013401655413038146
-0.2810404993149859,-0.2810404993149859,0.9998267848516379,0.0001339666252162112
-0.27970865379174936,-0.27970865379174936,0.9999195850162709,0.000133974250649372
-0.2781590860140568,-0.2781590860140568,1.0000603671669097,0.00013404373845063536
-0.2761870435664605,-0.2761870435664605,1.000176796874431,0.00013397842483626871
-0.2748302880107076,-0.2748302880107076,1.0000260435831703,0.00013401295503772992
-0.27354445938399297,-0.27354445938399297,1.000108460854423,0.00013411944248454725
-0.271614675908495,-0.271614675908495,0.9999010430673027,0.00013394169086562108
-0.27011959412775466,-0.27011959412775466,1.0000247552195474,0.0001341201857560061
-0.26889900707319614,-0.26889900707319614,1.0003044825163232,0.0001340510421267678
-0.2670805563320755,-0.2670805563320755,1.0000491317204676,0.0001339802097742605
-0.2656910819860059,-0.2656910819860059,0.9999796848430303,0.00013402260269794285
-0.26428936688025717,-0.26428936688025717,0.9998351602395399,0.00013401239299384464
-0.2625362242797564,-0.2625362242797564,0.9998913167404817,0.00013396862376913543
-0.2611521460959921,-0.2611521460959921,0.9999823402663737,0.00013392449867952888
-0.2598515142977703,-0.2598515142977703,0.9999586041128845,0.00013403876100816388
-0.2587622871462372,-0.2587622871462372,1.0000215004170603,0.00013401335843824224
-0.25702744873196937,-0.25702744873196937,0.9999745478486858,0.00013424037200912464
-0.2554580584452196,-0.2554580584452196,1.0000975981173457,0.0001340168909350306
-0.253987388076348,-0.253987388076348,1.0000824196956732,0.0001343168247210775
-0.2525084321867325,-0.2525084321867325,1.000270293188342,0.00013398947876863706
-0.25098128919125884,-0.25098128919125884,1.0002275212114795,0.00013401239996310935
-0.24943676455295644,-0.24943676455295644,1.0000044545429332,0.000134005135483435
-0.2478243994344666,-0.2478243994344666,1.0001053422317066,0.00013401835043060244
-0.24642831687888248,-0.24642831687888248,1.000156294992252,0.00013398400359348098
-0.2449763424221601,-0.2449763424221601,1.000086635129748,0.00013398836875515047
-0.24390519762746407,-0.24390519762746407,0.9998852843238565,0.00013394805540039835
-0.24160219106634032,-0.24160219106634032,1.0001167567261677,0.00013400553617489105
-0.24017024217610014,-0.24017024217610014,1.0001552551289747,0.0001340223052069382
-0.23871276370045963,-0.23871276370045963,1.00001088135331,0.00013458699676725233
-0.23717239488833003,-0.23717239488833003,0.9998968791197062,0.00013397136785032055
-0.23544362326865667,-0.23544362326865667,0.9999536305789164,0.00013398036089764525
-0.23384825651955907,-0.23384825651955907,1.0000646743328947,0.00013408304404120646
-0.23215018189002876,-0.23215018189002876,1.0001316376750633,0.0001339958503657148
-0.2308320661650214,-0.2308320661650214,1.0000159958328254,0.00013396922075668485
-0.22938857574918076,-0.22938857574918076,0.9997363684361389,0.00013397371881907348
-0.22815070114447736,-0.22815070114447736,1.000241526363095,0.00013401200714100223
-0.22589159701165046,-0.22589159701165046,0.9999563044959416,0.0001339560511874923
-0.2243475503193622,-0.2243475503193622,0.999743963685644,0.00013400798523025237
-0.22314044338199893,-0.22314044338199893,1.0000821337382744,0.00013405608701853557
-0.22128394913597732,-0.22128394913597732,0.9999078991640694,0.0001339945926339555
-0.21971419253750354,-0.21971419253750354,1.0001143402289672,0.00013397125886500195
-0.21828862907495933,-0.21828862907495933,0.9999525410025848,0.00013408569316419888
-0.21648784939752658,-0.21648784939752658,1.0001710507297386,0.00013403581453234862
-0.21500323451327857,-0.21500323451327857,1.0002302233735612,0.00013401099614473465
-0.21358987947824062,-0.21358987947824062,0.9998761838390925,0.0001340270316709776
-0.21167047792696395,-0.21167047792696395,1.0000305635556899,0.0001340398248305479
-0.20986324336918188,-0.20986324336918188,1.0002708657199568,0.00013400811525760359
-0.208532607692905,-0.208532607692905,1.0001888738901052,0.00013397364795008536
-0.20710814305130043,-0.20710814305130043,0.9997536031406709,0.0001342127012881106
-0.20530899346849765,-0.20530899346849765,0.9998785210739104,0.0001339575132729576
-0.2037743715394754,-0.2037743715394754,1.000060828250683,0.0001341444689299274
-0.2026529487920925,-0.2026529487920925,0.9997658556449796,0.0001340690773839999
-0.2006288473654422,-0.2006288473654422,1.0002690510211028,0.0001339980785910479
-0.1993690936913481,-0.1993690936913481,1.0000234104244075,0.00013400178857281766
-0.19801213332466433,-0.19801213332466433,1.0000673687244073,0.000134004818166037
-0.19634680718372693,-0.19634680718372693,0.9999651851527283,0.0001340322061140013
-0.19511410628110754,-0.19511410628110754,0.9998683265325576,0.00013391787783603504
-0.19380795544711873,-0.19380795544711873,0.9999227115653649,0.0001340242663330475
-0.19268182297164457,-0.19268182297164457,0.9999862630290307,0.00013435820830024376
-0.19060379248840037,-0.19060379248840037,0.9999274180816947,0.00013399026820592517
-0.18904153425974074,-0.18904153425974074,0.999986784051145,0.00013395590726071623
-0.18773517037552664,-0.18773517037552664,0.9998826971308997,0.00013444635185184576
-0.1861215601027652,-0.1861215601027652,0.9999209304255683,0.00013401577325345123
-0.1846123053393967,-0.1846123053393967,1.0000285942107872,0.00013396369428678406
-0.18314563962776448,-0.18314563962776448,0.9999546401841389,0.0001340603272739429
-0.18144758034104597,-0.18144758034104597,1.000045211622836,0.00013399283292405952
-0.18012687935988653,-0.18012687935988653,1.0001834552858326,0.000133963083341058
-0.17868128341287956,-0.17868128341287956,1.0001472088405523,0.00013397541393089628
-0.17744908378444962,-0.17744908378444962,1.0001296750846635,0.00013400602659135948
-0.1751867678067356,-0.1751867678067356,0.9997997249036406,0.00013394654271398461
-0.17364740219854866,-0.17364740219854866,1.0000804229940343,0.00013401643121693205
-0.17240297306634603,-0.17240297306634603,1.0000477574220832,0.000134631558798312
-0.17077430875287974,-0.17077430875287974,1.0000664933365742,0.00013404902152476162
-0.16901132655548282,-0.16901132655548282,0.9999269755208499,0.00013408819704197893
-0.16758216168818763,-0.16758216168818763,1.0000227864168778,0.00013394857491746487
-0.16579097042122157,-0.16579097042122157,1.0001238552612908,0.00013404140802643908
-0.16429516685093404,-0.16429516685093404,1.0000876712940068,0.00013398059024106578
-0.16296384019224205,-0.16296384019224205,1.000145701322284,0.00013398678094473575
-0.16141489618239574,-0.16141489618239574,0.9998707513333513,0.00013403593275823937
-0.15944185952539555,-0.15944185952539555,0.9999149502194941,0.0001339562220328175
-0.15808607156286597,-0.15808607156286597,0.99994586045744,0.0001340106505848599
-0.15679952053251328,-0.15679952053251328,1.0000077115415202,0.00013410180809693447
-0.15486971700956928,-0.15486971700956928,1.0001161548872228,0.00013395183677223152
-0.15337470850645332,-0.15337470850645332,1.000155422710375,0.00013413001793543007
-0.15215444743153056,-0.15215444743153056,0.9999774396051679,0.000134032251708158
-0.1503358188259881,-0.1503358188259881,1.00010713776762,0.00013398974215778124
-0.14894618165053544,-0.14894618165053544,0.999870330716772,0.00013402477914266066
-0.1475449710043904,-0.1475449710043904,0.9999130211237061,0.00013401939023806943
-0.14579148771372274,-0.14579148771372274,1.000084073365127,0.0001339970812731088
-0.14440691007257556,-0.14440691007257556,1.0000654719305477,0.00013394002184530137
-0.14310696905959047,-0.14310696905959047,0.9999823909296893,0.00013402456017808505
-0.14213402833847794,-0.14213402833847794,1.0000634188294444,0.00013394411396126763
-0.14068211565536332,-0.14068211565536332,0.9999945817652589,0.00013427101160192267
-0.13905200352091923,-0.13905200352091923,1.000013331388256,0.00013403844407079254
-0.1374158050013648,-0.1374158050013648,0.9999703769601265,0.0001342287227746516
-0.13618708382855402,-0.13618708382855402,0.9998779264600248,0.00013400983252725887
-0.13439720171954833,-0.13439720171954833,0.9999146088714419,0.0001339710017298486
-0.13302020437913598,-0.13302020437913598,1.0001848689579453,0.00013405286038680673
-0.13151639793504727,-0.13151639793504727,1.0000913353639949,0.00013396016467268778
