time,time,flux,flux_err
-0.499192594519991,-0.499192594519991,0.9994654238951203,0.0003326905751042929
-0.4984425422713684,-0.4984425422713684,1.000151266644837,0.0003337517386536902
-0.4974047682073433,-0.4974047682073433,0.9999072218559997,0.0003336982047472496
-0.4961854324785236,-0.4961854324785236,1.00047646959536,0.00033302124225017095
-0.4946843691250251,-0.4946843691250251,0.9999243162740177,0.0003329440070925698
-0.49150613556194,-0.49150613556194,1.0000252257521098,0.0003413247921219713
-0.48921129586087775,-0.48921129586087775,0.9994683860304903,0.00033375800494542674
-0.4880107650395075,-0.4880107650395075,1.0002974601790977,0.00033356669860693525
-0.487005859027704,-0.487005859027704,0.9999894251115851,0.0003335187117848432
-0.48572552942787295,-0.48572552942787295,0.9999836723029805,0.00033346823625567633
-0.4842688397526217,-0.4842688397526217,0.9993624457843989,0.00033277062381332833
-0.4818785396957537,-0.4818785396957537,0.9997931019791387,0.00033369545406799757
-0.4789213834061229,-0.4789213834061229,1.0001226660971216,0.0003392592146950137
-0.4775795030698646,-0.4775795030698646,1.0006157126299522,0.00033265696432791794
-0.47647873059031554,-0.47647873059031554,1.0005105866600204,0.0003340669995002313
-0.47528942550052306,-0.47528942550052306,0.9994671664024732,0.0003333760789551659
-0.4737330909112643,-0.4737330909112643,0.9995819916492493,0.0003323562901819895
-0.4717116357191117,-0.4717116357191117,0.9996991535805696,0.00033364553779646446
-0.46844616952948853,-0.46844616952948853,1.000143182299358,0.000336561243579598
-0.46743023585368065,-0.46743023585368065,0.9995992691842451,0.0003331092909802712
-0.4661857831037196,-0.4661857831037196,1.0000465757394508,0.0003345637668410819
-0.4647533749208378,-0.4647533749208378,0.9997952171203428,0.0003336248426141384
-0.4635866775723116,-0.4635866775723116,0.9996818826313814,0.000332558284164356
-0.4621057660326187,-0.4621057660326187,1.0000691499841072,0.0003336010798691173
-0.45986837661621394,-0.45986837661621394,0.999991133644736,0.00033378944302404207
-0.4572265993592737,-0.4572265993592737,0.9994792804477335,0.0003341197720220906
-0.4560055252899474,-0.4560055252899474,0.9992456835062808,0.00033300077903080717
-0.45469024250196527,-0.45469024250196527,1.0002805853000942,0.0003338880857547433
-0.4532546099610045,-0.4532546099610045,1.000219453462082,0.0003331717966140664
-0.451894099501078,-0.451894099501078,1.0000190568762177,0.0003329302748662771
-0.44896057048099464,-0.44896057048099464,0.9996737379636883,0.00033402497710098415
-0.4467115374471177,-0.4467115374471177,0.9997266456259046,0.000334269179549986
-0.44553885538407484,-0.44553885538407484,0.999469247260962,0.0003330612390137082
-0.4444959611850209,-0.4444959611850209,0.9997018044668987,0.00033365009330429713
-0.44303833090816624,-0.44303833090816624,0.999860742729344,0.0003335276718360133
-0.44127310501935424,-0.44127310501935424,1.000254962924735,0.0003331816192433464
-0.43884324326718344,-0.43884324326718344,0.9998382761456248,0.00033413395360386316
-0.4364613731253485,-0.4364613731253485,1.00020737699753,0.00033327793156560513
-0.4354728943311784,-0.4354728943311784,0.9999503331928192,0.000333965651919406
-0.43428687938212535,-0.43428687938212535,1.0002905382125706,0.00033328893527000743
-0.4328280919988174,-0.4328280919988174,0.9994952982037411,0.0003335550867694184
-0.43124069338009574,-0.43124069338009574,1.0000109863120232,0.0003329073000452224
-0.4281866903627815,-0.4281866903627815,1.0002872442989008,0.00033388079516659473
-0.4259472441066464,-0.4259472441066464,0.9997277506576332,0.00033358394585992145
-0.42513703031654587,-0.42513703031654587,1.0004897524386367,0.0003338340473476184
-0.42412078950947035,-0.42412078950947035,1.0001693262325992,0.0003335179571382717
-0.4230036691369605,-0.4230036691369605,0.9999592933753189,0.00033361409805882737
-0.4215386266470887,-0.4215386266470887,0.9999046777980732,0.0003330944117072753
-0.4192912945785793,-0.4192912945785793,0.9999370749086,0.0003330188773189758
-0.416370167752757,-0.416370167752757,1.0003176906049467,0.0003487136627581732
-0.41519506373006154,-0.41519506373006154,1.0001609107487082,0.0003336675011353461
-0.414381767908344,-0.414381767908344,1.0001357546744296,0.00033363030155066136
-0.4133699357495061,-0.4133699357495061,0.999737294872687,0.0003330556946944522
-0.41224976519151824,-0.41224976519151824,0.9996790220051333,0.0003333821288007444
-0.4107890798499284,-0.4107890798499284,1.0001976283675513,0.0003330300756231977
-0.4081009448709665,-0.4081009448709665,0.9996804815592103,0.0003405905791195978
-0.40525391127957844,-0.40525391127957844,1.0001762504020093,0.0003342913914742296
-0.403944109515578,-0.403944109515578,0.9998786936066596,0.00033285279480084516
-0.4030033743729291,-0.4030033743729291,1.0006511681236883,0.0003338701941081694
-0.4018109632947017,-0.4018109632947017,0.9999882824536609,0.00033341740176350335
-0.4002501220027625,-0.4002501220027625,0.9997991027239935,0.000332352014566992
-0.3983582935477898,-0.3983582935477898,1.0002488886384253,0.00033396269569693245
-0.39505031084263464,-0.39505031084263464,0.9995744096569539,0.0003386254383636824
-0.3936795327528671,-0.3936795327528671,1.0003179713557362,0.0003331511911343918
-0.39244088359264423,-0.39244088359264423,1.0003575278813146,0.00033383852233386847
-0.39127619166465594,-0.39127619166465594,1.0002168345018885,0.000333612734275122
-0.38984232670482016,-0.38984232670482016,0.999679213689878,0.0003328837103430497
-0.3881992244714638,-0.3881992244714638,0.9999298837633122,0.00033305845781253843
-0.38452565629340824,-0.38452565629340824,1.0001015994246623,0.00033595465552077814
-0.3834717370235012,-0.3834717370235012,0.9998558740328143,0.0003340369288019353
-0.38212927144704734,-0.38212927144704734,1.0000178667028286,0.0003344524808163737
-0.38084059447282925,-0.38084059447282925,1.0001386196756508,0.00033372795412358165
-0.37960592407762306,-0.37960592407762306,0.9998892390561005,0.00033284160680177984
-0.3781991746582207,-0.3781991746582207,1.0002692897461236,0.00033324959835775243
-0.3756388150752173,-0.3756388150752173,1.0002516072619385,0.00033376397343479517
-0.37299727164427166,-0.37299727164427166,0.9999134901426523,0.0003340172387960006
-0.37177588648337406,-0.37177588648337406,0.9999411007629995,0.0003330922282580532
-0.37046127920257277,-0.37046127920257277,1.0000451808635629,0.0003338889164727275
-0.36896215068918536,-0.36896215068918536,1.000565751261555,0.00033270954233931434
-0.367219251467759,-0.367219251467759,1.000509504404914,0.00033338754620673336
-0.3640869959621341,-0.3640869959621341,1.0002796797160425,0.0003338151929558091
-0.3622454461954476,-0.3622454461954476,1.0002261236661525,0.0003340170062011305
-0.3610208763719129,-0.3610208763719129,1.0001602007681616,0.0003335883189873914
-0.3597133035189472,-0.3597133035189472,0.9999332042257183,0.0003333321555444093
-0.35840170068258886,-0.35840170068258886,1.0003409177502092,0.000333098130113956
-0.35669626274248,-0.35669626274248,1.000257198396016,0.00033364039402704126
-0.35413213166903007,-0.35413213166903007,0.9999548837611073,0.00033417059746669174
-0.3522322808232275,-0.3522322808232275,0.9995359930946076,0.0003332405020543969
-0.3512430316339305,-0.3512430316339305,1.0002182693056156,0.0003338325915278771
-0.3500574563302507,-0.3500574563302507,1.0003492309455422,0.000333388130809724
-0.3485991883419047,-0.3485991883419047,1.0001860664230766,0.0003335670829942621
-0.3470116582386254,-0.3470116582386254,1.0004212174746272,0.00033280906553554497
-0.3434826718948898,-0.3434826718948898,1.0001470317318215,0.00033424789631951305
-0.3414832748836488,-0.3414832748836488,0.9998873015436164,0.0003329733827887165
-0.3407397384675278,-0.3407397384675278,1.0003976571477384,0.0003338699616485111
-0.33969948535741423,-0.33969948535741423,1.0002111913573395,0.0003339443024589141
-0.33847628680159686,-0.33847628680159686,1.0003796047758444,0.00033319992276009214
-0.3369779858054244,-0.3369779858054244,0.9997473110228852,0.00033288459082083695
-0.3343023061468557,-0.3343023061468557,1.000301955612586,0.0003335096946067924
-0.3319735137527459,-0.3319735137527459,0.9999110869394586,0.00034813317295452444
-0.33073447656570354,-0.33073447656570354,1.000254709493641,0.0003328111058654968
-0.3299831175834697,-0.3299831175834697,1.0000109305469138,0.00033372777973161616
-0.32894584258101534,-0.32894584258101534,0.9999214774233867,0.0003335154843305906
-0.32772727747360475,-0.32772727747360475,1.0010110245459347,0.0003330891385181368
-0.3262256628717296,-0.3262256628717296,0.9998757535534379,0.00033289724934318224
-0.32304809261404444,-0.32304809261404444,0.9999564727951562,0.00034069709479134426
-0.3207521011623612,-0.3207521011623612,1.00053976278043,0.0003338919984830457
-0.31955158525233857,-0.31955158525233857,1.000354135200025,0.0003335408210844353
-0.3185477056023956,-0.3185477056023956,1.0011123395671975,0.00033357183346607833
-0.31726659476262287,-0.31726659476262287,0.9996828081883825,0.000333271329955116
-0.3158106323331594,-0.3158106323331594,1.0001384688892687,0.00033277916956775747
-0.31312180896784414,-0.31312180896784414,1.0000941709751312,0.00033798152620201165
-0.3102721438321169,-0.3102721438321169,1.000041901372985,0.00033411445757178216
-0.3088418983730662,-0.3088418983730662,1.0003036668055567,0.0003330043405410419
-0.30779887769167547,-0.30779887769167547,1.0001685056239633,0.0003337444636432823
-0.3065131049377669,-0.3065131049377669,1.0003016055091014,0.0003332559592115014
-0.3052342014052556,-0.3052342014052556,1.0002959773092122,0.0003329153936587728
-0.303252393117873,-0.303252393117873,1.0003190440930745,0.00033377216997306197
-0.2999868860410061,-0.2999868860410061,1.0000401939994528,0.0003360811995761718
-0.29897220397542695,-0.29897220397542695,0.9999554848406838,0.00033311674114555004
-0.29772657529902063,-0.29772657529902063,0.9989861696808434,0.00033522579685983
-0.2962947000662098,-0.2962947000662098,1.000485302213588,0.0003338109144916664
-0.29512882665876533,-0.29512882665876533,1.0003347471294302,0.0003325215618863579
-0.2936108799091016,-0.2936108799091016,1.0004915544527602,0.0003337560921951409
-0.2902964740031166,-0.2902964740031166,0.9998889338876994,0.0003337976728389957
-0.28866893008744227,-0.28866893008744227,0.9996615630573231,0.00033400071939004535
-0.28754625016372304,-0.28754625016372304,1.0001363934043468,0.00033308865186625856
-0.2862323192959593,-0.2862323192959593,0.9997160419373493,0.00033376863228053866
-0.2847331361052056,-0.2847331361052056,0.9999728869260691,0.00033266402599902215
-0.28299015058510124,-0.28299015058510124,1.0001789783749282,0.0003334017688258038
-0.27985746085469143,-0.27985746085469143,1.000615990138452,0.00033381719951337894
-0.27801613700867167,-0.27801613700867167,1.0002510119152492,0.0003338411397627244
-0.27679136769875184,-0.27679136769875184,0.9999199713846505,0.000333561387216501
-0.275484247818531,-0.275484247818531,1.000260366993952,0.00033336403559351897
-0.2738928124017548,-0.2738928124017548,1.0003018467774687,0.00033305707991240367
-0.2717680574787664,-0.2717680574787664,0.9995629574610468,0.0003335370165922541
-0.2688386729481863,-0.2688386729481863,1.0004442939780211,0.00033433385694674374
-0.26767927131149916,-0.26767927131149916,1.0003998200141389,0.000333583638861752
-0.266807727568812,-0.266807727568812,1.0003465648019463,0.00033371118127570304
-0.26570436026377137,-0.26570436026377137,0.9998316969136225,0.0003335560694037958
-0.2643702864952502,-0.2643702864952502,0.9998162284499493,0.00033354198054705086
-0.2627826244475727,-0.2627826244475727,1.000357211125544,0.0003328851906899298
-0.25925337807057075,-0.25925337807057075,1.0001707049020516,0.0003341477131682604
-0.25725420020608,-0.25725420020608,1.000557996295333,0.00033303914419389796
-0.2565100131330837,-0.2565100131330837,0.9995928994380042,0.00033382304564799327
-0.25547000740625664,-0.25547000740625664,1.000050095826363,0.00033395412805886876
-0.25424719495495085,-0.25424719495495085,1.0003002748261642,0.000333239495999366
-0.25274861787911507,-0.25274861787911507,0.9998840765051809,0.00033286267857011856
-0.25007296510375454,-0.25007296510375454,1.0002768511931202,0.0003335265820265678
-0.24774385958298809,-0.24774385958298809,0.9997693683206841,0.0003473160956392365
-0.24650541860683006,-0.24650541860683006,0.9998088100488232,0.00033280871502410425
-0.24575340738228987,-0.24575340738228987,1.0005030550972065,0.0003337139205695246
-0.24453004152528593,-0.24453004152528593,1.0000957761438447,0.0003335795360647982
-0.24323917948786403,-0.24323917948786403,1.0007013984588913,0.0003330233102183498
-0.2416363383657881,-0.2416363383657881,0.9998517179795157,0.0003334115417978179
-0.23804161148073036,-0.23804161148073036,1.0004157362596526,0.00034088103537115757
-0.23625501252390677,-0.23625501252390677,1.0001044478318,0.0003334780540074583
-0.23517827457253587,-0.23517827457253587,0.9999025303478192,0.000333507794595247
-0.23407879992082598,-0.23407879992082598,1.0002985580351893,0.0003336319298651146
-0.23274940108967712,-0.23274940108967712,0.9998898724720547,0.0003328406293153671
-0.23140774373241585,-0.23140774373241585,0.9999074116773088,0.00033295231112709687
-0.2289441925888241,-0.2289441925888241,1.0006234387448742,0.0003337945179782392
-0.22623250245742382,-0.22623250245742382,1.0003256064661334,0.00033872456798088855
-0.22489185226950212,-0.22489185226950212,0.999969800481588,0.0003326652197867376
-0.22379021450396977,-0.22379021450396977,0.9996764461103641,0.00033396034350916063
-0.2226017640765349,-0.2226017640765349,1.0002380737212646,0.0003335132223134958
-0.22104665782972005,-0.22104665782972005,1.0002751772959988,0.0003324478004239521
-0.21902277509798296,-0.21902277509798296,1.0000171707373684,0.0003338034351528094
-0.2157572465534031,-0.2157572465534031,0.9997978434069728,0.00033592903718648106
-0.21474319007102166,-0.21474319007102166,0.999934231709316,0.0003332317209851016
-0.2134969728649594,-0.2134969728649594,1.0009415039843217,0.00033574107100550835
-0.21206536399549805,-0.21206536399549805,1.0000073605126598,0.00033368744160066374
-0.211075186070957,-0.211075186070957,1.0000146512535675,0.00033300185917124167
-0.20974056916311384,-0.20974056916311384,0.9999319033147251,0.00033329900652517375
-0.20678584147026413,-0.20678584147026413,1.0001462019035006,0.0003340458521760944
-0.20453862029025913,-0.20453862029025913,1.0003240954569166,0.0003340670652476188
-0.20331661451564287,-0.20331661451564287,1.0006028210749403,0.0003331796036488494
-0.20200335825429647,-0.20200335825429647,0.9994327028867653,0.00033373615684002995
-0.20050412242708263,-0.20050412242708263,0.9994106614254499,0.00033266696315469854
-0.19876105127987104,-0.19876105127987104,1.0001571902277804,0.00033339498752447174
-0.19562792755314148,-0.19562792755314148,1.000308467743882,0.00033378872936394496
-0.19378682804817798,-0.19378682804817798,0.9999298001508556,0.0003338478690283601
-0.19256186151105795,-0.19256186151105795,1.000112806169264,0.0003335544248216872
-0.191255193248071,-0.191255193248071,1.0003322147304141,0.000333440128561934
-0.18966344312138972,-0.18966344312138972,0.9999807441690027,0.00033293187854421466
-0.18753895727277267,-0.18753895727277267,1.0015756981167194,0.00033373194479282224
-0.1846931723615853,-0.1846931723615853,0.9997378495596285,0.0003342872708651173
-0.1835986919082643,-0.1835986919082643,1.0001971853538698,0.0003332486047804983
-0.18278331008259557,-0.18278331008259557,1.0004277553359973,0.0003339567759910622
-0.18159861429667218,-0.18159861429667218,1.000367426404551,0.00033342559539360024
-0.18014138690705295,-0.18014138690705295,1.0003339729569902,0.00033357216066147384
-0.17855359224413406,-0.17855359224413406,0.999602269574828,0.00033284134358717966
-0.1750240860557824,-0.1750240860557824,0.9998679695833296,0.0003342069685730064
-0.17302512710739393,-0.17302512710739393,0.9998346811578556,0.00033304663129399335
-0.1722802896052599,-0.1722802896052599,1.0002619856428,0.000333915242748764
-0.17131666868008325,-0.17131666868008325,0.9998756776154994,0.00033365692139589024
-0.17031517405921476,-0.17031517405921476,1.000240343228798,0.0003334263767729937
-0.16885122096791746,-0.16885122096791746,1.0003389348745295,0.0003330671119361749
-0.16660449030750896,-0.16660449030750896,1.0005062481505178,0.00033315994946360786
-0.1636802938715846,-0.1636802938715846,1.0001172873520716,0.00034630505079737476
-0.16250705122365616,-0.16250705122365616,0.9998994004206114,0.000333611385549687
-0.16169298003587756,-0.16169298003587756,0.9994066439651371,0.0003333590437106269
-0.1605997044571268,-0.1605997044571268,0.9998226361478416,0.0003335684842200642
-0.15926912789218478,-0.15926912789218478,0.9996950518398029,0.000332925014568214
-0.15776696158354753,-0.15776696158354753,1.0001876826755738,0.00033309430523062694
-0.1545900557670393,-0.1545900557670393,1.000441203363647,0.00034031794650663764
-0.1522929096259759,-0.1522929096259759,0.9999774566232315,0.0003340348709229211
-0.1510924108828476,-0.1510924108828476,0.9999886638881821,0.00033352312783149274
-0.1500895557946933,-0.1500895557946933,1.000352033183534,0.0003334654682145508
-0.14880766620044597,-0.14880766620044597,0.9999089890796193,0.000333370583619956
-0.14735243033719597,-0.14735243033719597,0.9999197224191951,0.000332762776779441
-0.14494631935449434,-0.14494631935449434,1.0007402240809848,0.0003334199126995435
-0.14219060258037644,-0.14219060258037644,1.0002339951427217,0.00033819212454862105
-0.14099261936135007,-0.14099261936135007,0.999990372946152,0.00033308148124141926
-0.1397514721742482,-0.1397514721742482,1.000098507115362,0.0003337119358729522
-0.13858813352271682,-0.13858813352271682,1.0004022336176326,0.000333676841204546
-0.13715582155709855,-0.13715582155709855,0.9998671703646107,0.0003327516921303067
-0.13551108612737153,-0.13551108612737153,0.9995743527079718,0.00033299120779897354
-0.13183745920759976,-0.13183745920759976,0.999766494504781,0.0003354720314292756
-0.13078304697410204,-0.13078304697410204,1.0001912499959467,0.00033398238776100264
-0.12944081387249753,-0.12944081387249753,1.000439861751943,0.00033600046478813754
-0.12815373981793526,-0.12815373981793526,0.9997763567504336,0.00033351178486802055
-0.12691860447666842,-0.12691860447666842,1.0004303658159721,0.0003328287172470431
-0.12551126833641318,-0.12551126833641318,1.000131189536858,0.0003333198724311205
-0.12255657475761836,-0.12255657475761836,0.9999043928957831,0.00033394545409101136
-0.12037783821870107,-0.12037783821870107,1.0002360374358115,0.0003346122169972308
-0.119372796825337,-0.119372796825337,1.000122237833566,0.0003330111979486255
-0.1180370631183905,-0.1180370631183905,0.9996703136619953,0.0003335581000804772
-0.11654788872183416,-0.11654788872183416,1.0000314876594434,0.00033303619507852103
-0.11497908064047806,-0.11497908064047806,1.0003220644669282,0.0003330607335762371
-0.11204236814155592,-0.11204236814155592,1.0004932233654398,0.000334061416964471
-0.10979375916940626,-0.10979375916940626,1.000414484754262,0.00033412787700345633
-0.10862191798514687,-0.10862191798514687,1.0003360465777997,0.00033324860365731176
-0.10728751948336139,-0.10728751948336139,0.9999191042115998,0.0003335429098830683
-0.10579502447581035,-0.10579502447581035,0.9997358953837031,0.000332999541259296
-0.10378288819993031,-0.10378288819993031,1.0006388872505283,0.0003336967229049472
-0.10090922921808669,-0.10090922921808669,1.0001698213830823,0.00033412891375060046
-0.09936929483810672,-0.09936929483810672,0.9995282331833838,0.0003330343125571201
-0.09855345122559811,-0.09855345122559811,1.0002566799602925,0.0003338881982884466
-0.09736919553470216,-0.09736919553470216,0.9997158263453232,0.0003333841835563145
-0.09591248799551977,-0.09591248799551977,0.9999144491034005,0.0003335446441389605
-0.09432456049253232,-0.09432456049253232,1.000013329459026,0.00033289148483258617
-0.09083816231504897,-0.09083816231504897,0.9999991683932924,0.00033378448597993907
