time,time,flux,flux_err
-0.49983829787371786,-0.49983829787371786,1.0003107346948523,0.00021639139878451433
-0.4987879439643166,-0.4987879439643166,0.9999221318524941,0.00021657595621419525
-0.4963003634609322,-0.4963003634609322,0.9998045364456569,0.00021638369764295995
-0.49458986073841515,-0.49458986073841515,1.0001674210169913,0.00019814542903044376
-0.49337393545656594,-0.49337393545656594,1.0000865527071827,0.0001975533884167619
-0.49204693001711347,-0.49204693001711347,1.0000286667138298,0.00019698485272871802
-0.4900079961012125,-0.4900079961012125,1.0001908687593937,0.00019720660764649682
-0.48865019826107525,-0.48865019826107525,1.0002889405203916,0.00019785247343154358
-0.48805280005290114,-0.48805280005290114,0.9998814428742879,0.00019762490452147717
-0.4871705441771155,-0.4871705441771155,0.9998260376185296,0.00019785710750387666
-0.485630062315704,-0.485630062315704,1.0001127511068677,0.00019685847095578094
-0.48360479639159165,-0.48360479639159165,0.9996702002790336,0.00019845850991593545
-0.4823962620324892,-0.4823962620324892,1.0001528635726404,0.0001974455864344383
-0.48139252761020546,-0.48139252761020546,0.99980293333734,0.00019751634023931452
-0.4799692160037011,-0.4799692160037011,1.0001397649965247,0.00019699644063148349
-0.47780302234496047,-0.47780302234496047,1.0004452975110916,0.00019740829533255368
-0.4766889539787371,-0.4766889539787371,1.0000516490353042,0.00019827175110090313
-0.47614506075951796,-0.47614506075951796,0.9996835929449365,0.00019702817911279997
-0.47516185829526875,-0.47516185829526875,0.9998355199285852,0.00019778629866052825
-0.47341267092824635,-0.47341267092824635,1.0001128670503712,0.00019772042649699034
-0.4715372758850208,-0.4715372758850208,0.9999512609525152,0.00019766630818981258
-0.4702105346332246,-0.4702105346332246,0.9996849441456938,0.0001978548419323458
-0.4690850203882292,-0.4690850203882292,1.0000959403274754,0.00019706153315352616
-0.4675402424119966,-0.4675402424119966,1.0004944073075666,0.0001970741929536698
-0.46577027422490574,-0.46577027422490574,1.000118855888903,0.00019740766870179343
-0.46471504888186244,-0.46471504888186244,0.9996331772532455,0.00019762301851761733
-0.4640467346791411,-0.4640467346791411,1.0000825069368358,0.00019789913447990553
-0.46305688157199254,-0.46305688157199254,1.000567956761802,0.00019756554717278172
-0.4611203209125051,-0.4611203209125051,0.999926390153238,0.0001976814082336452
-0.4594967327429913,-0.4594967327429913,1.0000597949283443,0.00019807256985147773
-0.458206005602824,-0.458206005602824,1.0002480111346936,0.0001976056363966146
-0.4570047506642368,-0.4570047506642368,1.0003236614335864,0.000197066412937394
-0.4550859386492448,-0.4550859386492448,1.000134881756519,0.00019720741175896023
-0.45354117113565734,-0.45354117113565734,1.0000233814598656,0.00019787628620246265
-0.4528198498253005,-0.4528198498253005,0.9996635463082724,0.00019700109002062453
-0.4520495265423051,-0.4520495265423051,1.00011631720539,0.00019780946349158183
-0.4504770327933329,-0.4504770327933329,0.9999289708284106,0.00019751413264176176
-0.44861407966254774,-0.44861407966254774,0.9999829738702077,0.0001976690163325895
-0.4474438153092706,-0.4474438153092706,1.0000007137127631,0.00019817828323988066
-0.4460693247724521,-0.4460693247724521,1.0000089987977607,0.00019703718682521763
-0.4446092269188739,-0.4446092269188739,1.0000019058497567,0.00019698645042411775
-0.44244321690566724,-0.44244321690566724,0.9998099483316579,0.0001973429824986028
-0.4413183094192391,-0.4413183094192391,1.0000746702781498,0.00019764564803360823
-0.4406509768616161,-0.4406509768616161,1.0001104402738363,0.00019700996226479941
-0.43943836544276565,-0.43943836544276565,1.0000752445305425,0.00019844979548861377
-0.4377788042851535,-0.4377788042851535,1.0001892444128924,0.0001977969295217607
-0.43617772955522016,-0.43617772955522016,0.9999731058815579,0.00019766595542392438
-0.43495125881463537,-0.43495125881463537,1.000156728290308,0.0001973721093961035
-0.43372491101208654,-0.43372491101208654,0.9997276944522087,0.0001970154605479784
-0.431965706201936,-0.431965706201936,0.999865571755627,0.0001971968202063292
-0.43014399767625944,-0.43014399767625944,0.9998131518678587,0.00019780180047866501
-0.4292466539765883,-0.4292466539765883,1.0000757400236495,0.00019701769006110086
-0.4284764242079291,-0.4284764242079291,0.9998402144667178,0.0001977854604038702
-0.42671541521040124,-0.42671541521040124,0.999953086152962,0.00019748852412319775
-0.42501176091964227,-0.42501176091964227,1.000827580082399,0.00019781967803878033
-0.4238707930212513,-0.4238707930212513,0.9997159772191019,0.00019818140776145686
-0.4224959851745552,-0.4224959851745552,1.0000900808466477,0.00019702618830377263
-0.42101447230488703,-0.42101447230488703,1.0001423557803646,0.0001969984695806639
-0.41887001387995043,-0.41887001387995043,0.9998457152898605,0.0001973364960852307
-0.41774521372353773,-0.41774521372353773,1.0000495401921958,0.00019764952230776333
-0.41707780146662116,-0.41707780146662116,0.999944207907196,0.00019698812089049091
-0.4158291591101261,-0.4158291591101261,0.9999706674802363,0.00019835315765655772
-0.4134924003747983,-0.4134924003747983,0.9995649303332501,0.00019776682926273822
-0.41260469907920194,-0.41260469907920194,1.000137670797556,0.00019769768101975514
-0.4112340391235193,-0.4112340391235193,0.9997400052835298,0.0001974231843606457
-0.40973482699637315,-0.40973482699637315,1.0001209678592395,0.00019704236634585627
-0.40778934937752637,-0.40778934937752637,1.0001817606684713,0.00019782332640135434
-0.40653075515456294,-0.40653075515456294,0.9996569852600699,0.0001971116997131078
-0.40557148678826704,-0.40557148678826704,1.0020716913381822,0.00019704116742059525
-0.4046646084882923,-0.4046646084882923,1.000025459974646,0.00019780157503491324
-0.4025368014543346,-0.4025368014543346,1.0001104632766922,0.00019829636294888187
-0.40129840966137637,-0.40129840966137637,1.0000900337797822,0.00019760555088375788
-0.40029777098625346,-0.40029777098625346,1.000072259040077,0.00019823101642468108
-0.3989226459874772,-0.3989226459874772,1.0001445017367512,0.00019703095385812516
-0.39727398856284707,-0.39727398856284707,1.0002533951945387,0.00019698856517832365
-0.3954161305017806,-0.3954161305017806,0.9996720643969917,0.0001971437253332462
-0.3942803423964506,-0.3942803423964506,0.999915322852057,0.00019711192602353574
-0.39350462638813044,-0.39350462638813044,1.0008508807379317,0.00019691454532883208
-0.3922560549419359,-0.3922560549419359,0.9999028380952165,0.00019832994080903817
-0.39022069890224886,-0.39022069890224886,0.9999941787152828,0.00019835692400541082
-0.3893851616559914,-0.3893851616559914,0.9999937759122224,0.0001980522817114368
-0.38810649644165096,-0.38810649644165096,1.0002042368010424,0.00019771870971167248
-0.3865877996032395,-0.3865877996032395,0.9997374450002778,0.00019711552816038916
-0.3848192363539965,-0.3848192363539965,1.0000743364022604,0.00019722387659259203
-0.3832252212196181,-0.3832252212196181,0.9999606098672539,0.00019712975381766924
-0.38210026348006065,-0.38210026348006065,1.0000062163973245,0.00019689500321296835
-0.38133022036026887,-0.38133022036026887,0.9996842782588156,0.00019768496233745929
-0.37961011852221416,-0.37961011852221416,1.0000452223513046,0.00019746838839145307
-0.37794125007458207,-0.37794125007458207,1.0001681676761094,0.00019854465305467884
-0.37735725148231725,-0.37735725148231725,0.9995803756791822,0.000198270096596408
-0.37600293858067746,-0.37600293858067746,0.9999227085545496,0.00019735807742038452
-0.3743748659217999,-0.3743748659217999,1.0001219262717487,0.00019704305743412356
-0.3722099356145009,-0.3722099356145009,0.9999109445024678,0.0001972121258778499
-0.37114986113901977,-0.37114986113901977,0.9995718549502781,0.0001971878667018533
-0.3702116900431065,-0.3702116900431065,0.9998303617282274,0.00019685090924314455
-0.36930492318251706,-0.36930492318251706,0.9996467870571696,0.00019771017195278478
-0.36726974830198744,-0.36726974830198744,1.0000648529147926,0.00019832301195724035
-0.3660419197369265,-0.3660419197369265,1.0001475627696839,0.00019767424612812494
-0.3654024100253082,-0.3654024100253082,0.9999821527890701,0.00019834930268298667
-0.3638951949474176,-0.3638951949474176,1.0000069235594766,0.00019738867831958968
-0.36219977506825674,-0.36219977506825674,0.9997589831356978,0.0001970101134083518
-0.3600564333092734,-0.3600564333092734,1.000032364884063,0.00019716273847329184
-0.35892056749644324,-0.35892056749644324,1.0001666418081063,0.00019712040504140039
-0.35814486448161914,-0.35814486448161914,0.9997468817327502,0.00019689097747124085
-0.35717167311304365,-0.35717167311304365,1.0002998543654467,0.000198440780337765
-0.3549679986557749,-0.3549679986557749,1.0003194539412943,0.00019779319101556598
-0.3539673103981841,-0.3539673103981841,0.9999703003660827,0.000198254758441937
-0.3531791873107977,-0.3531791873107977,1.0001057993155764,0.00019815343273608764
-0.3517759688465958,-0.3517759688465958,0.9995578471391349,0.00019696534350196305
-0.3499287821714461,-0.3499287821714461,1.0000427401860341,0.00019702192460237014
-0.3479044768554559,-0.3479044768554559,1.0004547055712505,0.0001973840179684167
-0.34674047157177484,-0.34674047157177484,1.0009570597291522,0.0001970139174105941
-0.3460465343733631,-0.3460465343733631,1.0007715074175552,0.00019775982021390313
-0.3447859759756284,-0.3447859759756284,0.9998669817602025,0.0001975918185403418
-0.3427488208242721,-0.3427488208242721,0.9996786505909363,0.00019842854177249536
-0.3418293387670019,-0.3418293387670019,1.0001648460826398,0.0001983734460911484
-0.34061508498798504,-0.34061508498798504,1.0001400003281176,0.00019729580637210115
-0.339663479772571,-0.339663479772571,1.0001960462702664,0.00019718452453554303
-0.33767276837143073,-0.33767276837143073,1.0002324794151467,0.00019723252500399507
-0.33581125445161886,-0.33581125445161886,1.0002807007112553,0.00019716009264553219
-0.33485189405655547,-0.33485189405655547,1.000265941754363,0.00019689036239579455
-0.33394523857232344,-0.33394523857232344,1.0002885260971648,0.00019775206558387453
-0.33188266750539697,-0.33188266750539697,1.0001001299559173,0.0001985032792653363
-0.330503443368616,-0.330503443368616,1.0000654573200962,0.0001981529364926241
-0.3295118473793991,-0.3295118473793991,0.9997623203907194,0.00019812037118490294
-0.3283376480810148,-0.3283376480810148,0.9999773402364024,0.0001971243857323697
-0.3270358070261864,-0.3270358070261864,0.9999202277937294,0.00019699833042608747
-0.3249952478450723,-0.3249952478450723,1.0000683274548228,0.00019717829848469034
-0.3235607936081578,-0.3235607936081578,1.000253841991021,0.00019715775138246387
-0.32278510336582256,-0.32278510336582256,1.0002091505798518,0.00019692321599376023
-0.3213481566574046,-0.3213481566574046,0.9999893884572231,0.00019832795632337158
-0.31903205581211297,-0.31903205581211297,0.9998918444472524,0.00019753031811470487
-0.318032782233513,-0.318032782233513,1.0003782438947746,0.00019881443307219305
-0.31676326628794416,-0.31676326628794416,1.0000665146048724,0.00019803778543384543
-0.31577602357156137,-0.31577602357156137,1.000111203308339,0.00019711227071163244
-0.31393600310339026,-0.31393600310339026,1.0000796872258388,0.00019713713782488397
-0.31223808822487625,-0.31223808822487625,0.9999799880787205,0.0001971473641212401
-0.3112942013854081,-0.3112942013854081,0.9999295655178676,0.00019692702308508146
-0.310550111669545,-0.310550111669545,0.999850751638346,0.0001976562959714029
-0.30816126677518696,-0.30816126677518696,0.9998282289062411,0.00019820645714090047
-0.3066722161728649,-0.3066722161728649,1.0003798891897628,0.0001979648358717935
-0.3056440327832206,-0.3056440327832206,0.9999201773122086,0.0001986551737266625
-0.3045695354550844,-0.3045695354550844,1.0002115315054687,0.00019711366970225856
-0.30304834814223797,-0.30304834814223797,0.9998710256092715,0.0001970630487059591
-0.3011927661537811,-0.3011927661537811,1.000050795397562,0.00019725164390640683
-0.3001891206802611,-0.3001891206802611,1.000207973304744,0.0001971401095928028
-0.29921192974161387,-0.29921192974161387,0.9999253065074143,0.00019692935412096482
-0.29803746284287624,-0.29803746284287624,0.9999320474986841,0.0001983038348596026
-0.29572837138330216,-0.29572837138330216,0.9999563779023661,0.00019748898403830739
-0.29420624305739695,-0.29420624305739695,0.9998162946340472,0.0001981913971454992
-0.29332390927393137,-0.29332390927393137,0.9998646261615894,0.0001984552976427299
-0.29248002707627163,-0.29248002707627163,0.9999592846507982,0.0001971328807705826
-0.29061255367032574,-0.29061255367032574,0.9997340763058402,0.00019703877816300855
-0.28923276384148267,-0.28923276384148267,1.0000970793051942,0.0001971935518288185
-0.28815385948673794,-0.28815385948673794,0.9998019662737851,0.00019714107639201903
-0.28724864537762185,-0.28724864537762185,0.9999117773483166,0.00019770690066896827
-0.2858402264512733,-0.2858402264512733,1.0000933741125069,0.00019756474436307095
-0.2834790212448752,-0.2834790212448752,0.9998259513601557,0.00019792379893440946
-0.2821195090084075,-0.2821195090084075,1.0000449811299816,0.00019777867632838272
-0.28118336140641986,-0.28118336140641986,0.9997451351175928,0.0001979387975665961
-0.2800834276866226,-0.2800834276866226,1.0000268528198455,0.00019710672333081008
-0.27833453632511007,-0.27833453632511007,0.9997691750454711,0.00019788135718082134
-0.27704421052885664,-0.27704421052885664,0.9998860867957028,0.000197086489669456
-0.27606632546321636,-0.27606632546321636,0.9999891254653079,0.0001969734461261884
-0.27519060337053813,-0.27519060337053813,1.0001352779250405,0.0001976631997411223
-0.2736456212194753,-0.2736456212194753,0.9999903817917876,0.00019756582524104745
-0.2712783889483944,-0.2712783889483944,0.9997999220659608,0.00019832144697096618
-0.2700861138659093,-0.2700861138659093,1.0000067408141424,0.0001973321578031147
-0.2690569565204896,-0.2690569565204896,0.9999001713793696,0.00019709863333325006
-0.26731200011718104,-0.26731200011718104,0.999571256078692,0.00019798336893341175
-0.2658005273290655,-0.2658005273290655,1.0002683488459094,0.00019725148032473855
-0.2647960837076425,-0.2647960837076425,0.9996865913335817,0.00019708605808566748
-0.2638521700164347,-0.2638521700164347,0.9998251831650938,0.00019696202659284442
-0.26284997859656867,-0.26284997859656867,0.9998175599798312,0.0001988792013412969
-0.26096769686173504,-0.26096769686173504,0.9997727641541581,0.0001969052409944441
-0.25932359257258214,-0.25932359257258214,1.000152377763683,0.00019841025869538135
-0.2580308584702834,-0.2580308584702834,0.9996846346829921,0.00019726823865680998
-0.2569410878581948,-0.2569410878581948,1.0008205135484993,0.0001972119948652526
-0.2552200194750185,-0.2552200194750185,0.999830725375172,0.00019798868194266934
-0.2538072753997767,-0.2538072753997767,1.0002600804024557,0.0001972132114626152
-0.2527941560028921,-0.2527941560028921,1.0001002034635404,0.00019715616285490828
-0.25188902971749483,-0.25188902971749483,1.00035136260917,0.00019773459103790834
-0.25019519953439157,-0.25019519953439157,0.9995138300380638,0.00019753774142460432
-0.24829417845394347,-0.24829417845394347,0.999752643371906,0.00019746696120081635
-0.24731349451394635,-0.24731349451394635,1.0006142443452921,0.00019885530298199627
-0.246046629704324,-0.246046629704324,0.9999999304704174,0.00019701164210447942
-0.24477666858574593,-0.24477666858574593,1.0003440417659142,0.00019799222436633402
-0.24293729262135458,-0.24293729262135458,0.9995939821281155,0.00019730528342487558
-0.24186187113364213,-0.24186187113364213,0.9998883871161011,0.0001971028447961017
-0.24079030487255296,-0.24079030487255296,1.0002396143008836,0.00019708051482162612
-0.23983109592545587,-0.23983109592545587,0.9998679739386145,0.0001976379376536067
-0.23803819137829124,-0.23803819137829124,1.0003115043223274,0.000197571495914678
-0.23624923874513115,-0.23624923874513115,1.000228291253768,0.00019807809731329167
-0.2352733800493297,-0.2352733800493297,1.0000038456718467,0.00019825609073179096
-0.23409744245391267,-0.23409744245391267,0.9996305063202644,0.00019702839032197632
-0.23258428045428445,-0.23258428045428445,1.0000386402645662,0.00019797056155112686
-0.23062682307991053,-0.23062682307991053,1.000112791620635,0.00019728945107115207
-0.22987727806230396,-0.22987727806230396,1.000117094815249,0.0001972139686398059
-0.22877508165111066,-0.22877508165111066,1.0000401862287718,0.0001969462409184154
-0.227747413776342,-0.227747413776342,1.0000152016029198,0.00019830676073839647
-0.2257480099696295,-0.2257480099696295,1.0004994381501375,0.00019759113519911688
-0.22413223015091716,-0.22413223015091716,0.9998617836998405,0.00019835315620332568
-0.2229428865211048,-0.2229428865211048,0.9998821560401969,0.0001973659344131497
-0.22221335542790258,-0.22221335542790258,0.9998858198866184,0.00019705912197713854
-0.22022886523618582,-0.22022886523618582,1.0002365810506553,0.00019796060473789857
-0.21865408131834557,-0.21865408131834557,1.0000345093225753,0.0001972673347647173
-0.21745255858322707,-0.21745255858322707,0.9999205042084967,0.0001969391828059083
-0.2165294148478097,-0.2165294148478097,1.0001628565610348,0.00019769164666841475
-0.2151591031668431,-0.2151591031668431,1.0004022275952154,0.0001978660914019916
-0.2135222578257526,-0.2135222578257526,1.0004957739136766,0.00019754298436960678
-0.21217745385047238,-0.21217745385047238,0.9994378316010316,0.00019838966787670027
-0.2108844065482117,-0.2108844065482117,1.00064763504397,0.00019734763016957552
-0.20970027210405534,-0.20970027210405534,0.9998858932773341,0.00019714255324512712
-0.20797134516587903,-0.20797134516587903,0.9999500908940305,0.00019791282513406945
-0.20666107863407887,-0.20666107863407887,1.000190792082226,0.0001972183228514431
-0.20543057214599686,-0.20543057214599686,0.999625434464902,0.00019701921567731674
-0.20447158914466854,-0.20447158914466854,0.9999153556659663,0.00019763229314151935
-0.20267833655834694,-0.20267833655834694,1.0000110584411321,0.00019755104470935828
-0.20116655676501977,-0.20116655676501977,1.0003035202841537,0.00019779510251757452
-0.2001673036916145,-0.2001673036916145,1.00073194954937,0.00019891263998931914
-0.19887962877846804,-0.19887962877846804,1.0002652766637532,0.00019696753798418974
-0.19729681240805802,-0.19729681240805802,1.0003625042264725,0.0001980902413793856
-0.19560753454461519,-0.19560753454461519,1.000044005147307,0.00019728164217978358
-0.194492182495469,-0.194492182495469,0.9996582095438343,0.000196990462444458
-0.19329844541944113,-0.19329844541944113,1.0022374329448096,0.000197066966582104
-0.1923878084539865,-0.1923878084539865,1.0003192588266494,0.00019831002080845212
-0.19055243121956664,-0.19055243121956664,1.0001175883389042,0.00019702833952984456
-0.18911337695526526,-0.18911337695526526,1.0010378096569719,0.00019819015880347796
-0.18773442030869775,-0.18773442030869775,1.000255131026606,0.00019781937807014706
-0.1863982931641658,-0.1863982931641658,0.9999330407281712,0.0001975298971915652
-0.18454635123853222,-0.18454635123853222,1.000495459886678,0.00019808542430073986
-0.18336270390755088,-0.18336270390755088,0.9999729138738866,0.0001972917387214282
-0.1821262503311118,-0.1821262503311118,1.0057532069056783,0.00019744240151185988
-0.18109022409271347,-0.18109022409271347,1.0001220963880972,0.00019690808485735615
-0.17958228092375067,-0.17958228092375067,0.9999997403834747,0.0001975990376690878
-0.17789620374842344,-0.17789620374842344,1.0000996108351943,0.00019779114790476992
-0.17687441569087242,-0.17687441569087242,0.9999200713679327,0.0001978083164009854
-0.1753620616066655,-0.1753620616066655,0.9999727229447732,0.00019733747546432905
-0.17381289736667896,-0.17381289736667896,0.9996654939736782,0.0001984540119726575
-0.17198916894567445,-0.17198916894567445,1.0007032058699221,0.00019746647509316707
-0.17102120950721655,-0.17102120950721655,0.9999950117427329,0.0001970424492364321
-0.1698424139227427,-0.1698424139227427,1.002761869170888,0.00019716172851583845
