time,time,flux,flux_err
-0.4993796369963093,-0.4993796369963093,1.0003732752750054,0.0002472383771987267
-0.4980307069054106,-0.4980307069054106,1.0000063306359384,0.0002446252401568842
-0.49662767642585093,-0.49662767642585093,1.0000847683696739,0.00022221668106049176
-0.49560289974324406,-0.49560289974324406,1.000217585698817,0.00022720541832317703
-0.49393143226625397,-0.49393143226625397,0.9999511760372786,0.0002230735909333255
-0.49302522460347975,-0.49302522460347975,0.9997950297054812,0.00022453550144558562
-0.4915646443143487,-0.4915646443143487,0.9995752353320582,0.00022281686421814808
-0.4906206539395498,-0.4906206539395498,1.0004076017107617,0.00022590894751792825
-0.4889880193368299,-0.4889880193368299,1.0001578884708144,0.00022492459847407866
-0.4878549633082002,-0.4878549633082002,0.9997009525596253,0.00022781956242284496
-0.4864019253727747,-0.4864019253727747,1.0001206440924415,0.0002259662238236192
-0.485252920514904,-0.485252920514904,0.9999696241204774,0.00022993974680825908
-0.4836013332824223,-0.4836013332824223,1.000508706791254,0.0002239013790249609
-0.48135565570846667,-0.48135565570846667,1.0001410639574335,0.00022373302559102558
-0.4794691339338897,-0.4794691339338897,1.0002095955009453,0.0002251850310369046
-0.4780035148578463,-0.4780035148578463,1.000346345750002,0.00022396471706562378
-0.4767447705729865,-0.4767447705729865,0.9998544545482041,0.00022116809914648886
-0.4750781124545028,-0.4750781124545028,1.000114602672188,0.00022479103134874948
-0.47402728713641407,-0.47402728713641407,0.9998738719503825,0.00022460106477234423
-0.472717125856434,-0.472717125856434,0.9999450981375105,0.00022743358475080553
-0.4717706748342607,-0.4717706748342607,1.0001513795847135,0.00022430830192438403
-0.47047940675984135,-0.47047940675984135,1.0001671459896053,0.0002276999358628777
-0.4692850118794013,-0.4692850118794013,1.0000288241333324,0.00022524742062808947
-0.4681291263375897,-0.4681291263375897,1.0000843708099425,0.00022620850607624096
-0.46719349777849856,-0.46719349777849856,1.0001981032363019,0.00022495088183725748
-0.46585037908516824,-0.46585037908516824,0.9998637660364388,0.00022909955913024628
-0.46485457915114237,-0.46485457915114237,1.0000062556653782,0.00022917924724550172
-0.46324277118837925,-0.46324277118837925,1.0004227901117553,0.0002237732259100456
-0.4615061879332643,-0.4615061879332643,0.9997858981145369,0.00023300275500619784
-0.4601631482859375,-0.4601631482859375,0.9998569033404383,0.0002317512133785938
-0.45889598300273066,-0.45889598300273066,1.0002439079813192,0.00022670039965236687
-0.45760181436198766,-0.45760181436198766,1.0000332253063848,0.0002365850968268125
-0.45632141127134673,-0.45632141127134673,1.000248262155099,0.00022060333931724928
-0.4546378486789763,-0.4546378486789763,0.9999395566989918,0.0002343151325642149
-0.45270828423381315,-0.45270828423381315,1.0003348570361037,0.0002233935384776196
-0.45111449307587465,-0.45111449307587465,1.0001154599536837,0.00022161987188189534
-0.4492406055564061,-0.4492406055564061,1.0002921971431324,0.00022301704277579627
-0.4474474907998228,-0.4474474907998228,1.0001831568103354,0.0002216859089999338
-0.44570846451679247,-0.44570846451679247,0.999838206774396,0.00022348437001825828
-0.4436248262849404,-0.4436248262849404,1.0001141225140362,0.00022375366232155793
-0.4418038013012847,-0.4418038013012847,1.000176273186198,0.00022101103937598372
-0.4404480067139957,-0.4404480067139957,1.0000408064675843,0.00022415320239847986
-0.4391743751242757,-0.4391743751242757,1.0000599096473202,0.0002263711585196308
-0.43849763649341184,-0.43849763649341184,0.9998843111363375,0.00022412749318791023
-0.43710984648496376,-0.43710984648496376,1.0001291236422767,0.00022463591864695697
-0.4361949824320618,-0.4361949824320618,1.0000426450069217,0.0002235270643618404
-0.4347091559902765,-0.4347091559902765,1.0001155856292667,0.00022645734617825265
-0.4336047203309136,-0.4336047203309136,0.9999464840261503,0.0002210042456199675
-0.43235422056459355,-0.43235422056459355,0.999767695758659,0.00022657377069204595
-0.431325233131065,-0.431325233131065,1.0000523484824297,0.00024231825908848574
-0.43009277037344873,-0.43009277037344873,0.999863876220681,0.00022522585236312313
-0.42865278575918636,-0.42865278575918636,0.9996735040439988,0.00022769215578742323
-0.4273107208602596,-0.4273107208602596,1.0003446078847333,0.0002259498288117866
-0.42560389096615836,-0.42560389096615836,1.0000528768920476,0.00022549866596973796
-0.4239540506649064,-0.4239540506649064,0.9997953422658729,0.00022463590534174297
-0.4218389222747646,-0.4218389222747646,1.0001470023355488,0.00022542270550909805
-0.42022120967740195,-0.42022120967740195,1.0001815931888873,0.00022401567375513444
-0.418546899993089,-0.418546899993089,1.00015637856179,0.00022401337772186817
-0.4171803020319203,-0.4171803020319203,0.9996923595255828,0.00022516214344682657
-0.4157856478152098,-0.4157856478152098,0.9999779862816389,0.00022662586889839138
-0.414431168048759,-0.414431168048759,0.9996823414785225,0.0002241085339772571
-0.4134062129742233,-0.4134062129742233,1.0000245287268203,0.00022392961198114584
-0.412126680513029,-0.412126680513029,1.0000709517653632,0.000228394326224863
-0.411106598682818,-0.411106598682818,1.000170000547463,0.00022362635453130426
-0.40995635561994276,-0.40995635561994276,0.9998595023498009,0.00022814381881532692
-0.4089294092991622,-0.4089294092991622,1.0000780171835673,0.00022648970663850164
-0.4081165458774194,-0.4081165458774194,0.9999966509239524,0.0002250368087851232
-0.4069397139479406,-0.4069397139479406,1.0003176305041797,0.0002303902202533985
-0.4060793606418883,-0.4060793606418883,1.0004847545688407,0.0002264132868212509
-0.4044226015394088,-0.4044226015394088,0.9997999929369706,0.00022690474296168148
-0.40296095692319794,-0.40296095692319794,1.000061068501672,0.0002314837209273013
-0.4016532059205929,-0.4016532059205929,0.9999692635069353,0.000231069936364874
-0.40036941147118343,-0.40036941147118343,1.0000780629278452,0.00022901492064942973
-0.3994042449834524,-0.3994042449834524,0.999884226060044,0.0002317076207238491
-0.3978504039696418,-0.3978504039696418,1.0000196722510526,0.0002275837475674693
-0.3968118665186921,-0.3968118665186921,1.0001881387929046,0.00023257911460273188
-0.3947390476416331,-0.3947390476416331,1.0002695788424392,0.0002215393988664732
-0.3929267190571409,-0.3929267190571409,0.9998872482627096,0.00022326798708686892
-0.39134579357341864,-0.39134579357341864,0.9999392716221696,0.0002221827630586294
-0.38993689947819804,-0.38993689947819804,1.0001127712541944,0.0002243350635428954
-0.3883602573419921,-0.3883602573419921,1.000248445028224,0.00022169540425127004
-0.3868961283063982,-0.3868961283063982,1.0000078697380743,0.00022477963310940722
-0.3849957649683347,-0.3849957649683347,0.9998604813862458,0.00022363487195632296
-0.38358452956017575,-0.38358452956017575,1.0001505844438394,0.0002243520597747587
-0.3819369108969113,-0.3819369108969113,0.9998887148487153,0.00022307794224518104
-0.38045940139854795,-0.38045940139854795,0.9999097715854,0.00022397015247289817
-0.3798421868792502,-0.3798421868792502,0.9999889364021485,0.00022866505429716515
-0.37880508849339095,-0.37880508849339095,0.9998763514390248,0.00022420413059184965
-0.3777463640552014,-0.3777463640552014,0.9998862900956214,0.0002249444780372653
-0.37656265407276807,-0.37656265407276807,0.9999182842013192,0.00022480015375074552
-0.3757506393216318,-0.3757506393216318,1.0002435221492683,0.0002228391074512935
-0.37484970276709645,-0.37484970276709645,1.0003423126968207,0.00022440646788021127
-0.3734468445269158,-0.3734468445269158,1.0004093817788164,0.00022431567845020947
-0.37264838739938566,-0.37264838739938566,1.0003445918439369,0.00022425425972221057
-0.3710050788737135,-0.3710050788737135,0.9999066353146361,0.00022517950794606248
-0.36929930656042415,-0.36929930656042415,0.9999825193817212,0.00022738379734284892
-0.368085359732504,-0.368085359732504,0.9996753125715229,0.000226606657871982
-0.36651642658980566,-0.36651642658980566,1.000053450054331,0.0002255499594399089
-0.3648196535941679,-0.3648196535941679,0.9998236066570823,0.00022904515157328586
-0.3629055543628056,-0.3629055543628056,0.9996868133928694,0.0002222724228430106
-0.3612664564949227,-0.3612664564949227,1.0000177404598554,0.0002213115533806593
-0.3597037565865321,-0.3597037565865321,1.00014455066565,0.00022644280545061206
-0.3582702896441333,-0.3582702896441333,1.0002123170293118,0.00022227375814049167
-0.35690028117678596,-0.35690028117678596,0.9998282268360166,0.00022702636781573516
-0.35558794272947125,-0.35558794272947125,1.00004864370597,0.00022749732218531422
-0.35437143128947357,-0.35437143128947357,0.9999839142704918,0.0002268185957962847
-0.35328836424450855,-0.35328836424450855,1.000230780911265,0.00022377469393858426
-0.3522721813671524,-0.3522721813671524,0.9998542347851295,0.000228932588858462
-0.3514353230653796,-0.3514353230653796,0.9999624136648609,0.00022081358296387426
-0.3501722356537357,-0.3501722356537357,1.0000121740626837,0.00023457662477754552
-0.3493761406687554,-0.3493761406687554,1.000089683277526,0.00021857388884812868
-0.34787533558846917,-0.34787533558846917,0.9999987632681269,0.00023586812342059563
-0.3469686533877393,-0.3469686533877393,0.9999818691707683,0.00022953036878029732
-0.34549742163799235,-0.34549742163799235,1.0000362938528071,0.00023068902935807398
-0.3441737139830366,-0.3441737139830366,0.9998120602528088,0.00023055101719999415
-0.3425650550838327,-0.3425650550838327,0.9998393297244664,0.00023152271914847169
-0.3412501426471863,-0.3412501426471863,0.9999748037173545,0.00023039494458415376
-0.34031618626904675,-0.34031618626904675,1.0002297761049463,0.0002316324368545886
-0.3387409961404046,-0.3387409961404046,0.9999718912111699,0.0002284862620421866
-0.33734177658625414,-0.33734177658625414,1.0001737833149764,0.000233767052428895
-0.33560427790798714,-0.33560427790798714,0.9999436135686188,0.00021953764785558324
-0.3339174262539018,-0.3339174262539018,0.9998492156153752,0.00022662436954038048
-0.33253891513159034,-0.33253891513159034,1.0001430947206127,0.0002217217141700279
-0.3305428080406273,-0.3305428080406273,0.9996635772927039,0.0002235257147304496
-0.3290835182880983,-0.3290835182880983,0.9998201901982993,0.0002210756537351932
-0.3269042866246309,-0.3269042866246309,1.0002198951074999,0.00022446161894575223
-0.32451935996941755,-0.32451935996941755,1.000040311768709,0.0002239017481788435
-0.3231402763572987,-0.3231402763572987,1.0002332473710998,0.00022056493358526213
-0.3216820399655262,-0.3216820399655262,0.9999997723031363,0.0002251581934868001
-0.3208874237403506,-0.3208874237403506,1.0000975441633502,0.00022337862379581507
-0.3199155722337309,-0.3199155722337309,0.9998147608630841,0.00022545934189680837
-0.3186582409805851,-0.3186582409805851,1.00014175579418,0.00022490059038652362
-0.3174403594690375,-0.3174403594690375,1.0000570114619316,0.0002237913999541702
-0.3164182702195831,-0.3164182702195831,1.0000216231549712,0.00022616860711174424
-0.31508783013559877,-0.31508783013559877,0.9996029291345652,0.0002228249753194398
-0.31404130342707504,-0.31404130342707504,1.000237605365331,0.00022488014985389478
-0.31245925517869183,-0.31245925517869183,1.0000238039906892,0.0002236499857305231
-0.3111258199962322,-0.3111258199962322,1.0004852271539193,0.00022612786806313533
-0.3096639752358897,-0.3096639752358897,1.0001166882961747,0.0002250117241338515
-0.30785894944856407,-0.30785894944856407,0.9999344521755962,0.00022665800773063349
-0.30616474093403667,-0.30616474093403667,0.9999543360311014,0.00022792102418315511
-0.3043808435322717,-0.3043808435322717,1.0001285757948724,0.00022459136496815146
-0.30261811443197073,-0.30261811443197073,0.9994550507115527,0.0002236310477973328
-0.30144454438705,-0.30144454438705,0.9995660143589019,0.00023972598504280228
-0.30004055912431793,-0.30004055912431793,1.000155934985855,0.00022764938616713369
-0.29883049109485,-0.29883049109485,0.999909150129571,0.00022556537634907365
-0.29737021410255693,-0.29737021410255693,0.9999538429893224,0.00022295494293774037
-0.2958644320518943,-0.2958644320518943,1.0004101581188767,0.00022923261251809636
-0.29494562665640844,-0.29494562665640844,0.9998147331703405,0.0002214711297400985
-0.29369721885886974,-0.29369721885886974,0.999706819843647,0.0002290707802101842
-0.2929319785354892,-0.2929319785354892,1.000078031992662,0.00022160516646123853
-0.2917988050496206,-0.2917988050496206,1.000102439763973,0.00022835085828725425
-0.2906773902097484,-0.2906773902097484,1.000280025296592,0.00022486706067540227
-0.2897153442056151,-0.2897153442056151,1.0001347985063926,0.0002281900774755697
-0.28843267081829255,-0.28843267081829255,0.9997486197001761,0.00022671141387108147
-0.2872774246847257,-0.2872774246847257,1.00030286002272,0.00023557147515271287
-0.2857265478320187,-0.2857265478320187,0.9998852202394369,0.00022754375497028843
-0.28403792587923815,-0.28403792587923815,1.0002728891371024,0.00022619281442448294
-0.28264421519415917,-0.28264421519415917,1.000016231421905,0.0002343847441185685
-0.28139554734225386,-0.28139554734225386,0.9994544686516308,0.00022367671019372085
-0.2800901510374388,-0.2800901510374388,0.9999014700921316,0.00023783051106253338
-0.27898023794405163,-0.27898023794405163,0.9999654186496161,0.00023194117872192083
-0.2769959624769399,-0.2769959624769399,0.9998771433878035,0.000223239544303709
-0.2754463049728656,-0.2754463049728656,1.0002229945321608,0.00022339702543949956
-0.27390490028774367,-0.27390490028774367,0.9998545746221769,0.00022283881745890102
-0.2722520900220843,-0.2722520900220843,0.9998590349969512,0.00022072473981581326
-0.27018582824093756,-0.27018582824093756,0.9998189351979999,0.0002216674428270901
-0.26860254134517164,-0.26860254134517164,1.0002918705836565,0.00022732470701943868
-0.26636085457284936,-0.26636085457284936,0.9998598967098111,0.0002238538558355001
-0.26466668136417865,-0.26466668136417865,0.999827380541092,0.00022129774005689903
-0.2631844804127468,-0.2631844804127468,1.000115924621633,0.00022432521207406105
-0.2619791761622764,-0.2619791761622764,1.000130949136876,0.00022620989828943828
-0.26148869878961706,-0.26148869878961706,0.9998056371965,0.00022324808302207335
-0.25983501653245183,-0.25983501653245183,1.0003134755480425,0.00022446314534556753
-0.259000307956012,-0.259000307956012,0.999832128206885,0.00022616590158167186
-0.25758033560414334,-0.25758033560414334,1.0000645485864816,0.00022308651452087182
-0.25667476768430786,-0.25667476768430786,1.0000568494999271,0.00022434706960908964
-0.25523793838801795,-0.25523793838801795,1.0001507681822033,0.00022476068948943618
-0.2541552085604053,-0.2541552085604053,0.9998705040364545,0.00022459171024361788
-0.25255326088517904,-0.25255326088517904,0.9997915724435951,0.00022643280903498906
-0.2513171187223634,-0.2513171187223634,0.9998395590263195,0.00022691316124363154
-0.2499512913374929,-0.2499512913374929,1.0002854631634357,0.0002236694085624067
-0.2480714856996201,-0.2480714856996201,1.0002946427079353,0.00022672684703197395
-0.2460652331559686,-0.2460652331559686,1.000276491872581,0.00022348845672464298
-0.24445942447928246,-0.24445942447928246,1.000189613259118,0.00022824206230242995
-0.24281544410332573,-0.24281544410332573,0.999646159293641,0.00021970391376941408
-0.24131856121239253,-0.24131856121239253,1.0002420955590285,0.0002251526969493303
-0.24012250146188308,-0.24012250146188308,0.9999123806559304,0.00022391257606872516
-0.2387793743313523,-0.2387793743313523,0.9998449998846658,0.00022824148347741868
-0.23776791412674356,-0.23776791412674356,0.9996713971082546,0.00022473237662201748
-0.23636986774217802,-0.23636986774217802,0.9998548700918246,0.0002276685666066133
-0.23540960031677968,-0.23540960031677968,1.000178119270224,0.00022320080742663315
-0.2342402218375355,-0.2342402218375355,0.9999557787919235,0.0002311304564257112
-0.2333782895904733,-0.2333782895904733,1.0003533881737539,0.000220902706565039
-0.2319218011427438,-0.2319218011427438,0.9994496785913218,0.0002309674801420278
-0.23117187110183296,-0.23117187110183296,0.9998562803371985,0.00022024304996580952
-0.22985404961218592,-0.22985404961218592,0.9997844345248247,0.0002340892561381508
-0.2288683431514073,-0.2288683431514073,1.0001062755750052,0.00022984563891023565
-0.22723415931104682,-0.22723415931104682,0.9999895389067387,0.00022737917383580065
-0.22561574002029375,-0.22561574002029375,0.9999424408258438,0.00023268404157026902
-0.22436487408122047,-0.22436487408122047,1.0001221684864439,0.00023316041053942027
-0.22279666078684385,-0.22279666078684385,0.9999339400554323,0.00022782173876025714
-0.22160860291623977,-0.22160860291623977,0.999930026936822,0.00023340961931534197
-0.21989230290637352,-0.21989230290637352,1.0000944320041596,0.00023240207514144636
-0.21817429564544,-0.21817429564544,0.9999227536931272,0.00022361899050524718
-0.2166134886268992,-0.2166134886268992,0.9998891003213284,0.00022130935365785495
-0.21496204898576252,-0.21496204898576252,0.9998475323329483,0.0002228096016684778
-0.21334024076350033,-0.21334024076350033,1.0002994043743967,0.00022181908482913625
-0.21165481057250873,-0.21165481057250873,1.0000437611740622,0.00022349228490571035
-0.21010906671290286,-0.21010906671290286,1.0001721628731741,0.00022228881147561686
-0.2078301444737008,-0.2078301444737008,1.000031426507477,0.00022478110788450609
-0.20601683964196127,-0.20601683964196127,0.9999631439825706,0.00022415862388202522
-0.20440618898137472,-0.20440618898137472,1.00021901502317,0.00022452480140060924
-0.2030410198000027,-0.2030410198000027,0.9997711273619563,0.0002225415766763193
-0.2025491707987385,-0.2025491707987385,1.0000293131539066,0.0002246161970608811
-0.20105433923890814,-0.20105433923890814,1.0000684126558044,0.000223108337850962
-0.20018724844849203,-0.20018724844849203,0.9998691627355006,0.00022585042168586904
-0.1989397231838666,-0.1989397231838666,0.9997760573593488,0.00022588688421994538
-0.19811521696101408,-0.19811521696101408,1.0002472094243864,0.00022458791074773905
-0.19683480621606578,-0.19683480621606578,0.9999707060589003,0.00022554313514762674
-0.19569630628684537,-0.19569630628684537,0.9997377772124189,0.00022729539724236904
-0.19397861442994327,-0.19397861442994327,1.0001418937833901,0.0002248396103329196
-0.19288353034644387,-0.19288353034644387,1.0000763336648102,0.00022626384240603112
-0.19149762895540334,-0.19149762895540334,1.0001165260668539,0.00022544948338957348
-0.19003554522641936,-0.19003554522641936,0.9997142697014929,0.0002275975977159744
-0.18826404116116463,-0.18826404116116463,0.9999459153053174,0.00022015129846067843
-0.18640287790622095,-0.18640287790622095,0.9999324843121646,0.00022783945974592687
-0.18455651159747505,-0.18455651159747505,1.0001340349254004,0.00022419946893089803
-0.18314564579341094,-0.18314564579341094,0.9997259204113546,0.00022097846802037924
-0.18159517413005233,-0.18159517413005233,1.0001395059511224,0.00022301246770258957
-0.1796928449854022,-0.1796928449854022,1.000117863955872,0.00022839742985240183
-0.1787919438822428,-0.1787919438822428,0.9997960901351057,0.00022265053093527588
-0.17749074606108478,-0.17749074606108478,1.0002954452120247,0.0002294103148353682
-0.17638191163423472,-0.17638191163423472,0.9997461646688368,0.0002208058219929703
-0.1751553089095978,-0.1751553089095978,1.0003048816598425,0.00023118480245271178
-0.17429280250798912,-0.17429280250798912,1.0000488049955172,0.0002209302958031136
-0.17283212977345103,-0.17283212977345103,1.0000336952953472,0.00023149087370573227
-0.1720875121332938,-0.1720875121332938,0.9998229147504766,0.00022015928227454843
-0.17062291231704876,-0.17062291231704876,0.9999867339633711,0.0002361474642520828
-0.1695438972878037,-0.1695438972878037,1.0001186497415855,0.00022756963130220612
-0.16830082466185559,-0.16830082466185559,1.0000761609374123,0.00023020323889533112
-0.1669557055720361,-0.1669557055720361,1.000288554473989,0.00022956635254076045
