time,time,flux,flux_err
-0.49921118055062835,-0.49921118055062835,1.0001527394732008,8.825380563376467e-05
-0.4983139974960068,-0.4983139974960068,0.999981608017712,8.991447353516135e-05
-0.49741001953370867,-0.49741001953370867,0.9999794991555182,8.82448451523132e-05
-0.4965438401712163,-0.4965438401712163,1.000065255769044,8.992228853723815e-05
-0.49576824453033624,-0.49576824453033624,0.9999562204245362,8.649155650253818e-05
-0.49509292510629166,-0.49509292510629166,0.9998997923286996,8.99105677273381e-05
-0.4939837347432331,-0.4939837347432331,0.9999843095929061,8.821883468308189e-05
-0.49311205767662614,-0.49311205767662614,1.0000454080264753,8.99607387800977e-05
-0.4921585278098064,-0.4921585278098064,1.0001594431545082,9.025076009454684e-05
-0.49162583436336715,-0.49162583436336715,1.0000700426677906,8.827211946113402e-05
-0.4912658125882444,-0.4912658125882444,1.0001173053759473,9.344571333745026e-05
-0.49027124270724015,-0.49027124270724015,1.0000457395539377,8.991580634407176e-05
-0.48943913168695874,-0.48943913168695874,1.0000024752488341,8.994308805033069e-05
-0.48879384816536914,-0.48879384816536914,1.0001404387410986,8.996712984042251e-05
-0.4876563037803862,-0.4876563037803862,1.0000479795094803,8.650845407156735e-05
-0.4871435640132404,-0.4871435640132404,0.9999325210021928,8.827124276457167e-05
-0.48638164137228157,-0.48638164137228157,0.9999808354005744,8.82223768603783e-05
-0.4851802660639805,-0.4851802660639805,1.00005456914076,8.99168173506136e-05
-0.48435374127948305,-0.48435374127948305,0.9997669661492548,8.823861069458529e-05
-0.48377275528473546,-0.48377275528473546,0.9999595766272993,8.86398089131972e-05
-0.48298345076327676,-0.48298345076327676,1.0000430661850135,8.830258465807275e-05
-0.48262676072699834,-0.48262676072699834,0.9998471068948028,8.819620991455429e-05
-0.4814992288411304,-0.4814992288411304,1.0001299833806407,8.65207590872342e-05
-0.48069729906346764,-0.48069729906346764,1.0001114063254963,8.992316099345609e-05
-0.4798626319119649,-0.4798626319119649,1.0000577945485112,8.995105880632067e-05
-0.47910874966037226,-0.47910874966037226,0.9999233192758586,9.018906942597328e-05
-0.47841852206984187,-0.47841852206984187,0.9999713343906136,8.475485501803689e-05
-0.47800582915879203,-0.47800582915879203,1.0000547079590558,8.993218084794584e-05
-0.47686561220471047,-0.47686561220471047,1.0000781933013885,8.824269189703641e-05
-0.47606802476366283,-0.47606802476366283,1.0000483659250003,8.99419179007883e-05
-0.47537070225880595,-0.47537070225880595,1.000028927050037,8.99543562760623e-05
-0.47458910341738375,-0.47458910341738375,1.000076036932342,9.001893948084267e-05
-0.47399722190311877,-0.47399722190311877,0.9999228335671466,8.474432155493407e-05
-0.4732164990884485,-0.4732164990884485,1.0000341597888038,9.156784565017391e-05
-0.47226623041715354,-0.47226623041715354,0.9999871823812425,8.650765946345623e-05
-0.4715279143609223,-0.4715279143609223,0.9999573737221364,8.99587258755995e-05
-0.47046410981056397,-0.47046410981056397,1.0001852771586521,8.988329154995624e-05
-0.46980253083529533,-0.46980253083529533,1.0001194375829032,8.830804056160907e-05
-0.4694466233020648,-0.4694466233020648,1.0000512510341415,8.792677420934587e-05
-0.46844959830195876,-0.46844959830195876,0.9998946306492635,8.991456544756607e-05
-0.4676014300704992,-0.4676014300704992,1.000006397377006,8.994410248422489e-05
-0.46697423032674124,-0.46697423032674124,0.9999765341779707,8.994601601326464e-05
-0.46636316479343803,-0.46636316479343803,1.0000134904163216,9.057302686554409e-05
-0.46541574938673874,-0.46541574938673874,0.9999347876362238,8.65730348856225e-05
-0.46520264799764843,-0.46520264799764843,1.000056400437361,8.819480287837431e-05
-0.46390481693670155,-0.46390481693670155,1.0000631936818225,8.823659572818385e-05
-0.46307332583237437,-0.46307332583237437,1.0000259719025295,8.823613042261327e-05
-0.4623003769200295,-0.4623003769200295,1.0000951889037233,8.99203281024863e-05
-0.4615362423050101,-0.4615362423050101,1.0000154019398466,9.002342875654844e-05
-0.46088168153801234,-0.46088168153801234,0.9999746288949526,8.8247003560283e-05
-0.46048160865248067,-0.46048160865248067,0.9999401883521525,8.648765219238198e-05
-0.4594378852118098,-0.4594378852118098,0.9999431718021607,8.824225797312051e-05
-0.45861624293684145,-0.45861624293684145,1.0001894479244284,8.825236266540305e-05
-0.45779764581820925,-0.45779764581820925,1.0000542634721352,8.991383010298019e-05
-0.4570252001620247,-0.4570252001620247,0.9998971771512274,8.824957038237562e-05
-0.4564461132817087,-0.4564461132817087,1.0001147145371596,8.652523795624659e-05
-0.4557925144305045,-0.4557925144305045,0.9999348316298574,9.15554556345201e-05
-0.45482855202280914,-0.45482855202280914,0.9999592971434182,8.650378651632601e-05
-0.45396969803696263,-0.45396969803696263,1.0000128600559215,9.162681168192025e-05
-0.4530123605225526,-0.4530123605225526,1.0000851204657204,9.046379337044114e-05
-0.4523578513057146,-0.4523578513057146,1.000138096735132,8.831116106914559e-05
-0.4520487024667091,-0.4520487024667091,0.9999253329454738,9.189694462627712e-05
-0.4514296300381829,-0.4514296300381829,1.0001303484946216,8.841086887164236e-05
-0.45035244898099336,-0.45035244898099336,0.9999950988045849,8.992494769606026e-05
-0.4496200517285615,-0.4496200517285615,0.9999497518267709,8.99553644170415e-05
-0.44863612567205563,-0.44863612567205563,1.0001140812261888,8.98921719865439e-05
-0.44787338137539334,-0.44787338137539334,1.0000261029591395,8.830260596951763e-05
-0.44749052036058856,-0.44749052036058856,0.9999240464051924,8.647694379442146e-05
-0.4463572550688696,-0.4463572550688696,1.0000389948189958,8.992404060236244e-05
-0.44548646186303814,-0.44548646186303814,1.0001953614727035,8.826269542200055e-05
-0.44477435559310835,-0.44477435559310835,1.000082961919092,8.99787617364946e-05
-0.4441166197502753,-0.4441166197502753,0.9999361800162869,8.8250606927075e-05
-0.4434456834518642,-0.4434456834518642,1.0000719085366847,8.826307757271322e-05
-0.44297228476498274,-0.44297228476498274,1.000079483125687,8.824229647393949e-05
-0.4418349476698495,-0.4418349476698495,1.000008064435358,8.650327777115124e-05
-0.4410211722206441,-0.4410211722206441,0.9999347993519034,8.993961216498288e-05
-0.44024046486010776,-0.44024046486010776,1.000126834827968,8.990744238531223e-05
-0.43945851309545103,-0.43945851309545103,1.0000509406603848,8.826345538176756e-05
-0.4389143853994028,-0.4389143853994028,1.0001301088655272,8.820789211075036e-05
-0.4380955066029856,-0.4380955066029856,1.0001209312405566,8.824434956459756e-05
-0.43708236181919347,-0.43708236181919347,1.0000718359948295,8.993520083487388e-05
-0.43632765189831846,-0.43632765189831846,1.0000004472603121,8.998814665746603e-05
-0.4356002135711606,-0.4356002135711606,1.000046322061583,9.008730085287779e-05
-0.4349220109914313,-0.4349220109914313,1.0000191998631913,8.828345033530963e-05
-0.4345727731568331,-0.4345727731568331,1.0001800623905868,8.475851452572264e-05
-0.43340916278320946,-0.43340916278320946,1.0001521560489928,8.991928000453765e-05
-0.4326265706396953,-0.4326265706396953,0.9999593142418096,9.158442360443943e-05
-0.4318891037692083,-0.4318891037692083,0.9999795847774114,8.826262396034866e-05
-0.43069375111881525,-0.43069375111881525,1.000028370006223,8.825697193561775e-05
-0.43034324417458264,-0.43034324417458264,1.0001291716487064,8.652133351873592e-05
-0.4295829225127818,-0.4295829225127818,1.0000575398368317,9.018042534130542e-05
-0.42850962795637315,-0.42850962795637315,0.9999580696435555,8.820453327156727e-05
-0.4277133067625982,-0.4277133067625982,1.0000359507518943,8.996429453786438e-05
-0.4271701985438995,-0.4271701985438995,1.0000735205274331,8.853796416807041e-05
-0.42623897824814777,-0.42623897824814777,1.0000423021035256,8.83054711435171e-05
-0.42591927730318274,-0.42591927730318274,0.999982909358029,8.822844112438093e-05
-0.425021276591724,-0.425021276591724,1.0000540326244292,8.65050006715713e-05
-0.42415228668542115,-0.42415228668542115,0.9999862858676571,8.991257571655778e-05
-0.4232319952214311,-0.4232319952214311,0.9999085806429344,8.824778403446738e-05
-0.42253742765824426,-0.42253742765824426,1.0001111482965583,9.155765658290224e-05
-0.42177594797612983,-0.42177594797612983,1.000034168983369,8.499370176073542e-05
-0.42138108133658536,-0.42138108133658536,1.0000337392698406,8.990769429403037e-05
-0.42031105220739845,-0.42031105220739845,1.0001925011162685,8.653968891768671e-05
-0.41949003758782055,-0.41949003758782055,0.9999570860654302,9.166112038490661e-05
-0.4188746222018381,-0.4188746222018381,1.0000963457488008,8.994421191985942e-05
-0.41808899995230603,-0.41808899995230603,0.9999077465269087,8.988998712869132e-05
-0.4173296550863597,-0.4173296550863597,0.9998630884316688,8.47948063212285e-05
-0.41669669256079944,-0.41669669256079944,0.9999136526186645,8.992106609895183e-05
-0.41564727990407846,-0.41564727990407846,0.999989266338661,8.82191843885865e-05
-0.4149208848517446,-0.4149208848517446,1.0000189056114164,8.994907055804533e-05
-0.41399151712757887,-0.41399151712757887,1.000055766719122,8.992631275989119e-05
-0.4131103441948653,-0.4131103441948653,1.000020525617113,8.994592322374744e-05
-0.412816028787347,-0.412816028787347,1.0000343994871006,8.480192407392731e-05
-0.4121629175111593,-0.4121629175111593,1.0000226999406103,9.306911486432253e-05
-0.4111426575102087,-0.4111426575102087,1.0000337295671544,8.993615615382498e-05
-0.4105021645060333,-0.4105021645060333,1.0001177618485457,8.993021673820578e-05
-0.40991922126486313,-0.40991922126486313,0.9999549570864549,9.113217168672049e-05
-0.4091145201862673,-0.4091145201862673,1.0000697182314124,8.82625348627935e-05
-0.40855404674148305,-0.40855404674148305,1.0000638186196213,8.823927529263853e-05
-0.40816974058616323,-0.40816974058616323,0.9997516652221778,8.820388126805836e-05
-0.40708252358963365,-0.40708252358963365,1.0000263494091424,8.995192682018431e-05
-0.40645166604954286,-0.40645166604954286,0.9999968527223823,8.993399093888719e-05
-0.4057053854543483,-0.4057053854543483,0.9999451547823602,8.995024773894212e-05
-0.40494466001182444,-0.40494466001182444,0.9999198265511777,8.99467235836508e-05
-0.4042172316578217,-0.4042172316578217,0.9999228706492627,8.650519470721713e-05
-0.403835318635538,-0.403835318635538,1.0001113748946036,8.824057130113602e-05
-0.4026902376819635,-0.4026902376819635,1.0000269113959104,8.823663131675873e-05
-0.4018665325937036,-0.4018665325937036,0.9998868720742091,8.825056320976571e-05
-0.40105757404817266,-0.40105757404817266,0.9998945935628603,8.991527118453447e-05
-0.4002609749077237,-0.4002609749077237,0.9999534237805092,8.989839436366614e-05
-0.3996011251132586,-0.3996011251132586,1.0001917071349102,8.650362402883217e-05
-0.3987681679907837,-0.3987681679907837,1.0000503448532998,8.992495700699697e-05
-0.3977562587679131,-0.3977562587679131,0.9999801688272164,8.993309926390299e-05
-0.3968472798303992,-0.3968472798303992,1.0000314085863227,8.996265499083275e-05
-0.3959498633324984,-0.3959498633324984,1.0000871189505554,9.02280486186314e-05
-0.3955055563877977,-0.3955055563877977,1.0001286804471863,8.657861008087526e-05
-0.3949885497255309,-0.3949885497255309,0.9999771613909608,8.820016139264399e-05
-0.393728520028526,-0.393728520028526,0.99997837351108,8.99228987263731e-05
-0.3930181827090564,-0.3930181827090564,0.9999743909513684,8.824165659936602e-05
-0.3923123131520697,-0.3923123131520697,0.9999737272479253,8.99134238349178e-05
-0.3912130067947146,-0.3912130067947146,1.0000600048355994,8.994705785035023e-05
-0.390912184453191,-0.390912184453191,0.9999906266612409,8.477287128869352e-05
-0.38979890898335723,-0.38979890898335723,0.9999249405937485,8.991122036487522e-05
-0.3887355550017674,-0.3887355550017674,0.999984546221356,8.825497183955615e-05
-0.38803751146188004,-0.38803751146188004,1.00000397402794,9.010446371837322e-05
-0.3873392790352227,-0.3873392790352227,1.0001143495793987,8.824794204284698e-05
-0.3866298688277311,-0.3866298688277311,1.0000312677885532,8.991754779379554e-05
-0.38597443039834617,-0.38597443039834617,0.999978008566818,8.650628046554166e-05
-0.38497218532138505,-0.38497218532138505,0.9999595835522005,8.820384188861669e-05
-0.38408566365033037,-0.38408566365033037,0.999968247693476,8.995260037362996e-05
-0.3833667072467506,-0.3833667072467506,0.9999778196746394,8.988424378464508e-05
-0.3825792392504809,-0.3825792392504809,1.0001213945135163,8.687369272613772e-05
-0.38210432175110326,-0.38210432175110326,0.9999686567410369,8.819051989235484e-05
-0.38125033080286813,-0.38125033080286813,0.9999960524388571,8.824770378187621e-05
-0.38034120150332457,-0.38034120150332457,1.0000249081809414,8.992481365135311e-05
-0.379583783045382,-0.379583783045382,0.999918702670722,8.996614510308981e-05
-0.37886069747910367,-0.37886069747910367,1.0000471647106013,8.997028444731124e-05
-0.3781072788544407,-0.3781072788544407,0.999965953456522,8.658422071766331e-05
-0.377619213356229,-0.377619213356229,1.0000556259888929,8.819742891437674e-05
-0.3764508749511151,-0.3764508749511151,1.0000171283683295,8.821615870757631e-05
-0.37579772267999945,-0.37579772267999945,0.9999850360142414,9.024890223960975e-05
-0.3751396373132593,-0.3751396373132593,1.0000393644302772,8.826136200521832e-05
-0.37398856676663855,-0.37398856676663855,0.9998569424106675,8.98847170838445e-05
-0.3736437334031507,-0.3736437334031507,0.9999333803769007,8.65786482237009e-05
-0.3730736155433988,-0.3730736155433988,1.0000430225913073,9.142612122318758e-05
-0.3719624411038239,-0.3719624411038239,1.000054876071278,8.820194416312238e-05
-0.3712347759581462,-0.3712347759581462,1.0000567158336364,8.994245750490396e-05
-0.37058958303387046,-0.37058958303387046,0.9999408188094666,9.064112928458803e-05
-0.369688449302339,-0.369688449302339,1.0000745252976988,8.826075423535779e-05
-0.3692097214800015,-0.3692097214800015,0.9998192805303153,8.825254003027247e-05
-0.368403347198182,-0.368403347198182,0.9999853475749484,8.649307013519684e-05
-0.36740946411227926,-0.36740946411227926,0.9999638502048374,8.993044468608262e-05
-0.3664835630712332,-0.3664835630712332,1.0000964687958962,8.82583256909242e-05
-0.3658030928912922,-0.3658030928912922,1.0000828772145922,9.156464792102229e-05
-0.36501053184547344,-0.36501053184547344,1.0000301230224764,8.491166854054672e-05
-0.3646427482322906,-0.3646427482322906,1.0001290741156157,8.989509152700125e-05
-0.3635564629250439,-0.3635564629250439,0.999849871303762,8.653608967306743e-05
-0.3627259127162688,-0.3627259127162688,0.9999419082979644,8.992568853906183e-05
-0.36188613406775405,-0.36188613406775405,1.0000789956781397,8.995276822467986e-05
-0.3611228815068898,-0.3611228815068898,0.9998973344420286,8.823486297000968e-05
-0.3604718949784001,-0.3604718949784001,0.9999577146173021,8.474740106870846e-05
-0.35992262676518294,-0.35992262676518294,1.000015816456305,9.159542969415825e-05
-0.3589008658636885,-0.3589008658636885,0.9999738555887113,8.821639914680245e-05
-0.3580921136403049,-0.3580921136403049,0.9999188560229756,8.994243168016862e-05
-0.357143289897067,-0.357143289897067,1.000003478492575,9.046602514088022e-05
-0.35636450117308416,-0.35636450117308416,0.9999224971933496,8.994690380792921e-05
-0.35605393072619335,-0.35605393072619335,0.9999743838403908,8.476445133690664e-05
-0.35559596137027255,-0.35559596137027255,0.9999311488385743,9.549418173902127e-05
-0.3544018534339557,-0.3544018534339557,1.0000424429228023,8.993484789328166e-05
-0.3536976275150664,-0.3536976275150664,0.9999329018260678,8.82357195352941e-05
-0.3528449075354729,-0.3528449075354729,1.000170953135203,8.99232435741781e-05
-0.35183788936628846,-0.35183788936628846,0.9999290957555049,8.994668148522059e-05
-0.3516712695309252,-0.3516712695309252,1.0002086541193147,8.649816230628923e-05
-0.3507182940527855,-0.3507182940527855,0.9999903853039023,8.824362533768611e-05
-0.34958623852871823,-0.34958623852871823,0.9999664204215224,8.993835785153084e-05
-0.3488440528512001,-0.3488440528512001,0.999766380121622,8.82869112862176e-05
-0.3482009567123896,-0.3482009567123896,1.0000008021611027,8.99408872897429e-05
-0.3474638548628718,-0.3474638548628718,1.0000438602823973,8.651389785167517e-05
-0.34708644225465834,-0.34708644225465834,0.9999576212369046,8.824190220034526e-05
-0.3459427334142674,-0.3459427334142674,1.0000681949240406,8.824796094610868e-05
-0.34511695495311867,-0.34511695495311867,0.9998541958478636,8.824423220342617e-05
-0.3443176442553522,-0.3443176442553522,0.9999121338582319,8.992168096281751e-05
-0.34351994305034167,-0.34351994305034167,0.9999388405243408,8.992572497907347e-05
-0.34284618589808813,-0.34284618589808813,1.0000489548316054,8.821763081758106e-05
-0.3420277786462975,-0.3420277786462975,0.9999990601434596,8.824624438804357e-05
-0.3410149777315382,-0.3410149777315382,1.0001185908901347,8.994330213703218e-05
-0.34026002276223155,-0.34026002276223155,0.9998954160537139,8.9969788427115e-05
-0.33960633634997067,-0.33960633634997067,1.0000048013745002,8.840345097929913e-05
-0.338941009080736,-0.338941009080736,0.9999768042080369,8.99572714073666e-05
-0.33859935286600373,-0.33859935286600373,0.9998274465012296,8.473652012321369e-05
-0.3376027519821946,-0.3376027519821946,0.9999761711967615,8.991178490034455e-05
-0.3367031611254788,-0.3367031611254788,0.9999558864802871,8.993924526569883e-05
-0.3359833112997876,-0.3359833112997876,1.0001263815857115,8.994706189358193e-05
-0.33486945311233285,-0.33486945311233285,0.9999217111404857,8.81997903167189e-05
-0.3343626102549024,-0.3343626102549024,0.999991095103425,8.828786726933865e-05
-0.3339093845206662,-0.3339093845206662,0.9998070597841492,8.856465311364417e-05
-0.332850472300197,-0.332850472300197,1.0000053673243847,8.822793554764243e-05
-0.3319172818075458,-0.3319172818075458,1.0000285911397933,8.825036732597013e-05
-0.33130079474576635,-0.33130079474576635,0.9999870085531442,9.031681306516143e-05
-0.3305876256999909,-0.3305876256999909,1.0000917772797664,8.824926921241499e-05
-0.329919608966884,-0.329919608966884,0.999878817239984,8.823414752693424e-05
-0.32936297000196646,-0.32936297000196646,1.0000117441833365,8.820351509776018e-05
-0.32822775331442244,-0.32822775331442244,0.9999307346848433,8.821495927157253e-05
-0.3273397448610922,-0.3273397448610922,1.0000733430586934,8.994651134227462e-05
-0.32662801983751705,-0.32662801983751705,0.9998023828995188,8.98687279295912e-05
-0.3258191312183044,-0.3258191312183044,1.0000646029021243,8.676944040963824e-05
-0.3253591585846152,-0.3253591585846152,0.9998402996566316,8.818112337727269e-05
-0.32450224287458695,-0.32450224287458695,1.0001492801947083,8.825155815975138e-05
-0.3235980553276022,-0.3235980553276022,0.9998516021338668,8.991724572017499e-05
-0.3229249634954613,-0.3229249634954613,0.9999016819807414,9.003762830370734e-05
-0.32221723535622004,-0.32221723535622004,1.0001262751741495,8.990244545755258e-05
-0.32134740543406226,-0.32134740543406226,1.0000676112033815,8.659020744595741e-05
-0.32087186871431184,-0.32087186871431184,1.0000903491447937,8.820308556626197e-05
-0.3196931900871277,-0.3196931900871277,1.0000102855234279,8.821978516331786e-05
-0.31899315839254994,-0.31899315839254994,0.9999728430707309,9.15972444839855e-05
-0.31820051508111646,-0.31820051508111646,0.9998856734499839,8.823402433332409e-05
-0.3170957068512507,-0.3170957068512507,0.9999698605332255,9.159280236319131e-05
-0.31682308006347737,-0.31682308006347737,1.0000135680742828,8.479606584584437e-05
-0.31637897186374175,-0.31637897186374175,1.000037967329232,9.172109541454852e-05
-0.3154253141954541,-0.3154253141954541,1.0000443873616076,8.82161547514313e-05
-0.3146819872614287,-0.3146819872614287,1.000024581757414,9.160599384306867e-05
-0.31409928871289594,-0.31409928871289594,1.0000053369428312,8.955405500179952e-05
-0.31347400311133244,-0.31347400311133244,1.0000624519661987,8.82342324199727e-05
-0.31256885365073683,-0.31256885365073683,1.000266907446879,8.994932778197447e-05
-0.31238863468825,-0.31238863468825,1.000089141484372,8.649119537845878e-05
