time,time,flux,flux_err
-0.49815807984268756,-0.49815807984268756,0.9999897842507842,5.0062221465434915e-05
-0.49657535266305786,-0.49657535266305786,1.000058607875511,5.025196244821448e-05
-0.49500074667448646,-0.49500074667448646,0.999947118770627,5.004683220622448e-05
-0.4926437226036796,-0.4926437226036796,1.000008141359515,5.013907935230967e-05
-0.4898404594161548,-0.4898404594161548,0.9999643001732395,5.013209385784088e-05
-0.4887014145788271,-0.4887014145788271,0.999983577644356,4.995587602116897e-05
-0.4869687686499674,-0.4869687686499674,0.9999971686797637,4.9941268206290654e-05
-0.4842583829682553,-0.4842583829682553,0.9999242345942413,5.013248692027554e-05
-0.4824743290460901,-0.4824743290460901,0.9999476653860647,4.993907595480908e-05
-0.4807153723697411,-0.4807153723697411,0.999946028898328,5.023966534292558e-05
-0.47717608662787825,-0.47717608662787825,0.9999443594625006,5.011980110974372e-05
-0.47594816811033525,-0.47594816811033525,0.999981851349288,4.994229173778714e-05
-0.4738968876947183,-0.4738968876947183,0.9999635853356008,4.9952269533064784e-05
-0.4722245992394164,-0.4722245992394164,0.9999985409403976,4.9949502909876604e-05
-0.47067458570527376,-0.47067458570527376,0.9999861654258643,5.013495559359905e-05
-0.46876661338028497,-0.46876661338028497,1.0000161803587815,5.0044773433347014e-05
-0.4643945740332128,-0.4643945740332128,0.999997742889515,4.9949634233143976e-05
-0.463093482752447,-0.463093482752447,0.9998965831328365,5.007065167321341e-05
-0.4610562021844089,-0.4610562021844089,1.0000375781656625,4.9967820704359464e-05
-0.45925955684215297,-0.45925955684215297,0.999914024930133,4.9943132398867185e-05
-0.45779093481542077,-0.45779093481542077,1.0000240625795773,5.012052584683651e-05
-0.4564751798461657,-0.4564751798461657,0.9999742928999646,5.004058063086597e-05
-0.45307852179394104,-0.45307852179394104,0.9999755937458037,4.996685159436373e-05
-0.4504942526487866,-0.4504942526487866,1.000040986897299,5.006965411268778e-05
-0.4487984860665165,-0.4487984860665165,1.0000649073430512,4.9953741343511055e-05
-0.44652248843049164,-0.44652248843049164,0.9999627357193649,4.995716593786154e-05
-0.44525226470432244,-0.44525226470432244,1.0000195390509479,4.995836627477694e-05
-0.44359678866458124,-0.44359678866458124,0.9999401565326516,5.0041867575707345e-05
-0.44088524630933534,-0.44088524630933534,1.0000285710095462,5.011199840332894e-05
-0.4378219217644073,-0.4378219217644073,1.0000080481130407,4.994331197479869e-05
-0.4356810510595096,-0.4356810510595096,1.000066731333585,4.996580672828221e-05
-0.4340889272803906,-0.4340889272803906,1.0000513537737068,4.9946776227998354e-05
-0.4329206119116861,-0.4329206119116861,1.0000265077525452,4.994579174159791e-05
-0.4309463763202075,-0.4309463763202075,1.0000002293552743,5.004393216020017e-05
-0.4274915843299823,-0.4274915843299823,0.9999237759267068,4.995492631937718e-05
-0.4250891734205652,-0.4250891734205652,1.0000173288779008,4.99446497659229e-05
-0.42349645851936657,-0.42349645851936657,0.9999194203234276,4.994978892858247e-05
-0.421301785914693,-0.421301785914693,1.0000291329813538,4.994487580939911e-05
-0.42013331564667167,-0.42013331564667167,0.9999302667345857,4.994208436395044e-05
-0.4181642064271728,-0.4181642064271728,1.0000326440673666,5.004560502238046e-05
-0.4147025159385521,-0.4147025159385521,1.0001350184146935,4.9959080178424596e-05
-0.41217352884996217,-0.41217352884996217,1.0000135120233489,4.9943555658992105e-05
-0.4104346332664136,-0.4104346332664136,0.9999624050309557,4.995049677184385e-05
-0.408514661109075,-0.408514661109075,1.0000575820726316,4.994528953266283e-05
-0.40734826229163446,-0.40734826229163446,0.9999690031297167,4.995148565395661e-05
-0.40563638803432694,-0.40563638803432694,1.0000056734533271,4.994055019325696e-05
-0.4025741145858774,-0.4025741145858774,0.9999095748360649,5.0033666927580775e-05
-0.40019413972331674,-0.40019413972331674,1.0000027794822353,5.094333522929612e-05
-0.39858328585105485,-0.39858328585105485,0.9999951684311936,4.9935690153654056e-05
-0.39612266641343014,-0.39612266641343014,0.9999705519094787,4.994543407932542e-05
-0.39502422939112875,-0.39502422939112875,0.9999784254602417,4.9943939075398416e-05
-0.3932177128299372,-0.3932177128299372,1.0000273889137472,4.9941404893585485e-05
-0.3915233335806988,-0.3915233335806988,1.000028854754571,5.0169801574072424e-05
-0.3895327068865299,-0.3895327068865299,0.9999688333027782,4.997435772513526e-05
-0.3873788199765841,-0.3873788199765841,0.9999992388240855,4.995906623638883e-05
-0.3848985651973635,-0.3848985651973635,1.0000601170802643,4.9949712637874946e-05
-0.38304569834435825,-0.38304569834435825,1.0000591997140016,4.993995819845734e-05
-0.3822074481053278,-0.3822074481053278,0.999973237200722,4.993780967335109e-05
-0.38055745476449376,-0.38055745476449376,1.000042715937028,4.9958263451221625e-05
-0.37968790808226915,-0.37968790808226915,1.000049510963994,5.003679841767572e-05
-0.37680092407972554,-0.37680092407972554,0.9999785439023157,5.009627201662326e-05
-0.3745550314633874,-0.3745550314633874,1.0000286994184702,4.9961680481982955e-05
-0.371739894329221,-0.371739894329221,1.000050655702976,4.9948188322798975e-05
-0.37008660748542754,-0.37008660748542754,0.9999953580815223,4.9944359136869266e-05
-0.36904202148143667,-0.36904202148143667,1.0000724164810735,4.993377791126727e-05
-0.3674552165757632,-0.3674552165757632,1.0000521530206925,4.995682875980239e-05
-0.3654693002201384,-0.3654693002201384,0.9999829476998496,5.0053727138792026e-05
-0.36230058830406053,-0.36230058830406053,0.9999669593589642,4.9964692761400814e-05
-0.35962933385453655,-0.35962933385453655,1.0001101831607813,4.994495215011892e-05
-0.35762032922939396,-0.35762032922939396,0.9999480461709874,4.9936445046277396e-05
-0.35663979619275776,-0.35663979619275776,0.9999436839162772,4.993679934374068e-05
-0.3550972169963643,-0.3550972169963643,0.999970204921057,4.993603625053888e-05
-0.35411068032553883,-0.35411068032553883,1.0000194072575954,4.994216034426855e-05
-0.35094206418434626,-0.35094206418434626,0.9999763239794254,5.005967633557063e-05
-0.34853121840569656,-0.34853121840569656,0.9999886702891405,4.994662471344665e-05
-0.34601926802715754,-0.34601926802715754,1.0000216638434678,4.9954500456987615e-05
-0.3443506472365698,-0.3443506472365698,1.0000264576850153,4.99273286894785e-05
-0.34351384353940373,-0.34351384353940373,1.0000081358268684,5.011922480186838e-05
-0.34188734636991286,-0.34188734636991286,0.9999824577821244,4.9945048006217013e-05
-0.34058037158392834,-0.34058037158392834,1.0000094674926334,5.0055980245366344e-05
-0.336766965087736,-0.336766965087736,1.0000304317922672,4.9956518472246494e-05
-0.3346746820985572,-0.3346746820985572,1.0000271694970997,4.993624047345518e-05
-0.33263401401345616,-0.33263401401345616,1.0000256480577738,4.994636749716696e-05
-0.331417685787892,-0.331417685787892,1.0000268677833832,4.993119882823852e-05
-0.33018444005283526,-0.33018444005283526,1.0000359152372904,4.99379675838189e-05
-0.3287022651231382,-0.3287022651231382,1.0000979139655244,4.99460461558172e-05
-0.32764912738639396,-0.32764912738639396,1.0000393995065224,5.006082302292263e-05
-0.32317709356721025,-0.32317709356721025,0.9999387725463584,4.995871493797332e-05
-0.32088517931406385,-0.32088517931406385,0.9999323758389659,4.9947968748348814e-05
-0.318967056076508,-0.318967056076508,1.000043634274282,4.993101280653797e-05
-0.31827520100632684,-0.31827520100632684,0.9999923531368953,4.994826413831972e-05
-0.31701362709281966,-0.31701362709281966,0.9999773059198418,4.994841160544445e-05
-0.31573872616572773,-0.31573872616572773,1.0000256695475405,5.003329420865787e-05
-0.31368547332822344,-0.31368547332822344,0.999984065157198,4.996787809568251e-05
-0.3103931773774093,-0.3103931773774093,0.9999657672690404,4.995945428528269e-05
-0.30814829100854696,-0.30814829100854696,1.0000119641933547,4.993718097413782e-05
-0.30599153941439,-0.30599153941439,1.000019476556844,4.992781574035662e-05
-0.30527317081869115,-0.30527317081869115,0.9999701870671919,4.994736547345877e-05
-0.3037597007089062,-0.3037597007089062,0.9999525249818781,4.9950437540446035e-05
-0.30282529979303946,-0.30282529979303946,0.9999959014839842,5.0036209705157814e-05
-0.30161201020819134,-0.30161201020819134,0.9999787040390433,4.996812956833131e-05
-0.29857207568420563,-0.29857207568420563,1.0000158310865606,4.9967595961265646e-05
-0.29628039317613003,-0.29628039317613003,0.9999713855080511,5.009169095729857e-05
-0.2936727061198326,-0.2936727061198326,0.9999822075621914,4.9936680110063364e-05
-0.292932183900848,-0.292932183900848,1.0000187628129094,4.994759473502863e-05
-0.291753041325137,-0.291753041325137,1.0000559087314769,4.9936487822211395e-05
-0.2903204763220856,-0.2903204763220856,1.0000101744567644,5.0041812653382715e-05
-0.28947733899403827,-0.28947733899403827,1.000058648838414,4.9936797991914956e-05
-0.2885475379036507,-0.2885475379036507,1.0000250772221504,4.994857569515416e-05
-0.28626207920897284,-0.28626207920897284,1.000003225617951,4.9975023359550055e-05
-0.2834844702709233,-0.2834844702709233,1.0000374414687463,4.99594752519828e-05
-0.2823410010692896,-0.2823410010692896,1.0000674173720143,4.994226307663512e-05
-0.2808261361875338,-0.2808261361875338,0.9998974369860114,4.994572196029573e-05
-0.2801460864691762,-0.2801460864691762,0.9999588424406873,4.994594382437968e-05
-0.27896549155120737,-0.27896549155120737,0.9999730835010879,4.993322237029815e-05
-0.2776905055565294,-0.2776905055565294,0.9999975181949095,5.0083576670309535e-05
-0.276793484686641,-0.276793484686641,1.0000646570862208,5.004068602980716e-05
-0.2759118401678279,-0.2759118401678279,1.0000233219426125,4.995232256512891e-05
-0.27392383085389155,-0.27392383085389155,0.999948675577419,5.014014260969503e-05
-0.2710398252704181,-0.2710398252704181,1.000046272746188,4.994544441874425e-05
-0.2690567831858061,-0.2690567831858061,0.9999875408582755,4.9976206577358596e-05
-0.26763257790880746,-0.26763257790880746,1.0000344328794857,4.992820344715316e-05
-0.26705682461033575,-0.26705682461033575,1.0000868395331624,4.9948565618849504e-05
-0.26557336808182297,-0.26557336808182297,1.0000302369267875,5.0090519988655856e-05
-0.2645203260181006,-0.2645203260181006,1.0000300082530889,5.0032158809909164e-05
-0.26366482662560886,-0.26366482662560886,1.0000246996679647,4.9944181022010066e-05
-0.262726350891171,-0.262726350891171,1.0000809902172456,5.0005464654052024e-05
-0.2612219493632438,-0.2612219493632438,1.000066836929544,5.0120105820981495e-05
-0.2588112236058805,-0.2588112236058805,1.000053004854188,4.9953879837197626e-05
-0.25696624981646893,-0.25696624981646893,0.9998995876150527,4.995716871927578e-05
-0.25514449318288823,-0.25514449318288823,1.0000705330260757,4.9947040808127644e-05
-0.25442767394997645,-0.25442767394997645,1.0000346805547267,4.99510136327943e-05
-0.25309061662701426,-0.25309061662701426,0.9998791571437616,4.9941991763216434e-05
-0.2517428763647331,-0.2517428763647331,1.0000637863392334,5.018958806743302e-05
-0.2510759361932287,-0.2510759361932287,0.9999355776183393,4.99402991113773e-05
-0.25033675915037745,-0.25033675915037745,1.0000041164842346,4.998647157002021e-05
-0.24909359908197076,-0.24909359908197076,1.0000213199317503,5.012567865574707e-05
-0.24725462500937284,-0.24725462500937284,0.9999542878701858,4.994975967789688e-05
-0.24522196608886587,-0.24522196608886587,1.000046851358367,4.995981549924505e-05
-0.24379885636735707,-0.24379885636735707,1.0000787870677117,4.997889597148764e-05
-0.24212860602128786,-0.24212860602128786,0.9999538452169661,4.9924747338625424e-05
-0.2415778183029033,-0.2415778183029033,0.9999277375777081,4.994590238337715e-05
-0.2405705309123732,-0.2405705309123732,0.9999989363690279,4.9948777668440586e-05
-0.23918193395948037,-0.23918193395948037,1.000045032150643,5.0196999476781664e-05
-0.23838528589112684,-0.23838528589112684,1.0000334364839507,4.99416184261231e-05
-0.23770394575840328,-0.23770394575840328,1.0000149306551518,5.0159574016503125e-05
-0.2363074678956764,-0.2363074678956764,1.0000711004941087,5.012883410177938e-05
-0.23402840888302306,-0.23402840888302306,0.9999730452124126,4.996685952578669e-05
-0.232180510944454,-0.232180510944454,1.0000106614163164,4.9962613908104806e-05
-0.23021180420764722,-0.23021180420764722,0.9999201807535089,4.995512011915066e-05
-0.22891987223702018,-0.22891987223702018,0.9999282501821402,4.994091548175162e-05
-0.22801205980649683,-0.22801205980649683,1.0000143447271326,5.0127313510226436e-05
-0.227015784921241,-0.227015784921241,0.9999503033399237,5.009932136621629e-05
-0.2260519262315938,-0.2260519262315938,1.000032126890379,5.005430349925826e-05
-0.22550120266387239,-0.22550120266387239,0.9999316706431294,4.9938924285363024e-05
-0.22438856684602798,-0.22438856684602798,1.000093675343003,4.998495338035454e-05
-0.22271951997827272,-0.22271951997827272,1.0000427054418028,5.0118285109733765e-05
-0.22031889612262603,-0.22031889612262603,0.9999688844288082,4.996487499369422e-05
-0.21790739625284913,-0.21790739625284913,1.0000098790254612,4.9971763906187614e-05
-0.21632925943122244,-0.21632925943122244,1.0000444023395023,4.9944753480449124e-05
-0.21542607409064657,-0.21542607409064657,1.0000006585567989,4.997042383664698e-05
-0.21440274787601082,-0.21440274787601082,0.999963010228359,4.994352178571015e-05
-0.21325911068415734,-0.21325911068415734,1.0000138068154212,5.018303113202698e-05
-0.21258925971342252,-0.21258925971342252,1.0000616053734244,4.995112247455984e-05
-0.21180662437400316,-0.21180662437400316,0.999974221440862,4.999112485351387e-05
-0.20977785622235387,-0.20977785622235387,1.0000660014463867,4.9958225482113224e-05
-0.2073809758410789,-0.2073809758410789,1.00005292818098,4.9950843520791744e-05
-0.20539685233379715,-0.20539685233379715,1.000060583303645,5.011267617819987e-05
-0.2034515295352321,-0.2034515295352321,1.0000579811925214,4.9933512086326466e-05
-0.20184625332185532,-0.20184625332185532,1.0000192803863164,4.996275259234195e-05
-0.200841953404597,-0.200841953404597,1.0000536380997835,5.02068241576468e-05
-0.20014454195043072,-0.20014454195043072,0.9999490674726221,4.993509908009201e-05
-0.19946794104471338,-0.19946794104471338,0.9999667066258245,4.994801115407108e-05
-0.19791626337682827,-0.19791626337682827,0.9999195307092782,5.000925004505317e-05
-0.1964800919726258,-0.1964800919726258,1.0000376575177161,5.008834015064879e-05
-0.19460012233466842,-0.19460012233466842,1.000044951667856,4.9975399435917056e-05
-0.19238887249084655,-0.19238887249084655,0.9999991553391734,5.0019485677041787e-05
-0.1903620756987948,-0.1903620756987948,0.9999473089297869,4.9957035653314485e-05
-0.18888841574662366,-0.18888841574662366,1.0000072392097776,4.9941747194893396e-05
-0.1874610245344229,-0.1874610245344229,0.999966589068333,5.00171901133673e-05
-0.18683482957421801,-0.18683482957421801,1.0000131422278424,4.996033058084368e-05
-0.18557670108275487,-0.18557670108275487,1.0000217422843465,4.99984159556588e-05
-0.18349936867889483,-0.18349936867889483,1.000000074229047,5.009695020039449e-05
-0.18171690019080416,-0.18171690019080416,1.000002485329865,4.996490870996516e-05
-0.17944785491854418,-0.17944785491854418,1.000000548560316,5.002918583690602e-05
-0.1778353280707961,-0.1778353280707961,0.9999417154806608,4.9947382633221373e-05
-0.1761542686726898,-0.1761542686726898,0.9999800928894149,4.9990412242970765e-05
-0.17467660130641888,-0.17467660130641888,1.0000102275855218,5.001770273500864e-05
-0.17404942128050607,-0.17404942128050607,1.000074836082529,4.9962299261587916e-05
-0.17279070560762194,-0.17279070560762194,1.0000458731000108,4.9998269425125484e-05
-0.17073054542415775,-0.17073054542415775,1.000006684060684,5.0082919493013846e-05
-0.16986982541857287,-0.16986982541857287,0.9999584263914925,5.012408499212198e-05
-0.16749870544299483,-0.16749870544299483,0.9999717350944348,5.0073123396843247e-05
-0.1658025832439307,-0.1658025832439307,1.0000381205034008,5.012217513267635e-05
-0.1631980400212342,-0.1631980400212342,1.0000029457273008,5.0030294050628926e-05
-0.16171972908778115,-0.16171972908778115,1.0000433651995766,4.993707368378857e-05
-0.16084570892562625,-0.16084570892562625,1.000066228264405,4.9972332618272764e-05
-0.1589462369447574,-0.1589462369447574,1.0000149336095965,5.002792660980733e-05
-0.1574477776797721,-0.1574477776797721,0.9999640208901777,4.996175292543327e-05
-0.15509584177634678,-0.15509584177634678,1.0000420574827422,5.018958780882863e-05
-0.15301532738667448,-0.15301532738667448,1.000034559801512,5.012096603492917e-05
-0.15119641924393362,-0.15119641924393362,1.0000377652166477,4.9939210775769414e-05
-0.14927515848830808,-0.14927515848830808,0.9999899382739663,5.003214287214921e-05
-0.14822978117445018,-0.14822978117445018,1.0000194014199395,4.9941825027210844e-05
-0.14616653093253262,-0.14616653093253262,0.9999940196998697,5.0027298330645236e-05
-0.14418674655316863,-0.14418674655316863,1.0000475788067773,5.0149734354226954e-05
-0.14166622347838712,-0.14166622347838712,1.0001049276506027,4.999408612713273e-05
-0.13915932789677754,-0.13915932789677754,0.9999612343469325,4.992699689483534e-05
-0.13659749676880892,-0.13659749676880892,1.0000718911137212,5.003294877252333e-05
-0.13560156779712998,-0.13560156779712998,1.0000076502701585,4.9958131690324225e-05
-0.1339161146664992,-0.1339161146664992,0.9999847272298277,5.0023134302275185e-05
-0.13188239594455808,-0.13188239594455808,1.0000727456167762,4.9966057882039035e-05
-0.1293175801896723,-0.1293175801896723,1.000028126776472,5.015851081370714e-05
-0.12724715601943898,-0.12724715601943898,1.0000216203928234,4.995939881337202e-05
-0.12510479696502444,-0.12510479696502444,1.000004411220022,4.9954711506625376e-05
-0.12342917804780881,-0.12342917804780881,1.0000205820316885,5.002307298137856e-05
-0.12249462958134245,-0.12249462958134245,0.9999991517415486,4.996493565503746e-05
-0.1206031187379267,-0.1206031187379267,1.0000597794892652,5.0025245085115454e-05
-0.11837444723641966,-0.11837444723641966,0.9999691313116894,5.011859270531557e-05
-0.11670285572472494,-0.11670285572472494,0.9999544676995278,4.997323993588478e-05
-0.11479537734703626,-0.11479537734703626,1.000122150235685,4.9951554444866887e-05
-0.11177526033425238,-0.11177526033425238,0.9999822974516807,5.0011604001305296e-05
-0.11003405648516491,-0.11003405648516491,0.9999422727858465,4.995685413475589e-05
-0.1082615435734624,-0.1082615435734624,0.9999503359753439,4.994921580738749e-05
-0.10509243835113011,-0.10509243835113011,1.00011720302087,5.012173174317742e-05
-0.10315433632931673,-0.10315433632931673,0.9999895582856702,4.99797275834408e-05
-0.10099403803469613,-0.10099403803469613,1.0000346738096775,4.9932818037684936e-05
-0.09788108659558929,-0.09788108659558929,0.999994980167967,5.002676998852198e-05
-0.09550522522768005,-0.09550522522768005,1.0000367120739306,4.992823187701131e-05
-0.09209470917121507,-0.09209470917121507,1.0000100705800556,5.017369580893096e-05
-0.09020298688847106,-0.09020298688847106,0.9999297784933734,4.9920107484918653e-05
-0.08882045262143948,-0.08882045262143948,1.0000538696927466,4.995203540843166e-05
-0.08545855693810153,-0.08545855693810153,1.000048161625696,5.002094787237649e-05
-0.08408396475715563,-0.08408396475715563,1.0000713263722207,5.009333913671061e-05
-0.08166563762060833,-0.08166563762060833,1.0000152951344279,4.994285060254508e-05
-0.07829176998056937,-0.07829176998056937,1.0001409205831013,5.021732656516359e-05
-0.07643508788605687,-0.07643508788605687,1.0000197511832674,4.9950381900853526e-05
-0.07322778637753799,-0.07322778637753799,1.0001046066815484,5.000273219070887e-05
-0.07156456237426027,-0.07156456237426027,0.999996070897855,4.99405565798004e-05
-0.06921857291308697,-0.06921857291308697,1.0000272382841469,4.994814524544371e-05
-0.0664240156125743,-0.0664240156125743,0.9999936056727288,4.992070795360507e-05
-0.06400384623848368,-0.06400384623848368,0.9999780681775945,5.0064591119583045e-05
