time,time,flux,flux_err
-0.4993526991602266,-0.4993526991602266,0.9999450876220252,0.00018066210676394043
-0.49818582895265234,-0.49818582895265234,0.9998833255506168,0.0001772874392421433
-0.496655060929091,-0.496655060929091,0.999955104330707,0.00018201413673932335
-0.4957301554240985,-0.4957301554240985,0.9998782868327029,0.00017223416768807665
-0.4952908888735692,-0.4952908888735692,0.999835905941632,0.0001597985396961522
-0.49432749629195316,-0.49432749629195316,1.0000465765809143,0.00015829814484490272
-0.49329052347602553,-0.49329052347602553,0.9999280360929472,0.00015853389948345927
-0.49265097132738445,-0.49265097132738445,1.0000396872952126,0.00016499976692741162
-0.4922716208573547,-0.4922716208573547,0.9998919406404939,0.00015755156648680432
-0.49172670687985376,-0.49172670687985376,1.0000124871168956,0.00015907084321566047
-0.4907088297652081,-0.4907088297652081,0.9997626277686665,0.00015839592552762823
-0.4900085012850468,-0.4900085012850468,0.9998537421817755,0.0001588373237905103
-0.48932247251505034,-0.48932247251505034,0.9999893410826572,0.00015916211411035373
-0.4889293864223873,-0.4889293864223873,1.000143011237956,0.00015678073941729006
-0.488477650549612,-0.488477650549612,1.0001463083662916,0.0001575611642870173
-0.4875442810065579,-0.4875442810065579,0.9999032981217064,0.00015839237795512638
-0.4866237597161671,-0.4866237597161671,1.0000068483837201,0.0001577724164292197
-0.48576010570832295,-0.48576010570832295,1.0000930864411948,0.00015969143690661326
-0.48495399188541344,-0.48495399188541344,1.0000480844397897,0.0001568366210077123
-0.48369588027271676,-0.48369588027271676,1.0001770146072273,0.00015939173252346646
-0.48273386221844705,-0.48273386221844705,1.0002368091639784,0.000162401351460325
-0.48229654203751127,-0.48229654203751127,1.0003605757289329,0.00015923681956772897
-0.4819360704728751,-0.4819360704728751,0.9999788296685068,0.00015752452086643565
-0.48105014838656646,-0.48105014838656646,0.9998917904857955,0.00015829019353096787
-0.4801380431599682,-0.4801380431599682,1.0000616349810725,0.0001583568266099562
-0.4792761699864059,-0.4792761699864059,1.0002255045119461,0.00015769901049919615
-0.4783344786643283,-0.4783344786643283,0.999926218143187,0.0001583015773616278
-0.4775021684297826,-0.4775021684297826,1.0000067485744526,0.00015838455474123222
-0.47644692436879266,-0.47644692436879266,0.9998269349665531,0.00016710024146062577
-0.4748429750528885,-0.4748429750528885,1.000070332776982,0.0001575993223472396
-0.4737712211514008,-0.4737712211514008,0.9999343149917568,0.0001577224819942154
-0.4725728702687775,-0.4725728702687775,1.0001889753257174,0.00015889162893965484
-0.4717795638047392,-0.4717795638047392,0.9999088753110362,0.00015900775218381303
-0.4711475176518434,-0.4711475176518434,0.9998960422145012,0.0001589916222902804
-0.4699198678295943,-0.4699198678295943,1.0000550068812246,0.00015773257260704533
-0.46939870240312304,-0.46939870240312304,0.9998657632927319,0.0001610062710914628
-0.4689052502479171,-0.4689052502479171,1.0000745149448058,0.0001639153812342037
-0.46852251872915074,-0.46852251872915074,0.9999498599021669,0.00015902662176610477
-0.4678251453835401,-0.4678251453835401,1.0001075107968167,0.00015912227319934508
-0.4670025035593426,-0.4670025035593426,1.0000466658456915,0.00015834302466253913
-0.46644814673491053,-0.46644814673491053,1.0001029171119602,0.0001586744569444426
-0.4656953270750819,-0.4656953270750819,0.999802032790759,0.0001570447880174436
-0.46534474040090573,-0.46534474040090573,1.0000271353863739,0.0001574868437307575
-0.4649591473105829,-0.4649591473105829,1.0002307101687102,0.0001567423302955406
-0.46397450472577473,-0.46397450472577473,0.9999911058922152,0.00015907392157516874
-0.46316789939446606,-0.46316789939446606,0.9998328436732205,0.00015844384283501763
-0.46220419487945036,-0.46220419487945036,0.9999632775375659,0.00015966778200237765
-0.4615371634645271,-0.4615371634645271,1.0001655019082487,0.00015609360076659833
-0.460468616039725,-0.460468616039725,1.0000945281981948,0.00015943107575037957
-0.459437544454704,-0.459437544454704,1.0004388258437795,0.00015840875928677497
-0.45863844993291425,-0.45863844993291425,1.0000435853007048,0.00015779561979574578
-0.4577166805887828,-0.4577166805887828,0.9999927232720589,0.00015831561145207405
-0.4565470577348606,-0.4565470577348606,1.0000026948436198,0.00015700250046515816
-0.4557287603704026,-0.4557287603704026,1.0001364961148809,0.0001650851107763784
-0.4550026209384669,-0.4550026209384669,0.9998355403819639,0.0001567806959811581
-0.4541454772450379,-0.4541454772450379,1.0000285585522546,0.00015847979609117697
-0.45337040104932386,-0.45337040104932386,0.9998887640024152,0.00015909066138518652
-0.4521420183853479,-0.4521420183853479,1.000027914336984,0.00015896447496161625
-0.45081828115944517,-0.45081828115944517,0.9998967642324399,0.0001583948960387032
-0.4497455547840218,-0.4497455547840218,1.0000562172340257,0.00015896230104172677
-0.4488474015452084,-0.4488474015452084,0.9999724067947605,0.0001666884184028042
-0.4479509141834569,-0.4479509141834569,0.9999751145394725,0.00015831768864923762
-0.44710466570104473,-0.44710466570104473,0.9997401459152504,0.0001639930132026479
-0.44616363158711464,-0.44616363158711464,0.999999005354969,0.00015771929561273455
-0.4452699545174255,-0.4452699545174255,1.000444120839701,0.00015765233013199698
-0.4448278377240058,-0.4448278377240058,0.9996187096321203,0.00016102116023008058
-0.44434472490829646,-0.44434472490829646,1.0000677103703854,0.00016030103678857995
-0.4433165019916487,-0.4433165019916487,0.9999642899995566,0.00015845399589689983
-0.44259842357132584,-0.44259842357132584,1.0001034480053008,0.00015780342758871173
-0.441877570633369,-0.441877570633369,0.9996668951019766,0.00015693839070725216
-0.4415344757202547,-0.4415344757202547,1.0001937398582519,0.00015742827234362648
-0.44070230781217107,-0.44070230781217107,0.9999629949664117,0.0001590164440296363
-0.439906885799428,-0.439906885799428,1.0000394651066884,0.00015843713044691045
-0.43902640146552585,-0.43902640146552585,0.9998519098809677,0.00015831425384941572
-0.4385226465587039,-0.4385226465587039,1.0001588371224266,0.00015714035773764311
-0.4378315142559586,-0.4378315142559586,1.0000572543408248,0.00015748192376008465
-0.43682591181132013,-0.43682591181132013,1.000026354106105,0.00015847270871064006
-0.4357865689715254,-0.4357865689715254,1.0000356941274626,0.00015846236957447825
-0.43516070963814857,-0.43516070963814857,1.0000436833311437,0.00015879083975942933
-0.4344308667074074,-0.4344308667074074,0.9999606278929651,0.00015685343936059458
-0.4332963926150114,-0.4332963926150114,0.9999269321958855,0.00015829795994343253
-0.4322215002786834,-0.4322215002786834,0.999938156390483,0.0001576533332882041
-0.43176080860430377,-0.43176080860430377,0.9996947825632588,0.0001641648944472662
-0.43094780294923113,-0.43094780294923113,0.9997876340592395,0.0001575848180460457
-0.4296268174657598,-0.4296268174657598,1.00004375730334,0.00015775345096461486
-0.4279328044925933,-0.4279328044925933,1.000142918126895,0.0001576614996242763
-0.42714703707315493,-0.42714703707315493,0.9999446838307817,0.0001583474607807647
-0.4261629973349045,-0.4261629973349045,1.0001054794972215,0.00015847612431438114
-0.42498769056692254,-0.42498769056692254,0.9998234373266595,0.00016543325820954106
-0.4241130423179129,-0.4241130423179129,1.0001684164047648,0.00015828441628302798
-0.42285037316469243,-0.42285037316469243,0.9997753046895042,0.00016151338912002517
-0.4219756002363283,-0.4219756002363283,1.0000342411190855,0.00015916157007153002
-0.4213377464024234,-0.4213377464024234,0.9999052714492717,0.00015823328948072571
-0.4208679996954743,-0.4208679996954743,1.0000973862886888,0.00015906213432362773
-0.42017774606647434,-0.42017774606647434,1.0002432636458787,0.0001590758400900491
-0.41906984911765904,-0.41906984911765904,0.9998177132400057,0.00015791413579254685
-0.4186136136951973,-0.4186136136951973,1.000275347137336,0.00016801129546279212
-0.41816288256231926,-0.41816288256231926,1.000059832150408,0.00015766243262969767
-0.41784123943361917,-0.41784123943361917,0.9998519083869082,0.00015746231247868174
-0.4168158843545825,-0.4168158843545825,1.0000898547854362,0.0001598605278975049
-0.4161024238783284,-0.4161024238783284,0.9997813720207003,0.0001576677215453383
-0.4151918215779006,-0.4151918215779006,1.000155194243503,0.0001570286652343855
-0.41451985448220513,-0.41451985448220513,0.9999023344684401,0.00015600554411911917
-0.4133905943846912,-0.4133905943846912,0.99973632353948,0.00015900939501600883
-0.4125713472792995,-0.4125713472792995,0.9999819333825712,0.00015890249595187407
-0.4116623046487803,-0.4116623046487803,1.0001045355349198,0.00015722177998377763
-0.4106941959442338,-0.4106941959442338,1.0001041442536205,0.00015685926402209143
-0.40954836540331596,-0.40954836540331596,0.9997734090281242,0.0001583095493222551
-0.40857958917622456,-0.40857958917622456,1.0001079238024357,0.00016133475126354276
-0.4076699915254721,-0.4076699915254721,0.9997331950142664,0.000156791174513488
-0.40638555122277464,-0.40638555122277464,1.000158410702585,0.0001577460253506179
-0.4050431992902304,-0.4050431992902304,1.0000398860113127,0.00016016420566632476
-0.40411207130673577,-0.40411207130673577,1.00015407874576,0.00015834158611142043
-0.4031264737932361,-0.4031264737932361,0.9999005368659327,0.00015774618667396573
-0.40197652837377973,-0.40197652837377973,0.9998520531860148,0.00015976713872416104
-0.40106384180253374,-0.40106384180253374,1.0000046298010716,0.00016650477885534284
-0.399757390927698,-0.399757390927698,0.9998829445453314,0.00016049559497399772
-0.3986110318248393,-0.3986110318248393,0.9999470665259466,0.00016009471000890058
-0.39806435899663484,-0.39806435899663484,0.9998454591049729,0.00015893094463499978
-0.39760453526250783,-0.39760453526250783,0.999919825223999,0.0001575955361855533
-0.39723189646756507,-0.39723189646756507,1.0001585825711692,0.00015908396048412913
-0.3961529455104028,-0.3961529455104028,0.9998489938386468,0.00015833679875819654
-0.395176738545706,-0.395176738545706,0.9999557030615043,0.0001584979760359125
-0.39459209020860725,-0.39459209020860725,1.0000127677971216,0.0001656864788421334
-0.3942519572694437,-0.3942519572694437,1.0000809983580354,0.00015748965407678635
-0.39333259021514094,-0.39333259021514094,0.9997642225352594,0.00015916009408149044
-0.3922991272425861,-0.3922991272425861,1.0001456356566991,0.00015765718192723948
-0.3916090644808719,-0.3916090644808719,1.0001685597892072,0.00016028345577236237
-0.3910940818284871,-0.3910940818284871,0.9999395982981051,0.00015615842286893685
-0.3906369963369798,-0.3906369963369798,1.0000820566629094,0.00015758159666100357
-0.38966565824230204,-0.38966565824230204,0.9999564830660994,0.0001590989191769123
-0.38916398520232176,-0.38916398520232176,0.9999718954238063,0.0001588807463621581
-0.3881685301777907,-0.3881685301777907,1.0003031468298296,0.00015774933903655574
-0.38728037775726987,-0.38728037775726987,1.0000387822121195,0.00015611253678290938
-0.3861117585154716,-0.3861117585154716,0.9998298426690218,0.00016017944878462157
-0.3853665166607243,-0.3853665166607243,0.9999952860645702,0.0001584954195567089
-0.3846916147405864,-0.3846916147405864,0.9997631761590295,0.00016285273018644506
-0.38426520779175916,-0.38426520779175916,0.9997351549659979,0.00015917313473372182
-0.38344222358136903,-0.38344222358136903,1.000255358812139,0.00015762294045822722
-0.38196253065107155,-0.38196253065107155,1.0000979721882712,0.00015635283451125525
-0.38108194761880443,-0.38108194761880443,0.9999156849094977,0.00015903177017243742
-0.3802785711915931,-0.3802785711915931,0.9999713963822925,0.00015765460309525892
-0.37929655259504214,-0.37929655259504214,0.9999413758035347,0.0001583777236117106
-0.3783256608658121,-0.3783256608658121,1.00007563452604,0.0001688561904111815
-0.3771735213245847,-0.3771735213245847,1.0000512114838391,0.00015650466614143755
-0.37579560064186807,-0.37579560064186807,0.9998710530147996,0.00015771186141928656
-0.37472358567756603,-0.37472358567756603,1.000111544470026,0.0001588692395967905
-0.37397261258156506,-0.37397261258156506,1.000078760686406,0.00015840168452328538
-0.37329867086518786,-0.37329867086518786,1.0000325955524023,0.00015892841838946315
-0.3719452406701748,-0.3719452406701748,1.000014170960592,0.0001577273124859377
-0.3713960639302968,-0.3713960639302968,1.0002527562181522,0.000166494946573429
-0.3708976341120433,-0.3708976341120433,1.0000309221451418,0.00015991851400056953
-0.3705322625188273,-0.3705322625188273,1.0000619833123028,0.000159030553257439
-0.36983744955359726,-0.36983744955359726,0.9997874146421619,0.00015912338056476452
-0.3688950559531804,-0.3688950559531804,1.0000144865347662,0.00015840233531283547
-0.36825078567053426,-0.36825078567053426,0.9999215920665285,0.00015800486714008752
-0.3675291079271119,-0.3675291079271119,1.0000905525565882,0.00015915899395462044
-0.3671907738345908,-0.3671907738345908,1.0001151947404723,0.00015751047411568126
-0.3662415330225485,-0.3662415330225485,0.9999256759625095,0.0001590516239633705
-0.3653674043176579,-0.3653674043176579,0.9998386629166003,0.0001584701940581244
-0.36436620765889527,-0.36436620765889527,1.000053733156081,0.00015976231013253427
-0.36383514236367775,-0.36383514236367775,0.9999053314091387,0.00015603767794958805
-0.3628471560557955,-0.3628471560557955,0.9998248251862094,0.00016824182359231188
-0.3622762053826591,-0.3622762053826591,0.9998768285511209,0.0001613670468419486
-0.36127689129207285,-0.36127689129207285,1.0001488588544867,0.00015838998116654356
-0.36069800582918105,-0.36069800582918105,1.000042001419526,0.00015806526447241276
-0.3600828431211994,-0.3600828431211994,0.999834429517319,0.00015679646176961127
-0.35909019016544336,-0.35909019016544336,1.0000375611616033,0.0001589278589210744
-0.35804325127246556,-0.35804325127246556,1.0000548254942725,0.00015704048225138938
-0.3574737583156093,-0.3574737583156093,1.0001969734535066,0.00016378527665083075
-0.3566440681155655,-0.3566440681155655,0.9999651749278321,0.00015765807954803876
-0.3556651341539691,-0.3556651341539691,1.0000194197390202,0.00015907857262318587
-0.35462293119344396,-0.35462293119344396,1.0001462282987812,0.0001569554016014543
-0.35304441406624393,-0.35304441406624393,0.9999907162085384,0.00015834947796107096
-0.3522460438471171,-0.3522460438471171,1.000035892948696,0.00015826124998265706
-0.351429466578702,-0.351429466578702,1.000081439428858,0.00016646590650970614
-0.3504796844179509,-0.3504796844179509,1.0000677954534836,0.00015822570093585023
-0.3495436405617511,-0.3495436405617511,0.9999621760418689,0.00016413663978393232
-0.34854000937048113,-0.34854000937048113,1.0000504536472579,0.0001583633555586297
-0.34765709368075476,-0.34765709368075476,1.0001216272135178,0.00015852891402707008
-0.3469753172554192,-0.3469753172554192,0.9999900528898099,0.00015823089480119796
-0.34648160438082415,-0.34648160438082415,1.0000658507276328,0.00015900082118663783
-0.3455348835399491,-0.3455348835399491,0.9999878303319262,0.0001591478455078295
-0.3448020228621317,-0.3448020228621317,1.0001495245546956,0.00015774764463819506
-0.34396114865812705,-0.34396114865812705,1.0002164183419393,0.00015697432308487132
-0.3435710957768606,-0.3435710957768606,0.9998285244431135,0.0001574784757833102
-0.3426168318022974,-0.3426168318022974,1.0001264010016115,0.0001590446092575285
-0.34173391402000564,-0.34173391402000564,1.0000181777088013,0.00015841242754208976
-0.3406991082505556,-0.3406991082505556,1.0002108590535816,0.0001565959532958488
-0.33992053004767514,-0.33992053004767514,1.0000562260619454,0.00015676515746080458
-0.33888400908035693,-0.33888400908035693,1.0001258756212492,0.00015861863032173216
-0.33801285390509295,-0.33801285390509295,0.9998883656392346,0.0001591295301700064
-0.3371502605237765,-0.3371502605237765,1.000062017300688,0.0001576685888387142
-0.3362578405838576,-0.3362578405838576,0.9999538926438722,0.00015752478491394268
-0.33505178989871637,-0.33505178989871637,1.0000989475305933,0.00015768845943232352
-0.33416409674682657,-0.33416409674682657,1.0003041935000012,0.00015757479856945279
-0.3337180827948032,-0.3337180827948032,0.9999701490804915,0.00016418178746277983
-0.33286410794680704,-0.33286410794680704,1.0001694105680166,0.00015841926806191495
-0.33181057678448267,-0.33181057678448267,0.99989543962771,0.00015836733985043696
-0.3303046127621201,-0.3303046127621201,1.0002897294458355,0.00015697441753358753
-0.3292291483143345,-0.3292291483143345,0.9999978621261582,0.0001591463775899454
-0.3283972069461015,-0.3283972069461015,1.0000390933992669,0.00015845254303325143
-0.32726466414314925,-0.32726466414314925,1.000159103071478,0.00016542746517037612
-0.3262272969572223,-0.3262272969572223,0.9997172634535577,0.00015826499759335398
-0.3252343657441088,-0.3252343657441088,1.0001832655224892,0.00016279755673165877
-0.32410208231012805,-0.32410208231012805,1.0001393636111042,0.00015845412519753055
-0.3233511198792257,-0.3233511198792257,1.0002546295659127,0.0001582651516414861
-0.32284719699673586,-0.32284719699673586,1.0000187462411594,0.00015899626127027658
-0.32210282295418435,-0.32210282295418435,1.000016747294559,0.00015905815503227525
-0.32109427367104215,-0.32109427367104215,1.0000339850675946,0.0001577313477764689
-0.32058170856325885,-0.32058170856325885,1.0000294220349382,0.0001587076412600284
-0.3201389356821892,-0.3201389356821892,1.0001939024644273,0.00015756489938522435
-0.3198350551814656,-0.3198350551814656,0.9998553988080957,0.00015744498136742105
-0.3187527458750992,-0.3187527458750992,1.0000066084993104,0.00015980669752924736
-0.31818477777414955,-0.31818477777414955,1.0002029110309103,0.0001583494970470519
-0.31731006273184903,-0.31731006273184903,1.0000599634608924,0.00015692538189244793
-0.3166626642589108,-0.3166626642589108,0.9999290280829092,0.00015621983461296097
-0.315602554641373,-0.315602554641373,1.0001388212684432,0.00015832816387057082
-0.3146865926566534,-0.3146865926566534,0.9999746197895268,0.00015901922770711655
-0.3138638889970025,-0.3138638889970025,0.9998513932465313,0.00015762876380985615
-0.3132467748771887,-0.3132467748771887,0.9998991337808609,0.00015728590532810148
-0.31218312263663395,-0.31218312263663395,1.0000353219950846,0.00015901657654460825
-0.3114021355897421,-0.3114021355897421,1.0000129935722755,0.00015858974227201173
-0.3104603967993171,-0.3104603967993171,1.0003355841773058,0.00016379349426890924
-0.30973993536026684,-0.30973993536026684,1.0002656492633561,0.0001568127964789101
-0.3085198291460983,-0.3085198291460983,0.9999994911710003,0.0001577335319361888
-0.30720782169082667,-0.30720782169082667,0.999959815254849,0.00015779652789011216
-0.3060502551117679,-0.3060502551117679,0.9998625204401949,0.00015832614000625851
-0.3055298154838965,-0.3055298154838965,0.9997470406226814,0.0001583234444369404
-0.3043724905757699,-0.3043724905757699,0.9999336104466151,0.00015776662861864343
-0.3031315879983595,-0.3031315879983595,1.0000124633169771,0.00016555671102340955
-0.30207230456289835,-0.30207230456289835,1.0002207387722666,0.0001617440873145688
-0.30078246635239336,-0.30078246635239336,1.0002555009598149,0.000158519819853773
-0.2998836993094301,-0.2998836993094301,0.9999472786296331,0.0001582659378365132
-0.2994311756265233,-0.2994311756265233,1.00003783985294,0.00015827764736078354
-0.2989685537002515,-0.2989685537002515,1.0000686961262049,0.00015974081475855805
-0.29761655136971965,-0.29761655136971965,1.0000080816657126,0.00015772325035417307
-0.29711414339690234,-0.29711414339690234,1.0001088381683043,0.00015872267327721198
-0.29669728684966684,-0.29669728684966684,1.0001457209990607,0.00016611427501005003
-0.29629290372831746,-0.29629290372831746,1.0001734238599942,0.00015681187787902373
-0.2951145102357259,-0.2951145102357259,1.000097672498804,0.00015986981843343356
-0.2944056832959177,-0.2944056832959177,1.0000974469987154,0.00015762243009122837
