time,time,flux,flux_err
-0.49973909138489037,-0.49973909138489037,1.0001939118318408,0.0019434111115191922
-0.49929146957001647,-0.49929146957001647,0.9972320461063982,0.0019445350974999897
-0.49857150383049886,-0.49857150383049886,1.0013587450247345,0.0024030856713406178
-0.49821778960840674,-0.49821778960840674,1.0014362955364497,0.0019317317886354854
-0.4975462833293932,-0.4975462833293932,1.0010704558254702,0.0019305728413809592
-0.4969452937376445,-0.4969452937376445,1.0005716564339853,0.0016971443690694823
-0.4961426293648401,-0.4961426293648401,1.0000960524353755,0.0021427587936750196
-0.4952038314867423,-0.4952038314867423,1.0018053745194504,0.002349981438267734
-0.4943077479749263,-0.4943077479749263,1.0006040234487066,0.0019304941085587952
-0.4932422444401709,-0.4932422444401709,0.9987761149438837,0.0019324797576315213
-0.49210377189419885,-0.49210377189419885,0.9995353705648201,0.001933947764123337
-0.49127599525145343,-0.49127599525145343,0.999493099392307,0.0019336877222653765
-0.49041781088926656,-0.49041781088926656,1.0020239647145481,0.0019316282158080163
-0.4896159933412491,-0.4896159933412491,0.9998453468439852,0.0019311970531810739
-0.48890159090533414,-0.48890159090533414,1.0002561154623697,0.0016970751877864016
-0.488466668732417,-0.488466668732417,1.0011598058476718,0.002343001760280283
-0.4879501622484895,-0.4879501622484895,1.000407128586362,0.0018108859894167555
-0.4873327485561276,-0.4873327485561276,1.0000018466610228,0.002333973351965277
-0.48698291336968397,-0.48698291336968397,0.9991596408832523,0.001696819099255521
-0.486160466866113,-0.486160466866113,0.9995618814979537,0.0021399866596442285
-0.4855747094500657,-0.4855747094500657,1.000042349800195,0.0016966171119620413
-0.48466996865226974,-0.48466996865226974,0.9985703302599621,0.0021410659465642104
-0.48388254165483885,-0.48388254165483885,0.9999992014672593,0.0021580313466438585
-0.4827595876850864,-0.4827595876850864,0.9997684333416188,0.0019293329225490412
-0.4816667230622443,-0.4816667230622443,1.0015375517601393,0.0019320685194599858
-0.4807316630387504,-0.4807316630387504,0.9994264811067394,0.002142260936345063
-0.4797915442750309,-0.4797915442750309,0.9992743585020947,0.0019325452751663928
-0.47903745955272825,-0.47903745955272825,0.9992230048860075,0.0016976722551226785
-0.47824200939967343,-0.47824200939967343,0.9999164108472074,0.0019326041778085286
-0.47762745396521494,-0.47762745396521494,0.9997461562098641,0.0019456306763188762
-0.4772583473884879,-0.4772583473884879,0.9991814125253701,0.0021511328916951245
-0.47654554554483186,-0.47654554554483186,1.002077091027871,0.0022287460637416927
-0.476135660280579,-0.476135660280579,0.9989320496857417,0.002141815169276311
-0.4755704724138923,-0.4755704724138923,0.9998320837795868,0.0016972500720206728
-0.4748977844381443,-0.4748977844381443,0.9996112636416414,0.0019332736884288537
-0.47418789443272547,-0.47418789443272547,1.0005049867964095,0.002141792262036822
-0.4731996404223537,-0.4731996404223537,1.0002289694991322,0.0021568108423394463
-0.47238589208800474,-0.47238589208800474,0.9997441748909047,0.001931194985686562
-0.47131363642074575,-0.47131363642074575,1.0001103425787519,0.0019313139476239707
-0.470141052146937,-0.470141052146937,1.0009313826528836,0.001932235364527035
-0.4693333993066517,-0.4693333993066517,0.9993636279140763,0.0019317524904832763
-0.468408345453463,-0.468408345453463,1.0006749087044644,0.0021426464208645626
-0.4676163104524676,-0.4676163104524676,0.9990321404134864,0.0019321804049850073
-0.466881618757543,-0.466881618757543,1.0001654496749366,0.001424408540752152
-0.46639400668773306,-0.46639400668773306,0.9988344663582271,0.002343187965788504
-0.46595108829869786,-0.46595108829869786,0.9995225425290306,0.0018174086493172117
-0.4652511425841112,-0.4652511425841112,1.0002086584781726,0.002334177034148736
-0.46492085598465566,-0.46492085598465566,1.0012968282800534,0.001930931521622189
-0.46415866933784855,-0.46415866933784855,0.9977660421890688,0.0021386527343320075
-0.4635971412685649,-0.4635971412685649,0.9976839140228833,0.0014236152102697851
-0.4627254474010442,-0.4627254474010442,0.9993315526420338,0.00214145729810619
-0.461830668980474,-0.461830668980474,0.9986951633943238,0.0023455746936862807
-0.4608873441741707,-0.4608873441741707,1.0004928279899816,0.001931443512339907
-0.45973254276350417,-0.45973254276350417,0.9994953134388599,0.0019310435034475728
-0.45873104251204494,-0.45873104251204494,1.0012429877045155,0.0021417673904559472
-0.4578421436858662,-0.4578421436858662,0.9998020669674036,0.0019329446341864822
-0.45706975600214717,-0.45706975600214717,0.9991112050624619,0.0016975045454015215
-0.4562181967403376,-0.4562181967403376,1.0007112012778183,0.0019327507644455952
-0.4555820603049142,-0.4555820603049142,1.0005430831335758,0.0019301109840617382
-0.455173937795189,-0.455173937795189,1.0004376645406152,0.002164192168871584
-0.4545624209458765,-0.4545624209458765,1.0006572987312092,0.0020360795208135096
-0.4540545247864429,-0.4540545247864429,0.9988946436920509,0.002330685921902334
-0.45359353515896145,-0.45359353515896145,1.0006575860453188,0.0014243305894748343
-0.45282944103482803,-0.45282944103482803,1.002393854172506,0.002141495138824918
-0.45219287623422133,-0.45219287623422133,1.00036556799533,0.0019331515055222074
-0.45124791850512336,-0.45124791850512336,1.0010509154272786,0.0021404258969989634
-0.45046718116936973,-0.45046718116936973,1.0000171399578075,0.0019488849070975884
-0.44935751266866647,-0.44935751266866647,0.9985172044068008,0.0019304042733808296
-0.44819534526850474,-0.44819534526850474,1.0007188027181777,0.0019312483489744218
-0.44739692249113433,-0.44739692249113433,0.9997263198025441,0.00214184114542832
-0.4463775722227183,-0.4463775722227183,1.0011031422097538,0.0021419542009986645
-0.44564023157317934,-0.44564023157317934,0.9985834644070456,0.0016978855086628136
-0.4448673954530932,-0.4448673954530932,0.9988497262158118,0.0016970073690754724
-0.44432448174538874,-0.44432448174538874,0.9995714483422902,0.002157215740461881
-0.4439189962222372,-0.4439189962222372,1.0001780654255998,0.001940035571613741
-0.4431995346213625,-0.4431995346213625,1.0001379614941048,0.0024240718629868754
-0.44284526812525654,-0.44284526812525654,0.9984263639053402,0.0019326853508691779
-0.4421737927535105,-0.4421737927535105,0.9999804432294173,0.0019312427535931119
-0.44157270386076564,-0.44157270386076564,1.0013562142693384,0.0016987722434758656
-0.4407705078924664,-0.4407705078924664,0.999704963411884,0.0021414665614020766
-0.43983171427698836,-0.43983171427698836,1.00097607486572,0.0023442918419733618
-0.43893519461989855,-0.43893519461989855,1.0006180249034293,0.001931081603850315
-0.4378698050143612,-0.4378698050143612,0.9991790166714833,0.0019295230629238283
-0.43673107043341586,-0.43673107043341586,0.9978390830758647,0.0019321748416503328
-0.4359032381846191,-0.4359032381846191,0.9991590061333347,0.0019336186998575888
-0.4350453269966238,-0.4350453269966238,1.0009622698518494,0.001932749765402075
-0.434243414395678,-0.434243414395678,0.999911050744028,0.0019334192299541274
-0.4335287002437326,-0.4335287002437326,0.9988842641992914,0.0016972377968458422
-0.43309476509530215,-0.43309476509530215,0.9977606651541201,0.0023465489765452253
-0.43257731499961666,-0.43257731499961666,1.0021989635525035,0.0018332884480779421
-0.43196072797336454,-0.43196072797336454,0.9994502387442171,0.002332912499835076
-0.43161006261607326,-0.43161006261607326,0.9985513563784194,0.0016963865354430421
-0.4307884528784598,-0.4307884528784598,0.9991494453064662,0.0021423662725599166
-0.430201874053364,-0.430201874053364,1.0007752023988516,0.0016971854484267447
-0.42929775572129075,-0.42929775572129075,1.0016806749036025,0.002141664929875398
-0.428510168543653,-0.428510168543653,0.9988920468901414,0.0021540457150975244
-0.4273872994688645,-0.4273872994688645,1.000544622002625,0.0019309182197961017
-0.4262941373885042,-0.4262941373885042,1.0001058332770278,0.001932982725316257
-0.4253591294657781,-0.4253591294657781,1.001129865713081,0.0021437843917940674
-0.4244188810725973,-0.4244188810725973,0.9998346439794691,0.001932103896936334
-0.42366467000492775,-0.42366467000492775,0.9985278129201769,0.0016975018111929922
-0.42286945442501744,-0.42286945442501744,1.0000249464017283,0.0019333348593735325
-0.4222548252202614,-0.4222548252202614,1.0002589422431907,0.0019501579294648474
-0.42188604990433304,-0.42188604990433304,1.0010575064627,0.002146961805693873
-0.42117342573556016,-0.42117342573556016,1.0003128828238161,0.0022501547420029056
-0.4207633494592301,-0.4207633494592301,1.0014515990722903,0.002141639674822094
-0.42019766578569034,-0.42019766578569034,1.0013279269425734,0.0016957524053244188
-0.41952540151014545,-0.41952540151014545,0.9999038131902698,0.0019316302140694568
-0.41881584004740946,-0.41881584004740946,0.9985131674238067,0.0021419667613258044
-0.4178272746475159,-0.4178272746475159,0.9993056308147269,0.0021517584978598984
-0.4170132359115087,-0.4170132359115087,1.000406692694123,0.0019339091686631925
-0.4159412591662658,-0.4159412591662658,1.0016495943346537,0.0019298275839047644
-0.4147684448043947,-0.4147684448043947,0.998104565381478,0.0019330250527298527
-0.41396070498976767,-0.41396070498976767,0.9971320353007125,0.001932877522005368
-0.4130359645598219,-0.4130359645598219,0.9993784890825802,0.0021411314420961905
-0.4122438632444755,-0.4122438632444755,1.0006118242667033,0.0019327764977754905
-0.4115085667137464,-0.4115085667137464,1.0001248179843703,0.0014244709217151109
-0.4110218581251502,-0.4110218581251502,1.0001456945484988,0.00234811883744825
-0.41057847549018334,-0.41057847549018334,0.9993074154688266,0.0018422480917826647
-0.4098789443410169,-0.4098789443410169,0.9999825366073474,0.002332306117122873
-0.409548242701203,-0.409548242701203,1.0001885629955192,0.0019327222857450407
-0.4087867866875058,-0.4087867866875058,1.0010088591048454,0.002141401595344829
-0.40822402736575897,-0.40822402736575897,1.0000177334019988,0.0014232798768298476
-0.40735329393728537,-0.40735329393728537,1.0013375491295513,0.0021407780015241223
-0.40645847076730207,-0.40645847076730207,1.0003728424148268,0.0023435487988517647
-0.4055149487405288,-0.4055149487405288,0.9991366546177151,0.001929184445122727
-0.40436021223376883,-0.40436021223376883,1.0011751377007445,0.0019326143154078088
-0.4033585934182156,-0.4033585934182156,0.9992703955761021,0.0021417834517782654
-0.40246932753734654,-0.40246932753734654,1.001284191887891,0.00193188913642083
-0.40169691622377285,-0.40169691622377285,1.000732280236719,0.0016974878087012452
-0.4008457769494271,-0.4008457769494271,0.9985825541353208,0.0019331441986897159
-0.4002092881481076,-0.4002092881481076,0.9993953201718666,0.0019318853874553128
-0.39980165265342293,-0.39980165265342293,1.0001669148002459,0.0021660913472967146
-0.3990585596803612,-0.3990585596803612,0.9993045394129629,0.0021418764775569016
-0.39854725316081385,-0.39854725316081385,1.0004169041930864,0.0019336726813247156
-0.3978758027847107,-0.3978758027847107,1.0001483623578291,0.0019297445709567963
-0.3973600711607105,-0.3973600711607105,0.9994820933964552,0.0020615126977924047
-0.3968202934865076,-0.3968202934865076,1.0010735218892128,0.0019329783277481278
-0.3958757063016492,-0.3958757063016492,0.9986153571259344,0.0021402623533296862
-0.3950944868675833,-0.3950944868675833,0.9989063202335011,0.0019453512183497154
-0.39398516592018495,-0.39398516592018495,0.9986587376029027,0.0019289365447574414
-0.39282279669523634,-0.39282279669523634,1.0007783050038719,0.001932307532278716
-0.3920244556040416,-0.3920244556040416,1.0021518217580716,0.0021432696641050454
-0.39100532055708753,-0.39100532055708753,1.0008482374978238,0.002140146689564246
-0.39026725422063463,-0.39026725422063463,1.0015917322253218,0.0016990113294400497
-0.38949477291625956,-0.38949477291625956,0.9996058914387811,0.0016968086596690873
-0.3889519608708724,-0.3889519608708724,0.998828364898389,0.00216061261656626
-0.38854652513255133,-0.38854652513255133,1.000934005048485,0.0019377727597272784
-0.38766311397030223,-0.38766311397030223,1.0021039801918183,0.0023329711510226238
-0.3873117843835644,-0.3873117843835644,1.0002519361011764,0.001696331127308966
-0.386490844207492,-0.386490844207492,1.0005987574349386,0.00214360196102746
-0.3859756479037969,-0.3859756479037969,0.9996296625459763,0.0016027293400708111
-0.38537278391686414,-0.38537278391686414,0.9986663292362982,0.0023295796763472647
-0.384459599933507,-0.384459599933507,1.0000339208701576,0.0023408998544106495
-0.3835626448435505,-0.3835626448435505,0.9998037552303274,0.0019311678721829178
-0.3824973690196202,-0.3824973690196202,1.0004898112419238,0.0019310904732399406
-0.38128620061697804,-0.38128620061697804,1.0007833889474278,0.0021412373162843436
-0.3803202020558274,-0.3803202020558274,0.9994989719688728,0.0019331803599952169
-0.37954778129587796,-0.37954778129587796,1.0001413058592665,0.0016974840720377208
-0.37869680992380383,-0.37869680992380383,1.00095988560975,0.0019335868124230274
-0.3780601801914599,-0.3780601801914599,1.0008794481156353,0.0019302832041946001
-0.37765273914028513,-0.37765273914028513,0.9990235499412478,0.002168605704958533
-0.37690967885637294,-0.37690967885637294,1.0008686708736445,0.0021426031699881298
-0.3763982464505716,-0.3763982464505716,1.0000834431849355,0.0019336732544131753
-0.3757268086248587,-0.3757268086248587,0.9989281637287325,0.001930355483242915
-0.37517098347334465,-0.37517098347334465,1.0004587977681068,0.0016998531556494227
-0.37469114954610633,-0.37469114954610633,1.0005286626274503,0.002074516342005941
-0.3739255460720415,-0.3739255460720415,0.9987340038529993,0.0021408401273874385
-0.373137798447533,-0.373137798447533,0.9988000320902195,0.0021514601775161745
-0.3720150149505571,-0.3720150149505571,1.0006408559108584,0.001930714521736859
-0.3709215548635257,-0.3709215548635257,1.0003535268023227,0.001932484070865077
-0.36987546980572006,-0.36987546980572006,0.9996165306820833,0.002144156952098876
-0.36885642090055626,-0.36885642090055626,0.9992736262229631,0.002141866609702891
-0.3681180643104199,-0.3681180643104199,1.0004243411242972,0.0016978455271492068
-0.36734572481354916,-0.36734572481354916,0.9998997349270443,0.0016967990285470704
-0.36680295337373536,-0.36680295337373536,1.0003048397638996,0.002166876299953195
-0.3663975373289759,-0.3663975373289759,0.9999962161351309,0.0019368072771066848
-0.36551430773342874,-0.36551430773342874,0.9997850804737152,0.0023309777634780474
-0.3651626460696207,-0.3651626460696207,0.9995201508949675,0.0016963079116522517
-0.3643420407034682,-0.3643420407034682,0.999045350139696,0.0021415837485263276
-0.36382648004873774,-0.36382648004873774,0.9997950635716615,0.001618729946791087
-0.3632240332566653,-0.3632240332566653,1.0004841414078307,0.0023316495439489183
-0.362310755096496,-0.362310755096496,0.9983418964582629,0.002338971112844372
-0.3614136259102452,-0.3614136259102452,0.9996166037187507,0.0019310693142211986
-0.36034839559297327,-0.36034839559297327,0.9997142898859298,0.0019307589522933257
-0.3591372713750388,-0.3591372713750388,1.0012063939904916,0.0021428491730928153
-0.3581710770932659,-0.3581710770932659,1.0007334114164856,0.0019324683071810331
-0.35739864685820066,-0.35739864685820066,1.000737199409967,0.0016977585887019263
-0.3565478435078148,-0.3565478435078148,1.0001755695940628,0.0019308643436769812
-0.35591107278405615,-0.35591107278405615,0.9997372792749895,0.0019313321404962995
-0.35532304349453625,-0.35532304349453625,0.9996142729162976,0.001937264918333468
-0.35458352357827605,-0.35458352357827605,1.0004213597811635,0.002165899578242
-0.35424924012677367,-0.35424924012677367,1.001496116892763,0.0019336337754840012
-0.3535778149847829,-0.3535778149847829,1.0012037455492386,0.0019314108822463393
-0.3529765675163617,-0.3529765675163617,0.9997912136525473,0.0016986680460107004
-0.35243073610399733,-0.35243073610399733,0.9995030900564231,0.0022799753641060683
-0.35157793898042655,-0.35157793898042655,1.0004506176267536,0.0021399672113634085
-0.3507963335853674,-0.3507963335853674,1.0010220852809457,0.0019405068271764379
-0.34968729117363184,-0.34968729117363184,0.9988757150850516,0.0019301417677767777
-0.3485079535119439,-0.3485079535119439,0.9999886486980817,0.002142437652440458
-0.3475134761438312,-0.3475134761438312,0.9989079603134787,0.001934956120660641
-0.3465891121839377,-0.3465891121839377,1.0022229891533,0.00214201404432177
-0.34579693106888953,-0.34579693106888953,0.999860027710322,0.0019315612400009996
-0.3450609087614794,-0.3450609087614794,1.0011214509886814,0.001424943416738928
-0.34449308841112725,-0.34449308841112725,1.0002569610651197,0.0023360332496291606
-0.34371098301799063,-0.34371098301799063,1.0001638981485574,0.00193267559704564
-0.34321508906868986,-0.34321508906868986,0.998927069520269,0.0021383591266614897
-0.3427024193308171,-0.3427024193308171,0.9992307306016526,0.0014632416236929936
-0.34208554035612904,-0.34208554035612904,0.9998655680335075,0.0021422930586364637
-0.3415796541882628,-0.3415796541882628,0.9996676504735801,0.0018763280574157451
-0.34090671409721834,-0.34090671409721834,1.0002808525598657,0.002141294328968137
-0.3400118369097072,-0.3400118369097072,1.0011957335485493,0.0023422025065690548
-0.33906807904713787,-0.33906807904713787,1.0004827735171309,0.0019315804349387654
-0.3379134200526096,-0.3379134200526096,0.999150273917885,0.0019304420828319432
-0.3369756614019934,-0.3369756614019934,1.0008408303689347,0.0023355859233902252
-0.33597812159423485,-0.33597812159423485,0.9985360410119479,0.0016962702836029967
-0.3350684548846402,-0.3350684548846402,0.9997058910690966,0.0019320028787794042
-0.3342731322823965,-0.3342731322823965,1.0003162267271386,0.0016969562342304928
-0.3337582198932978,-0.3337582198932978,0.9977585519936681,0.002139668618831019
-0.3331740562997766,-0.3331740562997766,0.9985846027928181,0.0019355910556357835
-0.3323156713330718,-0.3323156713330718,0.9990687853884939,0.0021404657124210425
-0.3319389396900078,-0.3319389396900078,0.9985509346836643,0.0016969523858677538
-0.33111883659112207,-0.33111883659112207,1.0004799570876381,0.00214086606692833
-0.33060272875636654,-0.33060272875636654,1.0001887263675031,0.00164362478213501
-0.3300009082609904,-0.3300009082609904,0.9997315232731456,0.00233012799640278
-0.3291204378801922,-0.3291204378801922,1.0013147310490282,0.0023348137751277565
-0.3284169930923781,-0.3284169930923781,1.000196668929306,0.001933201662800942
-0.32734546315705304,-0.32734546315705304,0.9996028043645768,0.0019311424049861911
-0.32612931179883164,-0.32612931179883164,0.9985913344071182,0.002141274640622174
-0.32512522662036647,-0.32512522662036647,1.0012853976695357,0.001932579768792512
-0.3241749463899396,-0.3241749463899396,0.9983045331315836,0.0016976802308238635
-0.32326317032902807,-0.32326317032902807,1.0006426022328831,0.0019331840700859484
-0.3224778380036696,-0.3224778380036696,0.998896277473983,0.0021420142852266815
-0.32175821496184653,-0.32175821496184653,1.0004506234547266,0.001701873394740362
-0.3210931983931914,-0.3210931983931914,1.0006707404986326,0.0021436087097115417
-0.32056423943913614,-0.32056423943913614,1.0003510237328037,0.0016995395298793083
-0.3200168445196141,-0.3200168445196141,1.0007111088002385,0.002141473731583875
-0.31952814517053413,-0.31952814517053413,1.001416161355292,0.0016534402319484023
-0.31892653345057626,-0.31892653345057626,1.0009032065704122,0.0023309613209965218
-0.318046003497966,-0.318046003497966,0.997971971122443,0.002334332616899809
-0.3173812427165103,-0.3173812427165103,0.9997955593856135,0.0019359358056232547
-0.3164638866475798,-0.3164638866475798,1.0014457604293194,0.0019312852273917769
-0.31528457061049264,-0.31528457061049264,0.9995786397784,0.002141656307495981
-0.3142898635254824,-0.3142898635254824,1.001482774015232,0.0019327155824799525
-0.3132258752385496,-0.3132258752385496,0.9996859510708191,0.001929920756532924
