time,time,flux,flux_err
-0.49945030051094363,-0.49945030051094363,1.0002020800071445,0.0002448320575935949
-0.4986067702622677,-0.4986067702622677,0.9999189060195957,0.00021961298032019912
-0.49788413963178757,-0.49788413963178757,1.0003158241191756,0.00022349902659008183
-0.49698376055166593,-0.49698376055166593,1.000123116708687,0.00021955169682716185
-0.49641784946725237,-0.49641784946725237,0.9997842694922406,0.00022032192953359695
-0.49552081951187577,-0.49552081951187577,0.9999504194308939,0.00022291195259714936
-0.49462812775673226,-0.49462812775673226,0.9999075528907211,0.00022127377158396802
-0.4940667656897858,-0.4940667656897858,0.9996071068592658,0.0002229522252387023
-0.49307723423917194,-0.49307723423917194,1.0002049698869429,0.00022014758893741182
-0.4924642392230453,-0.4924642392230453,0.999968079306289,0.00022034731793805026
-0.4916835879368591,-0.4916835879368591,1.000207632963182,0.00022131841689566764
-0.490914790602983,-0.490914790602983,1.0002064670102522,0.00022129286171240154
-0.49033864664743304,-0.49033864664743304,0.9996021124290617,0.00022300874559812766
-0.4893796136842866,-0.4893796136842866,0.9996863791222179,0.0002218663991169389
-0.48853979800696834,-0.48853979800696834,0.9998976976465552,0.00021987209758074773
-0.487880852935632,-0.487880852935632,1.000205263659558,0.00022197166357958566
-0.4871707178594079,-0.4871707178594079,1.000249017233084,0.00022290024250026428
-0.48651917883253193,-0.48651917883253193,1.0001729011645164,0.000219658710355577
-0.48576847362128317,-0.48576847362128317,1.000113321357981,0.00022489494220502017
-0.48500697316849256,-0.48500697316849256,1.0002359658919953,0.0002230877791115649
-0.48435947274192587,-0.48435947274192587,1.0002252468500694,0.00022071266922625202
-0.4836173517622228,-0.4836173517622228,1.0000349321942257,0.00022327291025909615
-0.4828219691458798,-0.4828219691458798,1.0003577578177576,0.00022129913094685337
-0.4822583402165037,-0.4822583402165037,0.9999652416824493,0.00022146368506280185
-0.48153084731602575,-0.48153084731602575,1.000142448327448,0.00022507422673846618
-0.480925037295674,-0.480925037295674,0.9998702162668917,0.00022351486735206898
-0.4802168070353218,-0.4802168070353218,1.0002774746234109,0.0002210133436428599
-0.47923748942121164,-0.47923748942121164,0.9998406812769097,0.00022121516089398696
-0.47850864429346984,-0.47850864429346984,0.9997476400771497,0.00022127600745836044
-0.47792162208643274,-0.47792162208643274,1.0002263434668148,0.00022308791680393817
-0.47726116177873334,-0.47726116177873334,0.9999780082686527,0.00022479584654621433
-0.4767118592266343,-0.4767118592266343,0.9995278748266886,0.0002229773428880409
-0.4758216243302741,-0.4758216243302741,1.0001956878635212,0.0002224772550107245
-0.4748540169952321,-0.4748540169952321,1.000238355126669,0.0002211867700813786
-0.47420161686677603,-0.47420161686677603,1.0002587200075725,0.00022144957115566294
-0.47356233505197454,-0.47356233505197454,1.0001030349452318,0.00022361029620120536
-0.4730046608783596,-0.4730046608783596,1.0001630803386656,0.00022665848296932932
-0.4721367580335937,-0.4721367580335937,1.000544240733122,0.00022086789317562566
-0.47089335154378203,-0.47089335154378203,0.999943340672605,0.0002228849625703514
-0.47015960706557963,-0.47015960706557963,1.000218741359448,0.00022148046264264628
-0.4695189929923799,-0.4695189929923799,0.9999192185472475,0.0002237665453491765
-0.4689651844077162,-0.4689651844077162,1.0000362509177478,0.00022761409303660398
-0.4680783807692933,-0.4680783807692933,1.000116413110206,0.00022115960667156163
-0.46685037666611606,-0.46685037666611606,0.9999003773766916,0.0002229252808776735
-0.46611769503360845,-0.46611769503360845,1.0004117537218025,0.00022148464837773367
-0.46546845291231875,-0.46546845291231875,0.9999231386342242,0.00022334709367777608
-0.46474945322406713,-0.46474945322406713,1.0002527247989297,0.00022681638016179995
-0.46385611407167743,-0.46385611407167743,0.9999766241779506,0.0002227839999042149
-0.46258077491875155,-0.46258077491875155,1.0000353621638365,0.0002213485656320369
-0.4619526800765016,-0.4619526800765016,0.9998972362029939,0.00022149091712701615
-0.461298790951696,-0.461298790951696,1.0003322655797369,0.00022500529789998774
-0.460522971800674,-0.460522971800674,1.0000546040833938,0.0002288547327239805
-0.45974347339506494,-0.45974347339506494,1.0004620724118334,0.00022129425153089708
-0.45853365000220947,-0.45853365000220947,1.0002149520402808,0.00022139725319521284
-0.4579111254723102,-0.4579111254723102,1.000462041978841,0.00022150569878061615
-0.4572560539003462,-0.4572560539003462,0.9999905242027511,0.0002250515864942954
-0.4564760217173898,-0.4564760217173898,0.9999835815203223,0.00023267768105435883
-0.45569711115458633,-0.45569711115458633,1.0001580731775448,0.00022124568020621106
-0.4544866692049254,-0.4544866692049254,0.9996375185534904,0.00022134703925091618
-0.4538696630341292,-0.4538696630341292,1.0001140364942187,0.00022146059668036138
-0.4533122252425528,-0.4533122252425528,1.0000423411545567,0.00022525347222356477
-0.45258593724356616,-0.45258593724356616,1.0000209405675722,0.00022455776489858394
-0.45179924865078647,-0.45179924865078647,0.9998924847753965,0.0002211721429945653
-0.4509798814950045,-0.4509798814950045,0.9999865797228598,0.0002230271333411935
-0.4500219391047722,-0.4500219391047722,1.0004096263915023,0.00021973230571574177
-0.449538790762017,-0.449538790762017,1.0000469474289,0.00022505592682445442
-0.4487765244426555,-0.4487765244426555,1.0003437933129042,0.00022425838549638104
-0.4477476045598451,-0.4477476045598451,1.0001108228405327,0.00021963623637156668
-0.4466376803640742,-0.4466376803640742,0.999762321177451,0.0002229731907895201
-0.4459095490987238,-0.4459095490987238,1.0003723542522738,0.0002215183639736868
-0.4451263350318186,-0.4451263350318186,1.0000916051151634,0.00022350976195818529
-0.44405347903593795,-0.44405347903593795,1.0003145916523037,0.0002221502423003638
-0.44312605277300465,-0.44312605277300465,0.9998826842411607,0.000221459089491928
-0.44205760073673445,-0.44205760073673445,0.9999195359960622,0.00022136060440802323
-0.4414415212144377,-0.4414415212144377,0.999567131827552,0.00022364188368421663
-0.4404863436429878,-0.4404863436429878,1.000168847248918,0.00022225018426312828
-0.4395132246594585,-0.4395132246594585,0.9998962995742351,0.00022130312683294045
-0.4382963338808622,-0.4382963338808622,1.0000605876811877,0.00022298128979258598
-0.43758321879795403,-0.43758321879795403,1.0001769232539983,0.00022142874330149226
-0.43664549048262413,-0.43664549048262413,1.0002159763159768,0.0002246042285824325
-0.43558927056656105,-0.43558927056656105,0.9998083550443535,0.00021966141610171055
-0.43441984788660193,-0.43441984788660193,1.0001265197890503,0.00022301479195489593
-0.4335388664796483,-0.4335388664796483,0.9998399894800558,0.00022141892417627942
-0.43251790784925104,-0.43251790784925104,1.0002269640048862,0.00022397896032249395
-0.4314221699074551,-0.4314221699074551,1.0000285163858507,0.0002212880975550063
-0.43028074686735635,-0.43028074686735635,1.0001824433486524,0.00022136335828762263
-0.4294946195470402,-0.4294946195470402,1.0002721165991786,0.0002214622555345287
-0.4284766354219755,-0.4284766354219755,1.0002554172506968,0.00022404407864478167
-0.4273768539016601,-0.4273768539016601,0.9999068700269594,0.00022129351346172568
-0.4262305636410019,-0.4262305636410019,0.9997369218392442,0.00022129563067890698
-0.42545047399471514,-0.42545047399471514,1.0001941416618436,0.00022139112636792888
-0.42453601821835035,-0.42453601821835035,1.000013252110685,0.0002256028324254977
-0.4236445892427582,-0.4236445892427582,0.999945962303503,0.00022112855481701862
-0.4227507217794482,-0.4227507217794482,1.0000747021881982,0.0002214669185509876
-0.4216511850223469,-0.4216511850223469,0.9996511093790241,0.000221352141510428
-0.42081426431032015,-0.42081426431032015,0.999703963698269,0.00022372661998518425
-0.41967679352601406,-0.41967679352601406,0.9999687178174594,0.00022281926155394703
-0.4187030772729486,-0.4187030772729486,1.0001981409869092,0.0002215178326977697
-0.4176076417257718,-0.4176076417257718,0.999946176402851,0.00022135231224623873
-0.41685928222577784,-0.41685928222577784,0.9999129232955554,0.0002213386049414796
-0.4156335748877609,-0.4156335748877609,1.0006200815121213,0.00022286917045285037
-0.4146555326791713,-0.4146555326791713,0.9999719913728751,0.00022161994706449513
-0.41346046495746125,-0.41346046495746125,0.9999488312510367,0.00021984976806169258
-0.41264996262689235,-0.41264996262689235,1.0004068335025544,0.00022292605581257838
-0.41135810624618896,-0.41135810624618896,1.0002706053293775,0.00022119686311345858
-0.41052464005115324,-0.41052464005115324,1.0000542601975624,0.00022329691869906813
-0.4096413569903234,-0.4096413569903234,1.0001456673250377,0.00024433529401635937
-0.4090832040310488,-0.4090832040310488,0.999906977334566,0.00021964025686372246
-0.4080901675581117,-0.4080901675581117,1.0001844120906243,0.0002244625746438978
-0.40711223618855,-0.40711223618855,0.9998237233835056,0.00021957778551790443
-0.4062165437688236,-0.4062165437688236,1.0001064380861182,0.00022336583466874967
-0.40539662830487944,-0.40539662830487944,1.0000342309580308,0.00021771195564137413
-0.404722722988663,-0.404722722988663,0.9998016123980241,0.00022142122662147448
-0.4039840389545134,-0.4039840389545134,1.0000660793425653,0.00022449672352061606
-0.4031251268213964,-0.4031251268213964,0.9997083193973086,0.00022120387831379442
-0.4024373872263823,-0.4024373872263823,0.9999058383921273,0.00022176277079887833
-0.4014428920549108,-0.4014428920549108,1.000162929030957,0.0002195062159427658
-0.4008639999214211,-0.4008639999214211,0.9996791595137242,0.00022143202075318268
-0.39996735895983876,-0.39996735895983876,1.0004043225864303,0.00022294164301787348
-0.39907887182416746,-0.39907887182416746,1.000249213212666,0.0002212569553913254
-0.3985106452651962,-0.3985106452651962,0.9997258724849619,0.00022297668371485508
-0.39753546629071934,-0.39753546629071934,1.0001183420144635,0.00022007534928533
-0.3969220618964755,-0.3969220618964755,1.0000300842180205,0.00022027850946339987
-0.3961252900822728,-0.3961252900822728,1.0002706844350062,0.0002229601975575112
-0.39516887554054847,-0.39516887554054847,0.9999322838964602,0.00022144559473841522
-0.3946363651710271,-0.3946363651710271,1.0001788151455606,0.0002229875944318518
-0.3936593651553267,-0.3936593651553267,1.0001812147993159,0.00022003829563236555
-0.39299883601415786,-0.39299883601415786,1.000491253844745,0.0002198261891731787
-0.39226441990686,-0.39226441990686,0.999856915695155,0.00022185345989603693
-0.39146379216763305,-0.39146379216763305,1.0001736132925734,0.0002211814695916254
-0.390856143545534,-0.390856143545534,0.9998970619998337,0.0002214734586942279
-0.39001095820203774,-0.39001095820203774,0.9996802283868046,0.00022364351646792917
-0.38903798085739255,-0.38903798085739255,1.0000741917985527,0.00021834764855929901
-0.38844147540658014,-0.38844147540658014,1.0001155730027895,0.00022350310789359535
-0.38774153768390535,-0.38774153768390535,1.0000679664418781,0.00022122935789169784
-0.3870030049729394,-0.3870030049729394,1.000063288328384,0.00022131440954407163
-0.38656254235247617,-0.38656254235247617,0.9999005020171291,0.00022476896321836182
-0.38567948851559775,-0.38567948851559775,0.99983066543503,0.00022478089871348417
-0.38498179371963487,-0.38498179371963487,1.0001089953175053,0.00021838400231869226
-0.3843728007144819,-0.3843728007144819,1.000259113246503,0.00022232782352431252
-0.3835315967124188,-0.3835315967124188,1.0001510102760003,0.00022288153411844044
-0.3828751043300144,-0.3828751043300144,1.0000336023292316,0.00021964578014170883
-0.3822566693517729,-0.3822566693517729,0.9999362784448842,0.00022459014882840591
-0.3815829722538183,-0.3815829722538183,1.0002574121960555,0.00022727642477754452
-0.38085496431522187,-0.38085496431522187,1.0001700189294156,0.00021990705487146098
-0.38010706959612434,-0.38010706959612434,1.0001044494691242,0.0002207338993988394
-0.3793100530252559,-0.3793100530252559,1.0000587953959956,0.00022115701764740823
-0.3786972272544517,-0.3786972272544517,1.0002647987947317,0.00022150528565255843
-0.37801324707106687,-0.37801324707106687,1.0000107906060016,0.00022319907186086398
-0.3774450196324324,-0.3774450196324324,0.9998820015302302,0.00022606746160878233
-0.37659501493690184,-0.37659501493690184,1.0004560198400316,0.0002207464363776635
-0.37559302795416444,-0.37559302795416444,0.9997821942065614,0.00022127970881591314
-0.3748210744655808,-0.3748210744655808,1.0002209909171282,0.00021961530325875618
-0.3742811065727437,-0.3742811065727437,0.9996637983989475,0.00022469136983069345
-0.373591853754624,-0.373591853754624,0.9997607181931191,0.00022475191701455975
-0.37289669460587904,-0.37289669460587904,1.0001182999145206,0.00022350755784199695
-0.37187127803554176,-0.37187127803554176,1.0003242729571329,0.00022263177422617418
-0.37090623490075814,-0.37090623490075814,1.0004098482224086,0.0002197462433375813
-0.3703447792926454,-0.3703447792926454,1.0000083493444563,0.00022299331101109893
-0.36967844189130117,-0.36967844189130117,0.999800488603318,0.00022570997524875395
-0.3690215762173466,-0.3690215762173466,0.9999567575678368,0.00022546346157649937
-0.3680735634654411,-0.3680735634654411,1.000056175972011,0.0002227657703725454
-0.36685896026101544,-0.36685896026101544,0.9999209941179416,0.00022140780976268455
-0.36630136489329745,-0.36630136489329745,0.9999524478415737,0.0002213641086286043
-0.3656771407346241,-0.3656771407346241,1.0001734178949022,0.00022529423632546255
-0.3649746133138251,-0.3649746133138251,1.0000988810228013,0.0002265444833635574
-0.3640296951518394,-0.3640296951518394,0.9996356681916453,0.00022278470759764458
-0.3628137230633001,-0.3628137230633001,0.9999104379813082,0.00022138279672820295
-0.3622561918004067,-0.3622561918004067,0.9999753931247479,0.00022142327453690858
-0.3615666769015661,-0.3615666769015661,1.0002762222892738,0.00023083377878535286
-0.3607454584613151,-0.3607454584613151,1.000364609413627,0.00022103457822870927
-0.35993109235423615,-0.35993109235423615,0.9996429867204165,0.00022296157807662724
-0.35876863399098513,-0.35876863399098513,1.0003114611815356,0.0002213972442853212
-0.3582111426614574,-0.3582111426614574,0.9999959967173542,0.00022135151535736882
-0.3575290736662282,-0.3575290736662282,1.0002887996117067,0.0002340760802759095
-0.35668887817591893,-0.35668887817591893,1.0002137301478222,0.0002214657326204107
-0.3558906547361403,-0.3558906547361403,1.0004003335450964,0.00022294892246532808
-0.35472369064227677,-0.35472369064227677,0.9996980488894442,0.00022139160303458763
-0.35416698002954944,-0.35416698002954944,0.9999846782073277,0.00022161904506929302
-0.35347531260704274,-0.35347531260704274,1.0002436756007216,0.00022576071261349142
-0.3526161432848312,-0.3526161432848312,0.9999367803861704,0.0002217861994889499
-0.35185036030379707,-0.35185036030379707,0.9997478091824498,0.000222904424206339
-0.3506788922131818,-0.3506788922131818,0.9998128107626197,0.00022141006750509462
-0.3501240683777723,-0.3501240683777723,1.0001885473160488,0.00022166164042388168
-0.3495616607775446,-0.3495616607775446,0.999821113740653,0.00022513905872611128
-0.34850941008189695,-0.34850941008189695,0.9998084244296568,0.00022195395948052684
-0.34757477889506844,-0.34757477889506844,0.9998284147148908,0.00022145161263876042
-0.34650529142891173,-0.34650529142891173,0.9998656823969867,0.00022134085902858532
-0.3458873022609623,-0.3458873022609623,0.9996014129920185,0.0002235718346533683
-0.34493924750495353,-0.34493924750495353,1.0000643462720709,0.0002222057817012104
-0.34396355185745053,-0.34396355185745053,0.999976655715086,0.00022129994800477044
-0.34283063336915803,-0.34283063336915803,0.9997188462535302,0.0002230371025266221
-0.34227232689445375,-0.34227232689445375,1.0001230911215613,0.00022154786022276552
-0.3414870000400697,-0.3414870000400697,0.9997924098330027,0.00022350488761938941
-0.34042888813346506,-0.34042888813346506,1.000171187129975,0.00022057015015680424
-0.3397303080608253,-0.3397303080608253,1.0004199921566712,0.0002229817226875489
-0.33850624813203467,-0.33850624813203467,1.0004144522690797,0.00022140114759604127
-0.33793528041424,-0.33793528041424,1.0001316759172187,0.0002231787884885501
-0.33704984282449,-0.33704984282449,0.999908404052704,0.00022458602747427568
-0.33599452774142263,-0.33599452774142263,0.9998087813459335,0.00021961857164199644
-0.33482400308348587,-0.33482400308348587,1.0003457868610774,0.0002230331553411551
-0.33394329705042763,-0.33394329705042763,1.0000991442620286,0.00022143364967771236
-0.3329220406107197,-0.3329220406107197,1.0001626429742085,0.00022398615056131474
-0.33182670933383634,-0.33182670933383634,0.9997354550656423,0.00022121681075271523
-0.33068577248704967,-0.33068577248704967,1.0002469745182918,0.00022128882598277758
-0.32989903969792067,-0.32989903969792067,1.0000431715694966,0.00022143566085042004
-0.3288807582990557,-0.3288807582990557,0.9998780819346624,0.00022398997778251672
-0.3277813797016279,-0.3277813797016279,1.0001454446686278,0.00022126387609229734
-0.3266355760330043,-0.3266355760330043,0.9999406953284357,0.00022136446093753488
-0.32585488426193476,-0.32585488426193476,1.0002940503280948,0.00022141722546857237
-0.3248466713775997,-0.3248466713775997,1.0001799469752979,0.0002254809880658337
-0.3239022445559385,-0.3239022445559385,1.000414866103333,0.00021959605853956368
-0.32286758098052815,-0.32286758098052815,1.00007178401796,0.0002230414924064375
-0.3219251905247802,-0.3219251905247802,0.9997670469303476,0.0002198376016398296
-0.3210469102152274,-0.3210469102152274,1.0000415154347164,0.00022529118130269052
-0.319860403003986,-0.319860403003986,1.0000356179940588,0.0002211210207859754
-0.3188248007041693,-0.3188248007041693,1.000109744910427,0.00022313001693939787
-0.3178785550480825,-0.3178785550480825,0.9998869670631134,0.00021986007132491166
-0.31712039765407096,-0.31712039765407096,1.0004318456672538,0.00022358736662437018
-0.31603789036889796,-0.31603789036889796,0.9997612633235444,0.00022276201181297716
-0.31506028314033757,-0.31506028314033757,0.9997242412504244,0.00022151108190306357
-0.3138652859037393,-0.3138652859037393,0.9999840159075383,0.000219800028905755
-0.3130541410653677,-0.3130541410653677,1.000165116801239,0.00022288308582090166
-0.3117629631633463,-0.3117629631633463,1.0001695272028392,0.0002211516108677549
-0.31092875705071493,-0.31092875705071493,1.0002371240621415,0.00022330227096651264
-0.3098663186414342,-0.3098663186414342,1.000067918514647,0.00021958571716592968
-0.30917268087359845,-0.30917268087359845,0.999855080890422,0.0002214346475661465
-0.3079558451274352,-0.3079558451274352,0.999817415632436,0.0002228697052300994
-0.30727503609959966,-0.30727503609959966,1.000150187938558,0.00022288612470730126
-0.3062340092183149,-0.3062340092183149,1.0000691999600182,0.00021979051530360586
-0.3055661001810222,-0.3055661001810222,0.9998674378494605,0.00021968098648185338
-0.3047781208384549,-0.3047781208384549,1.0002848830812923,0.00022304826287339509
-0.30381577601801835,-0.30381577601801835,1.0000365576783659,0.00022129206948465048
-0.3032344205566915,-0.3032344205566915,1.0001431877626135,0.0002228826154518101
-0.30217750961819545,-0.30217750961819545,1.0000047405631236,0.00021988386836118922
-0.30151199772008114,-0.30151199772008114,1.0001330717324297,0.00021970001551399731
-0.30074060193874175,-0.30074060193874175,0.9998226090689458,0.0002230111009334053
-0.29976759230412425,-0.29976759230412425,0.9999310035350539,0.00022128972615020003
-0.2992110337967461,-0.2992110337967461,1.000111898776658,0.00022300185212211567
-0.2983153030902031,-0.2983153030902031,1.000058891729501,0.00022164273102257952
-0.2975564143402153,-0.2975564143402153,1.0001290129166065,0.00021819803857210416
-0.29688789039064434,-0.29688789039064434,0.9997720358797902,0.00022289011452865604
