time,time,flux,flux_err
-0.2035592898468431,-0.2035592898468431,0.9996143758204025,7.129529792919062e-05
-0.2026825941797945,-0.2026825941797945,0.9999444652193392,6.9152758159422e-05
-0.20183690680229915,-0.20183690680229915,1.000066368547156,6.802353896932808e-05
-0.2009912192263338,-0.2009912192263338,1.0000138290519052,6.728806398419659e-05
-0.20021600546356808,-0.20021600546356808,0.999984820534709,6.101856976996119e-05
-0.1995112655646544,-0.1995112655646544,1.0000282563941272,6.078665117475385e-05
-0.19880652557501222,-0.19880652557501222,0.9999074847561504,6.0600137882983937e-05
-0.19810178550220173,-0.19810178550220173,1.0001149070469653,6.0466453422944367e-05
-0.19739704535945252,-0.19739704535945252,0.9999169779905521,6.033276056046067e-05
-0.19669230515584318,-0.19669230515584318,1.0000431067175024,6.020912998002375e-05
-0.19598756490006153,-0.19598756490006153,1.000024927216634,6.00956606936214e-05
-0.1952828245974061,-0.1952828245974061,0.9999510898308988,6.000343014842072e-05
-0.19457808425770154,-0.19457808425770154,0.9999701569663595,5.989632412392043e-05
-0.19387334388699742,-0.19387334388699742,1.0000239389664511,5.9806817326891256e-05
-0.1931686034905887,-0.1931686034905887,1.0000027601674595,5.975584735462968e-05
-0.19245935273482076,-0.19245935273482076,0.99994725320606,5.972481432322393e-05
-0.19173093302407268,-0.19173093302407268,1.0000494553850257,5.9680518513681154e-05
-0.19102619258116463,-0.19102619258116463,0.9999705568861659,5.9653455937115366e-05
-0.190321452131451,-0.190321452131451,1.0000459709068497,5.963387355713519e-05
-0.18961671167871613,-0.18961671167871613,0.9998812781617799,5.957865646162632e-05
-0.18891197122673517,-0.18891197122673517,1.0000299767150707,5.9561663646437346e-05
-0.1882072307781577,-0.1882072307781577,0.9999425062095518,5.951329730815448e-05
-0.18750249033638297,-0.18750249033638297,1.0001153423459799,5.948521228749308e-05
-0.18679774990254644,-0.18679774990254644,0.9999174946571202,5.9470875157568686e-05
-0.18609300948080687,-0.18609300948080687,1.0000560134512995,5.945216504590606e-05
-0.18536458979652864,-0.18536458979652864,0.9998471667656428,5.943084390870211e-05
-0.18463842529627073,-0.18463842529627073,1.000029000163121,5.942853463394844e-05
-0.18392240907688376,-0.18392240907688376,1.0000026423440216,5.9410449283161844e-05
-0.1832176687243269,-0.1832176687243269,0.9999477224585631,5.9394874747660734e-05
-0.18249263187165354,-0.18249263187165354,0.99997125523544,5.9362357286669e-05
-0.18176872262649865,-0.18176872262649865,0.9998397457222851,5.935536494125251e-05
-0.18104706857708663,-0.18104706857708663,0.9999889083326391,5.935138677518832e-05
-0.1803423283201738,-0.1803423283201738,0.9999965151442061,5.9346350975461216e-05
-0.17963758809009817,-0.17963758809009817,1.0000107584871203,5.93427547789739e-05
-0.17893284788800373,-0.17893284788800373,0.9999247163687514,5.934335189381173e-05
-0.17822810771501665,-0.17822810771501665,1.0000240460062044,5.935826204858623e-05
-0.17752336757264758,-0.17752336757264758,0.999991387893432,5.9353212756858354e-05
-0.176818627460527,-0.176818627460527,1.0000241546418371,5.934791311235114e-05
-0.17611388738128894,-0.17611388738128894,0.999969818926238,5.935451415884942e-05
-0.1754091473341873,-0.1754091473341873,0.9999569625083959,5.935586010721158e-05
-0.17470440732073556,-0.17470440732073556,1.0000091923611742,5.936146745276595e-05
-0.1739996673420535,-0.1739996673420535,1.0000202817669834,5.9348778890781945e-05
-0.17329492739778019,-0.17329492739778019,0.9999823582199154,5.936104386282206e-05
-0.17259018748942054,-0.17259018748942054,1.0002626018055665,5.935880893356228e-05
-0.17188544761772845,-0.17188544761772845,0.9999966482174069,5.934028897302286e-05
-0.17118070778308264,-0.17118070778308264,0.9999969108305571,5.935364965800308e-05
-0.17047596798321935,-0.17047596798321935,1.0000134156860534,5.9346668003831284e-05
-0.16977122822304763,-0.16977122822304763,0.99994637392799,5.934441534987695e-05
-0.16906648850181655,-0.16906648850181655,1.0000304135935905,5.93458047213574e-05
-0.168361748817631,-0.168361748817631,0.9999261769726429,5.933929949662899e-05
-0.16765700917389595,-0.16765700917389595,1.0000452376620288,5.935573363239091e-05
-0.1669522695679646,-0.1669522695679646,0.9999540369064185,5.936195125666952e-05
-0.1662475300055064,-0.1662475300055064,1.0000264745867404,5.935673148156706e-05
-0.16554279048047604,-0.16554279048047604,1.0000180429599093,5.9359858891560845e-05
-0.16483805099627347,-0.16483805099627347,0.9999876442238571,5.934734529160599e-05
-0.16413331155441072,-0.16413331155441072,0.9999943152373637,5.935804184789684e-05
-0.16342857215299703,-0.16342857215299703,1.0000091764166374,5.935337232500262e-05
-0.162723832794304,-0.162723832794304,1.0000142511921832,5.9364938048971395e-05
-0.16201909347681537,-0.16201909347681537,0.9999688899999171,5.936157506963516e-05
-0.16131435420204382,-0.16131435420204382,1.0000594720663463,5.936153517432868e-05
-0.16060961496848022,-0.16060961496848022,0.9999485171347935,5.935743811722633e-05
-0.1599048757791472,-0.1599048757791472,0.9999753855862454,5.938523618170303e-05
-0.15920013663328944,-0.15920013663328944,1.0000385483574439,5.936720650343435e-05
-0.1584953975297701,-0.1584953975297701,0.9999934000781023,5.9373766447957566e-05
-0.15779065846783666,-0.15779065846783666,1.0000005165537522,5.93735697852015e-05
-0.15708591945126854,-0.15708591945126854,0.9999877191816475,5.93781764715718e-05
-0.15638118047854946,-0.15638118047854946,1.0000201236227508,5.936860677954472e-05
-0.15567644154968505,-0.15567644154968505,0.9999748532721755,5.935528218203141e-05
-0.15497170266391222,-0.15497170266391222,1.000027379084848,5.936059072484881e-05
-0.15426696382539973,-0.15426696382539973,1.0000012524483797,5.93574616521245e-05
-0.15356222502922706,-0.15356222502922706,1.0000049921896792,5.9367248153560135e-05
-0.15285748627879486,-0.15285748627879486,0.9999554988862205,5.9354968369828255e-05
-0.15214710966280337,-0.15214710966280337,1.0001132760033262,5.93630618415623e-05
-0.1514198193669735,-0.1514198193669735,0.9999188912803874,5.937067457671084e-05
-0.15071508075225495,-0.15071508075225495,1.0000182613656357,5.936496635878001e-05
-0.15001034218328257,-0.15001034218328257,1.000037158365386,5.9371085131267864e-05
-0.14930560366043294,-0.14930560366043294,1.0000209421334585,5.9370351470364615e-05
-0.14860086518294224,-0.14860086518294224,0.9999619435402252,5.935846419341254e-05
-0.1478961267523317,-0.1478961267523317,1.0000433849141943,5.937580044172332e-05
-0.14719138836557163,-0.14719138836557163,0.9999697809213599,5.937179973408156e-05
-0.14648665002493075,-0.14648665002493075,1.0000118028911749,5.9379853869698514e-05
-0.1457819117311729,-0.1457819117311729,0.9999947209832832,5.937484898408417e-05
-0.1450771734839087,-0.1450771734839087,1.0000223170746674,5.937139237503827e-05
-0.14437243528238994,-0.14437243528238994,0.9999597694255181,5.9374409054927176e-05
-0.143667697127367,-0.143667697127367,1.0000199536901344,5.937629851067139e-05
-0.14296295901922348,-0.14296295901922348,1.0000009247471253,5.937787716374693e-05
-0.14225822095719848,-0.14225822095719848,0.9999741057366849,5.937605328032933e-05
-0.14155348294205225,-0.14155348294205225,1.0000224718912663,5.937231539023502e-05
-0.14084874497340322,-0.14084874497340322,1.0000023981437323,5.938327769905012e-05
-0.1400256110882097,-0.1400256110882097,1.0000099727474914,5.9392694271145385e-05
-0.13924194258060824,-0.13924194258060824,0.9999886834088135,5.9393314685548465e-05
-0.13853720476733572,-0.13853720476733572,0.9999868995130743,5.939296796006623e-05
-0.1378324669990434,-0.1378324669990434,1.0000072911064968,5.9389606743809366e-05
-0.13712772927990002,-0.13712772927990002,1.0000683499425527,5.938605381949887e-05
-0.13642299160687726,-0.13642299160687726,0.9999947434084712,5.939202572789871e-05
-0.1357182539818645,-0.1357182539818645,1.0000272245392967,5.938422356336501e-05
-0.13501351640486164,-0.13501351640486164,1.0000308125113258,5.939526353706093e-05
-0.13430877887473472,-0.13430877887473472,0.9999477868981976,5.9389297015638636e-05
-0.13360404139035537,-0.13360404139035537,1.0000192225896298,5.93789784473771e-05
-0.13289930395738309,-0.13289930395738309,1.0000601852125046,5.938907430073305e-05
-0.13219456657015982,-0.13219456657015982,0.9999648363506729,5.939361975399958e-05
-0.13148982923094224,-0.13148982923094224,1.0000802430294065,5.93993868852403e-05
-0.13078509194011262,-0.13078509194011262,0.9999017287374858,5.939663345476671e-05
-0.1300803546972972,-0.1300803546972972,1.000111467233276,5.941095353457548e-05
-0.1293756175013563,-0.1293756175013563,0.999992246501497,5.9400366334991795e-05
-0.12867088035456292,-0.12867088035456292,0.9999600370998685,5.940500425502991e-05
-0.12796614325577949,-0.12796614325577949,1.0000904882726391,5.9411654005604546e-05
-0.12726140620576204,-0.12726140620576204,0.9999304865361539,5.940109608025461e-05
-0.12655666920375594,-0.12655666920375594,1.0000704232377648,5.941836860423554e-05
-0.12585193224938324,-0.12585193224938324,0.9999864678540445,5.941520953031533e-05
-0.12514719534339847,-0.12514719534339847,1.0000154676657464,5.9414100407374795e-05
-0.1244424584861811,-0.1244424584861811,0.9999435378796546,5.942269064879186e-05
-0.12373772167848926,-0.12373772167848926,1.0000029624533537,5.941346079009731e-05
-0.12303298491729038,-0.12303298491729038,1.0000538718980505,5.9412361079223724e-05
-0.12232824820675177,-0.12232824820675177,0.999958901993813,5.941897056728441e-05
-0.12162351154422382,-0.12162351154422382,1.0000561966691115,5.94151865131011e-05
-0.120918774930837,-0.120918774930837,0.9999470124050964,5.943290899335632e-05
-0.12021403836546866,-0.12021403836546866,1.0000216265623012,5.942955162106657e-05
-0.1195093018484826,-0.1195093018484826,1.000011089559472,5.9424311897228584e-05
-0.11880456538291213,-0.11880456538291213,0.9999425662648053,5.9426626917519935e-05
-0.11809982896421971,-0.11809982896421971,1.0000482383946643,5.9445800629163624e-05
-0.11739509259542658,-0.11739509259542658,0.999984509039663,5.94258920165646e-05
-0.11669035627615472,-0.11669035627615472,0.9999760037669171,5.943950313839928e-05
-0.11598562000527508,-0.11598562000527508,1.0000311372431565,5.943802608387726e-05
-0.115280883783538,-0.115280883783538,0.9999732938371702,5.944315861453632e-05
-0.11457614761094562,-0.11457614761094562,1.0000423824293871,5.9436376828561524e-05
-0.11387141148787805,-0.11387141148787805,1.000000715546029,5.944696187909415e-05
-0.1131666754147119,-0.1131666754147119,0.9999979667557929,5.943114524616772e-05
-0.11246193939031031,-0.11246193939031031,0.9999586149765116,5.944666238352702e-05
-0.11175720341543424,-0.11175720341543424,1.0000335991862381,5.944008270576029e-05
-0.11105246749045819,-0.11105246749045819,0.9999898754093668,5.943578977291383e-05
-0.1103477316146261,-0.1103477316146261,0.9999971637777882,5.945221240316686e-05
-0.10964299579021031,-0.10964299579021031,1.0000069395629347,5.944481775271987e-05
-0.1089382600126676,-0.1089382600126676,0.9999681473033306,5.9447143360708154e-05
-0.10823352428729578,-0.10823352428729578,1.000081372683838,5.9448419246772746e-05
-0.10752878861068851,-0.10752878861068851,0.9999460332010252,5.9464898538985165e-05
-0.10682405298285147,-0.10682405298285147,1.0000371796650938,5.946378538584507e-05
-0.10611931740718247,-0.10611931740718247,0.9999968593820501,5.945958626337609e-05
-0.10541458187989647,-0.10541458187989647,1.00000225318172,5.9462228872221035e-05
-0.10470984640252183,-0.10470984640252183,0.999999071402549,5.947166435541712e-05
-0.10400511097579752,-0.10400511097579752,0.9999867982069682,5.946491410288049e-05
-0.10330037559973135,-0.10330037559973135,1.0000586874633977,5.9459861182711244e-05
-0.10259564027432119,-0.10259564027432119,0.9999526636758496,5.94620759232268e-05
-0.10189090499692596,-0.10189090499692596,1.0000678921338415,5.9463197922571e-05
-0.1011861697709385,-0.1011861697709385,0.9999803586807549,5.9472691471111485e-05
-0.1004814345959936,-0.1004814345959936,1.0000009778831456,5.94691595617664e-05
-0.0997766994705664,-0.0997766994705664,1.0000042402836633,5.946875445059644e-05
-0.09907196439579238,-0.09907196439579238,0.9999945945498734,5.947664302874955e-05
-0.09836722937243891,-0.09836722937243891,1.0000165082616168,5.946549154209586e-05
-0.09766249439898474,-0.09766249439898474,0.9999762170750992,5.946297056405323e-05
-0.09695775947542984,-0.09695775947542984,1.0001268501639071,5.947006002644254e-05
-0.09625302460253238,-0.09625302460253238,1.000082037200014,5.946513787076777e-05
-0.09554828978180793,-0.09554828978180793,0.9999580265908051,5.946539119862356e-05
-0.09484355501211184,-0.09484355501211184,0.9999465031186727,5.946408507427534e-05
-0.09411852393321567,-0.09411852393321567,1.0000635573971142,5.9470433956369806e-05
-0.09340589623679776,-0.09340589623679776,1.0000135118481066,5.946304749711172e-05
-0.0927011616213477,-0.0927011616213477,1.0000113440363338,5.948988191327682e-05
-0.09199642705654938,-0.09199642705654938,0.9999817839074663,5.948118652018165e-05
-0.09129169254278935,-0.09129169254278935,0.9999990986542295,5.948485216896324e-05
-0.09058695808006334,-0.09058695808006334,1.0000792799142277,5.947787753993474e-05
-0.08988222366874724,-0.08988222366874724,0.9999527274977286,5.947571218703205e-05
-0.08917748930922684,-0.08917748930922684,1.0000570561827158,5.9486838416324505e-05
-0.08847275500036389,-0.08847275500036389,0.9999898983917307,5.9478379873777076e-05
-0.08776802074366756,-0.08776802074366756,0.9999722946464489,5.9470229340889864e-05
-0.08706328653762867,-0.08706328653762867,1.0000112117919975,5.9485459698207306e-05
-0.08635855238376067,-0.08635855238376067,1.0000008535090033,5.9495170951239864e-05
-0.08565381828092526,-0.08565381828092526,1.000002704630818,5.948586257739512e-05
-0.08494908423025933,-0.08494908423025933,0.9999919348580624,5.9490245498472355e-05
-0.0842443502310104,-0.0842443502310104,1.0000059554786767,5.949921422253797e-05
-0.08353961628316924,-0.08353961628316924,0.9999925730496544,5.949420919743464e-05
-0.08283488238901385,-0.08283488238901385,1.0000099187128053,5.950683738769247e-05
-0.08213014854513503,-0.08213014854513503,1.0000800544860229,5.950060230583708e-05
-0.08142541475304696,-0.08142541475304696,0.9999349803891245,5.949585526710409e-05
-0.0807206810142624,-0.0807206810142624,1.0000376003413016,5.9488116126954126e-05
-0.0800159473261381,-0.0800159473261381,0.9999819660879415,5.950235341604561e-05
-0.07931121369169389,-0.07931121369169389,0.999978764939328,5.950524344751917e-05
-0.07860648010904044,-0.07860648010904044,1.0000662553327102,5.9504489762443374e-05
-0.07790174657893516,-0.07790174657893516,0.9999589595606281,5.9491289445819184e-05
-0.07719701310250997,-0.07719701310250997,1.0000110629495156,5.950707609176272e-05
-0.07631074035473091,-0.07631074035473091,0.9999832221168035,5.949508126974901e-05
-0.07559022096777283,-0.07559022096777283,0.9999628824229203,5.9509253238797115e-05
-0.07488548766184237,-0.07488548766184237,1.000065787489854,5.950039971097037e-05
-0.07418075441035014,-0.07418075441035014,0.9999585102671459,5.9497244032327104e-05
-0.07347602121102596,-0.07347602121102596,1.000032148303045,5.9507508069944336e-05
-0.07277128806311595,-0.07277128806311595,0.9999810837178448,5.951745715599938e-05
-0.072066554968886,-0.072066554968886,1.0000024264396903,5.9523470797437316e-05
-0.0713618219283397,-0.0713618219283397,1.000007086522154,5.951537366644692e-05
-0.07065708893996217,-0.07065708893996217,0.9999177972860803,5.951565600944551e-05
-0.06995235600677674,-0.06995235600677674,1.0000839106034345,5.952243718590248e-05
-0.06924762312613737,-0.06924762312613737,0.9999492602023977,5.9511362601378915e-05
-0.06854289029766676,-0.06854289029766676,1.0000391629561185,5.95065351417852e-05
-0.06783815752514996,-0.06783815752514996,1.0000030336583456,5.951870388156749e-05
-0.06713342480366506,-0.06713342480366506,1.00003819065792,5.951883679520197e-05
-0.0664286921366184,-0.0664286921366184,0.9999920364480124,5.951061776687321e-05
-0.06572395952325465,-0.06572395952325465,0.99996914398003,5.951806025008455e-05
-0.06501922696394687,-0.06501922696394687,1.000030386379941,5.951305438280733e-05
-0.06431449445870356,-0.06431449445870356,0.9999692984221558,5.952413014333718e-05
-0.06360976200713893,-0.06360976200713893,1.000072688829612,5.951761932256704e-05
-0.06290502961114726,-0.06290502961114726,0.9999678696759984,5.95152958087563e-05
-0.062200297267320084,-0.062200297267320084,1.0000095866702492,5.9528673191337286e-05
-0.06149556497869,-0.06149556497869,0.9999950544332474,5.951771017881269e-05
-0.06079083274563146,-0.06079083274563146,1.0000241279003987,5.953450818381243e-05
-0.06008610056587784,-0.06008610056587784,0.9999565288397617,5.952411187695003e-05
-0.05938136844055677,-0.05938136844055677,1.000035051714923,5.9521850521122635e-05
-0.058676636371567524,-0.058676636371567524,0.9999570041777879,5.9517917635764913e-05
-0.05797190435664064,-0.05797190435664064,1.000023700621235,5.9522919261284623e-05
-0.057267172395387436,-0.057267172395387436,0.9999872623623072,5.95166624671363e-05
-0.05656244048895402,-0.05656244048895402,0.9999965607150273,5.95254497288608e-05
-0.055857708639980075,-0.055857708639980075,1.000025420917334,5.951548785642444e-05
-0.055152976846958524,-0.055152976846958524,0.9999784754460114,5.951326100726301e-05
-0.05444824510572488,-0.05444824510572488,1.000052320952599,5.9516050167740876e-05
-0.05374351342195851,-0.05374351342195851,0.9999047460697941,5.95271003891732e-05
-0.053038781793759426,-0.053038781793759426,1.0000687435903801,5.951551850811005e-05
-0.05233405022037303,-0.05233405022037303,0.9999686034331136,5.9514909501974025e-05
-0.05162931870369505,-0.05162931870369505,1.000027180639708,5.95274577770107e-05
-0.05092458724259288,-0.05092458724259288,1.0000172755403294,5.95423538910376e-05
-0.05021985583856718,-0.05021985583856718,1.0000121575201208,5.9523782025269885e-05
-0.049515124492387486,-0.049515124492387486,0.9999974964506047,5.951922101741575e-05
-0.04881039319875171,-0.04881039319875171,1.0000269118343827,5.952907837501436e-05
-0.04810566196295696,-0.04810566196295696,0.9999946240209926,5.952772924816759e-05
-0.04740093078424792,-0.04740093078424792,0.9999424874434067,5.953155862470671e-05
-0.0466961996622409,-0.0466961996622409,1.000075009347746,5.9522876208084424e-05
-0.045991468596942295,-0.045991468596942295,0.9999574994318051,5.9515125552367136e-05
-0.045286737588347135,-0.045286737588347135,1.000028624425162,5.951686593873031e-05
-0.04458200663796959,-0.04458200663796959,1.0000289754916936,5.953588432205556e-05
-0.043877275744677036,-0.043877275744677036,0.9999630496658396,5.953478384284349e-05
-0.04317254490922338,-0.04317254490922338,1.000008431306987,5.952435193006759e-05
-0.04246781413009941,-0.04246781413009941,1.00005179479411,5.9522897122917136e-05
-0.04176308340843704,-0.04176308340843704,0.9999863009599427,5.9545478659066396e-05
-0.04105835274612488,-0.04105835274612488,0.9999507731275201,5.951991115622277e-05
-0.04035362214051545,-0.04035362214051545,1.0000353807549849,5.9518814794794096e-05
-0.039648891595773963,-0.039648891595773963,0.9999623908444445,5.9527637150757726e-05
-0.0389441611069806,-0.0389441611069806,0.9999969127781357,5.9514123828387234e-05
-0.03823943067829845,-0.03823943067829845,1.0000101097908427,5.9520021445644745e-05
-0.0375347003059396,-0.0375347003059396,0.9999684479548895,5.952529807720871e-05
-0.03682996999482739,-0.03682996999482739,1.000027729463663,5.951522643033197e-05
-0.03612523974268385,-0.03612523974268385,0.9999456810701458,5.952005410038313e-05
-0.03542050954914231,-0.03542050954914231,1.0000538275095379,5.9517236361095734e-05
-0.034715779414568715,-0.034715779414568715,0.9999895751140515,5.952663489623266e-05
-0.03401104934086376,-0.03401104934086376,0.9999989001946894,5.95267136392598e-05
-0.0333063193268849,-0.0333063193268849,0.9999292288533759,5.95092970259931e-05
