time,time,flux,flux_err
-0.4989916109771002,-0.4989916109771002,1.000090399763856,0.00018720603594172487
-0.4969323970659995,-0.4969323970659995,0.9996672879602128,0.0001877768416797431
-0.4948573005610039,-0.4948573005610039,0.9996844333413316,0.0001866807164494976
-0.4935044102392567,-0.4935044102392567,1.000155510994888,0.00017095890330960092
-0.4916621306525485,-0.4916621306525485,0.9999961401113483,0.00017098815295016966
-0.49058723436755824,-0.49058723436755824,0.99996432353242,0.00017564552063092744
-0.4890231114091875,-0.4890231114091875,0.9999546130827222,0.00017760275885461604
-0.4876709712159936,-0.4876709712159936,1.000005102599817,0.00018909908791993598
-0.48621279173457876,-0.48621279173457876,1.000194188409302,0.00016994088153099394
-0.4847454487993673,-0.4847454487993673,1.0001173181336316,0.0001708854880689003
-0.4835107458871789,-0.4835107458871789,1.0002030628767131,0.00017088399105176416
-0.4824469028833846,-0.4824469028833846,1.000211763249026,0.0001872199908275678
-0.48104077361422243,-0.48104077361422243,0.9998326441049263,0.00017278372123532057
-0.479384556489822,-0.479384556489822,0.9997552879004783,0.00017093530345253742
-0.47741364351531956,-0.47741364351531956,0.9998551550623791,0.00017103392880690662
-0.4753286838727945,-0.4753286838727945,0.9999109387041443,0.00017090173293983824
-0.47342753539487603,-0.47342753539487603,1.0000608344544795,0.0001707801399938293
-0.4720607355047832,-0.4720607355047832,0.9997001020255117,0.0001708903961422281
-0.4707339134562062,-0.4707339134562062,0.9999706219259327,0.00017181785902451732
-0.46873933266761014,-0.46873933266761014,1.0001225378939587,0.00017097804720200412
-0.4663072983530583,-0.4663072983530583,0.9997916838136224,0.00017093769692601166
-0.4642507832359115,-0.4642507832359115,1.0000434877785676,0.0001721376964215219
-0.4629667518696806,-0.4629667518696806,0.9999179703883986,0.0001706503891099609
-0.4613846763779293,-0.4613846763779293,0.9995933987105252,0.00017089172021903556
-0.4602669302861614,-0.4602669302861614,0.9998998571453903,0.00017112896817583054
-0.45854368845539284,-0.45854368845539284,0.9998879956355602,0.0001709833455355895
-0.45696682272464384,-0.45696682272464384,1.0002006461043695,0.00017868666968459383
-0.45527132279021315,-0.45527132279021315,1.000277777687009,0.00018697341403053918
-0.45348697243098285,-0.45348697243098285,1.0001096781867176,0.00017121638454438082
-0.4520840230761678,-0.4520840230761678,1.0001626355452549,0.00017025164026604136
-0.45059162093602934,-0.45059162093602934,0.9998974040849161,0.00017086497673686357
-0.4492289274239738,-0.4492289274239738,0.9997196712384342,0.00017097861984240255
-0.4476851408973744,-0.4476851408973744,1.000140607343201,0.00017448975049309988
-0.4460583624510036,-0.4460583624510036,0.9998969722528791,0.0001760527009099017
-0.44474980689556104,-0.44474980689556104,0.9998301679702568,0.00018997351851885667
-0.44303545257789667,-0.44303545257789667,0.9999303031154261,0.00016985197091856885
-0.44120847552330816,-0.44120847552330816,0.9999315764504036,0.00017096348333478956
-0.43993573372936223,-0.43993573372936223,0.9998844208670515,0.00018589295232123958
-0.43860233150408023,-0.43860233150408023,1.0001816138935475,0.00017096711509227176
-0.4373083535429032,-0.4373083535429032,1.000023503390807,0.0001723508823449508
-0.4353730568946048,-0.4353730568946048,1.000004270795846,0.00017103539519882434
-0.4333217851904919,-0.4333217851904919,0.9996932470743378,0.0001709454139194316
-0.43150775158646865,-0.43150775158646865,1.000171622066777,0.00017355117034269896
-0.4299845120040118,-0.4299845120040118,0.9995975682194006,0.0001706742056387619
-0.4284818420135707,-0.4284818420135707,1.0001785232524731,0.0001709527038027029
-0.427301506142976,-0.427301506142976,0.999943486979955,0.0001717014302172409
-0.42547661519929536,-0.42547661519929536,0.9997044832672595,0.0001709571178765753
-0.4231847429757181,-0.4231847429757181,0.9999089762825266,0.00017089096174348532
-0.42192709869268585,-0.42192709869268585,1.0000122047511113,0.00017201814279261632
-0.42042942523767124,-0.42042942523767124,1.000125283654249,0.00017090266723742884
-0.41905810311000097,-0.41905810311000097,1.0000082982842176,0.0001704697334811126
-0.41751570588676257,-0.41751570588676257,1.000078860839961,0.00017086354363574194
-0.41615791250806067,-0.41615791250806067,1.0002549666075269,0.00017103409400871222
-0.41444626521115424,-0.41444626521115424,0.9998701434439912,0.00017714417490414754
-0.41271100180747455,-0.41271100180747455,0.9996474130302886,0.0001794034340552315
-0.41133444842125755,-0.41133444842125755,0.999922250798638,0.00018808915429146985
-0.4095961603736214,-0.4095961603736214,1.0001052752234116,0.00017006323427725285
-0.4081277738812787,-0.4081277738812787,0.9998892010653575,0.00017094461992031562
-0.40700310996180633,-0.40700310996180633,1.0001211992919918,0.00017087649047420667
-0.40553369575936815,-0.40553369575936815,1.0000283744518057,0.0001709647671840971
-0.40422700843846543,-0.40422700843846543,0.9998426528821268,0.0001735897103002857
-0.40248737804577106,-0.40248737804577106,1.0000089138188257,0.00017490350405851874
-0.4011581904647755,-0.4011581904647755,1.0002491072506117,0.00018961993948279554
-0.3993904035909509,-0.3993904035909509,0.9998987262658595,0.00017090340669619059
-0.3973143284936668,-0.3973143284936668,0.999952673337526,0.00017090867325882485
-0.39626165339286673,-0.39626165339286673,0.999973821711335,0.0001841548889005464
-0.39470345164227183,-0.39470345164227183,0.9997779529536027,0.0001708960391697349
-0.3934225480057648,-0.3934225480057648,1.0000232641817832,0.00017213845123928946
-0.391792280205118,-0.391792280205118,1.0002084044849837,0.00017109342007969914
-0.38924932895970416,-0.38924932895970416,0.999737177433099,0.0001727912604823992
-0.38713580587791513,-0.38713580587791513,0.9996264392930279,0.00017087752844270886
-0.38587108023057226,-0.38587108023057226,1.000020246649073,0.0001706295495126418
-0.38424125900201034,-0.38424125900201034,1.0001437725865288,0.00017147808998433758
-0.3827787061607523,-0.3827787061607523,0.9999255767075426,0.0001885867468423296
-0.3815256739675533,-0.3815256739675533,1.0001056631975058,0.0001803727353392986
-0.37983788762430776,-0.37983788762430776,0.9999162964587349,0.0001709593650040914
-0.37799186508273125,-0.37799186508273125,1.0000628310211002,0.0001715475240620022
-0.376724765750987,-0.376724765750987,1.0002339011985573,0.00018173864352244673
-0.3750476281515148,-0.3750476281515148,1.000323455228926,0.00017094579161317557
-0.37391075559935416,-0.37391075559935416,0.9998710877353079,0.00017092988925760083
-0.37206997787579893,-0.37206997787579893,0.999847283105838,0.00017096515592868481
-0.3709935713901359,-0.3709935713901359,0.9997506499491674,0.00017577040315499475
-0.3694316043474828,-0.3694316043474828,0.9998062524005145,0.00017777061668554562
-0.36807802292169073,-0.36807802292169073,0.9999722318978037,0.00018894386607072204
-0.36661961183708625,-0.36661961183708625,0.9997479629384991,0.00016991059942791578
-0.36515171461433055,-0.36515171461433055,0.9998343937383595,0.0001709059203291009
-0.3639176317497913,-0.3639176317497913,1.0000225033549444,0.00017087197993674396
-0.362853780088335,-0.362853780088335,0.9999986286474627,0.0001873627274190872
-0.3614484880345117,-0.3614484880345117,0.9999439535800174,0.00017285670347695056
-0.35979253458790483,-0.35979253458790483,0.9998250170324056,0.00017094345469117152
-0.357821293464076,-0.357821293464076,1.000001135091389,0.00017104528568229603
-0.35573434534890114,-0.35573434534890114,1.0004847768427159,0.0001709167626495754
-0.3538350381066266,-0.3538350381066266,1.0000457895801458,0.00017077957928193584
-0.35242681865711345,-0.35242681865711345,1.0001436354048616,0.00017097029357505204
-0.3508596720472269,-0.3508596720472269,0.9999127703378867,0.00017188031790231102
-0.3486432493045868,-0.3486432493045868,0.9999361799079269,0.00017098058408675226
-0.3463192472154333,-0.3463192472154333,1.0001544419201478,0.00017089785997333353
-0.3442653665035323,-0.3442653665035323,0.9998014713903794,0.00017217825523461555
-0.34313088060953306,-0.34313088060953306,0.9995885585923056,0.00017061166864709332
-0.34146381803438997,-0.34146381803438997,0.999813131284103,0.00017087633950020267
-0.3405001056547917,-0.3405001056547917,0.9998053578886266,0.00017124597535069698
-0.3385734881543613,-0.3385734881543613,0.9998206492048544,0.00017887398413793203
-0.33724040485030854,-0.33724040485030854,1.0001499091632609,0.00017088667631533287
-0.33567864587166696,-0.33567864587166696,1.0000111072288276,0.0001867187418012439
-0.33391782342878285,-0.33391782342878285,0.9998675835400876,0.00017064573467415065
-0.3328469328764186,-0.3328469328764186,0.9998866568185486,0.0001702373442934363
-0.33119662056342347,-0.33119662056342347,0.9998591218408235,0.0001708510760491068
-0.3300238344476384,-0.3300238344476384,0.999902482131074,0.000170963524911931
-0.328284312782489,-0.328284312782489,0.9997975580886063,0.00017462810700356982
-0.3268182159234129,-0.3268182159234129,1.0002941445678109,0.00017625288463473784
-0.32548716616947787,-0.32548716616947787,1.0000582690811388,0.0001899606783491437
-0.3237141144985799,-0.3237141144985799,1.0000661182294348,0.00017090256268758073
-0.3221328706153145,-0.3221328706153145,0.9997275687016774,0.00016985712297842216
-0.3207628186835791,-0.3207628186835791,0.9999602673366628,0.00017086618558755968
-0.3195987900486216,-0.3195987900486216,1.0000918515740564,0.00018616428632753647
-0.31818679864300065,-0.31818679864300065,1.0000391584146637,0.000172379904148417
-0.31652874637584316,-0.31652874637584316,0.999911495846596,0.00017096538746372468
-0.3146200879775279,-0.3146200879775279,1.0000105248774827,0.00017103275569482594
-0.31276795857338585,-0.31276795857338585,0.9998556593426666,0.0001737086359339778
-0.31079994195097244,-0.31079994195097244,1.0000980525037744,0.00017090406548209326
-0.30954597564705183,-0.30954597564705183,0.9998385213082563,0.00017071375513402296
-0.3081154639250599,-0.3081154639250599,1.0001463642574722,0.00017164252130133216
-0.3067278566035384,-0.3067278566035384,1.0002453243474532,0.0001710869742064914
-0.3044253525971726,-0.3044253525971726,1.0001767827421557,0.00017093849730495599
-0.3026836698045372,-0.3026836698045372,0.9999306127988274,0.00017105219138928605
-0.3010063375630125,-0.3010063375630125,0.9999639720819603,0.00017186680535736222
-0.2998787496748264,-0.2998787496748264,1.000131437566367,0.0001705389867296445
-0.29811438769029336,-0.29811438769029336,1.0000657346959172,0.00017087770019639958
-0.29694129510389755,-0.29694129510389755,1.000142083510307,0.00017101024793795993
-0.29511741492096916,-0.29511741492096916,0.9999912205012336,0.00017730925396900607
-0.2936022270492685,-0.2936022270492685,0.9997711550798798,0.00017960208883766791
-0.29242007087086674,-0.29242007087086674,0.9996868240216955,0.0001879473433799368
-0.290636460854148,-0.290636460854148,0.999881440580214,0.00017102924522842234
-0.289158633111947,-0.289158633111947,1.000034835351104,0.00017014496683907148
-0.2877406718245766,-0.2877406718245766,0.9999045097083666,0.00017088672841426676
-0.2866215256974101,-0.2866215256974101,0.9998062411147781,0.00017089212179914145
-0.2851179752520693,-0.2851179752520693,0.9998707734209369,0.00017366887686025794
-0.28355287292288267,-0.28355287292288267,0.999761446049561,0.00017497871803643397
-0.2822301603955566,-0.2822301603955566,1.0001641958146918,0.00018982703044093222
-0.28045670390347366,-0.28045670390347366,1.0001102449234383,0.0001708649464258922
-0.27808945386641426,-0.27808945386641426,0.9997606007146802,0.0001708802823047422
-0.27684845534240593,-0.27684845534240593,0.9999696829431886,0.00018438535854926695
-0.27543547639143073,-0.27543547639143073,1.0001563785220946,0.00017093999367958384
-0.27417652515214286,-0.27417652515214286,0.9998970464044884,0.00017212421085454298
-0.2725189103097364,-0.2725189103097364,0.999925909760153,0.00017103753040946643
-0.2702720236142341,-0.2702720236142341,1.0001724996408983,0.00017099709897638594
-0.2677817331670667,-0.2677817331670667,0.9998600922549933,0.00017289102751900394
-0.26664857555369964,-0.26664857555369964,1.0000064108693474,0.00017066684686173155
-0.26485315319296204,-0.26485315319296204,0.9997394707947596,0.00017136670403037932
-0.2635283333103871,-0.2635283333103871,1.0000045560471098,0.00018881666919310714
-0.26203623565888845,-0.26203623565888845,0.9999816289632616,0.00018056251282395197
-0.26024620092794065,-0.26024620092794065,1.0000753817975414,0.00017097550466570042
-0.2583986142984941,-0.2583986142984941,1.0001100967227181,0.00017155581597143814
-0.25713178986989077,-0.25713178986989077,0.9998981774974067,0.00018197084425005807
-0.2554546949279029,-0.2554546949279029,1.000188160943059,0.0001709520610498197
-0.2543171009638172,-0.2543171009638172,1.000020488517698,0.00017092232602739684
-0.25242679361108455,-0.25242679361108455,1.0001139216134676,0.00017099962860656832
-0.25108375956406237,-0.25108375956406237,1.000089584152263,0.00017597084457209006
-0.24954421765869483,-0.24954421765869483,0.9999740836211475,0.00019518001716804773
-0.24777449638640975,-0.24777449638640975,1.0002864341219995,0.00017091522471061185
-0.24649900736403652,-0.24649900736403652,1.000043908318673,0.000169930893530138
-0.24500329283837347,-0.24500329283837347,1.0000853567571144,0.00017099144318307246
-0.24394298016559332,-0.24394298016559332,0.9998606967547115,0.00018735742635781375
-0.24267954340029974,-0.24267954340029974,0.9999248028919221,0.00017096851187324802
-0.2413781065035437,-0.2413781065035437,0.9997597105335322,0.00017295141957600102
-0.23945055524091002,-0.23945055524091002,0.9998757066280936,0.0001709903105399239
-0.23730320889371798,-0.23730320889371798,0.9999932738085618,0.00017095742913075454
-0.23521439071191708,-0.23521439071191708,0.9997552336251049,0.00017083866195558744
-0.23380820370075525,-0.23380820370075525,1.0000166438864828,0.00017083201854124354
-0.2321439186212956,-0.2321439186212956,1.000040721687437,0.00017092620548299464
-0.23060123113027658,-0.23060123113027658,0.9997724282109388,0.00017198589699172025
-0.22872808794199956,-0.22872808794199956,1.0000624477128883,0.0001709464260615401
-0.22672667903316324,-0.22672667903316324,1.0002165689658356,0.00017090898738607725
-0.22467297507319017,-0.22467297507319017,1.0000086512221484,0.00017224741620394383
-0.22353718106533052,-0.22353718106533052,0.9999522242502273,0.00017066162520411958
-0.22187139901070624,-0.22187139901070624,0.9996066982003287,0.00017084505956641355
-0.22090654146741145,-0.22090654146741145,1.000237148189035,0.0001713173718349807
-0.2189812484451977,-0.2189812484451977,0.9999806950278955,0.00017906716523530757
-0.21753830692177872,-0.21753830692177872,1.0002655970871357,0.00017089179908933745
-0.2160859711941157,-0.2160859711941157,1.000024047148159,0.00018647565717827292
-0.2143014181048784,-0.2143014181048784,1.0000511045590517,0.00017128610147568586
-0.21289613159460713,-0.21289613159460713,0.9999309911279066,0.00017028688324457295
-0.21140619235447958,-0.21140619235447958,1.0001934498104983,0.00017091164954186427
-0.2100440800844808,-0.2100440800844808,0.9999723898906122,0.0001709869440218673
-0.2085456782784604,-0.2085456782784604,1.000097203903644,0.00017474718324951644
-0.20722638808947522,-0.20722638808947522,0.9998036189616026,0.00017638599359729384
-0.20589429550018395,-0.20589429550018395,1.000214791932183,0.00018991820460432618
-0.20412129900505532,-0.20412129900505532,1.000069138324748,0.000170885188527341
-0.2024155746345059,-0.2024155746345059,1.000106098704745,0.0001698879057441141
-0.2009729448836879,-0.2009729448836879,1.000095572413998,0.00017087563094293716
-0.19969536715143477,-0.19969536715143477,1.0001055100634635,0.00018632396033874522
-0.19838021743125864,-0.19838021743125864,0.9999565484830013,0.00017242403638023028
-0.19656247947423253,-0.19656247947423253,0.9998448453091839,0.00017108071312542343
-0.194558154335391,-0.194558154335391,0.9999081170636049,0.00017087255291880178
-0.1929500284306414,-0.1929500284306414,1.0001785801418128,0.00017385904333246696
-0.19120707737965859,-0.19120707737965859,0.9998265409820364,0.0001708864416740527
-0.189952107375575,-0.189952107375575,0.9998260240999614,0.00017070136149128994
-0.1885232585387712,-0.1885232585387712,0.9999985168830371,0.0001716592888511099
-0.1871354526585492,-0.1871354526585492,0.9998164302036943,0.0001710482663148059
-0.1847803138436575,-0.1847803138436575,1.0000336960010345,0.00017094549880972983
-0.1827421666625014,-0.1827421666625014,0.999895790681044,0.00017209241638971163
-0.1812440008216072,-0.1812440008216072,0.9999893619916742,0.00017089601733897918
-0.179847124513617,-0.179847124513617,1.0000641370710592,0.00017048423072084102
-0.17815961984961176,-0.17815961984961176,0.9998484658038086,0.00017099972687521369
-0.17654025908414042,-0.17654025908414042,0.9998689247843391,0.0001709766195407899
-0.17496491639976738,-0.17496491639976738,0.9998933160329354,0.00017748127386804364
-0.1735283613874344,-0.1735283613874344,0.9998991941181359,0.000179906802916916
-0.1721485585650953,-0.1721485585650953,0.9999391984593201,0.0001879443592141512
-0.17040952087118058,-0.17040952087118058,0.999881907040122,0.00017008820562339596
-0.16913054620963522,-0.16913054620963522,1.0000051038723041,0.00017092439450717812
-0.167986577325064,-0.167986577325064,0.9999940112303435,0.00017089203843157586
-0.1666833759540168,-0.1666833759540168,1.0000351625660897,0.00017091774927713164
-0.16530158864188707,-0.16530158864188707,0.9998567853008385,0.00017379558642497848
-0.16360670777867198,-0.16360670777867198,1.0000591283038607,0.00017514805765346753
-0.16231076759795543,-0.16231076759795543,0.9997443731053874,0.00018983703222540512
-0.16047118067217525,-0.16047118067217525,0.9998999549235975,0.00017087658564404092
-0.15812865965490347,-0.15812865965490347,0.9998014580963648,0.00017088384209096842
-0.15707458886899986,-0.15707458886899986,0.9999415471916592,0.000184607937628298
-0.15551961922756163,-0.15551961922756163,1.0001850146138582,0.00017090926122045468
-0.15423762367790914,-0.15423762367790914,0.999968274423663,0.00017219841407877515
-0.15260700847866246,-0.15260700847866246,1.0001173753397468,0.0001711037452927806
-0.15006584842994924,-0.15006584842994924,1.000128163755313,0.00017299228391409104
-0.14795004593615885,-0.14795004593615885,0.9999116177301548,0.00017090990644098267
-0.14668474257705383,-0.14668474257705383,0.9999146207988637,0.00017065842883968798
-0.14505597733004832,-0.14505597733004832,1.0000485073940262,0.00017153497920802032
-0.1434746046063083,-0.1434746046063083,0.9999690707315299,0.00017099685025883505
-0.14148722205500236,-0.14148722205500236,0.9997991988912529,0.00018082357406304467
-0.13951594121172092,-0.13951594121172092,0.9999718268833397,0.00017169228067623975
-0.13798573953754384,-0.13798573953754384,0.9998392844409036,0.00017089491821704888
-0.1366314994331333,-0.1366314994331333,0.9998481469215449,0.00017039405395077975
-0.13507185402413596,-0.13507185402413596,0.999980793972383,0.00017088938733902882
-0.13371234130099766,-0.13371234130099766,0.999908218673949,0.00017100282823618232
-0.13200533334893408,-0.13200533334893408,1.000124685973955,0.00017615084527796326
-0.1301692446839297,-0.1301692446839297,0.9997787981703279,0.00017808505736427183
-0.1287709564472607,-0.1287709564472607,0.9998301481360297,0.00020509137644634953
-0.1274210526549723,-0.1274210526549723,1.0003536249202338,0.00016997465382604933
-0.12596425008305231,-0.12596425008305231,0.9999129914638525,0.00017091390404663572
-0.12473140733054607,-0.12473140733054607,0.9999464154264313,0.00017087057317185196
-0.1234245478604862,-0.1234245478604862,0.9997111289162233,0.0001709057338275569
-0.12204443081645877,-0.12204443081645877,1.0002142498212119,0.00017304049553785176
-0.12023487866172218,-0.12023487866172218,1.0002444120392655,0.00017109489348038695
-0.11814420846349094,-0.11814420846349094,0.9999205933978959,0.0001709855302876471
