time,time,flux,flux_err
-0.49953524580450903,-0.49953524580450903,1.000049694331927,6.91740617493122e-05
-0.4985714512095001,-0.4985714512095001,1.000091651186229,6.887353553360726e-05
-0.4977039996403619,-0.4977039996403619,0.9999987645609991,6.391362680390116e-05
-0.4970486796526529,-0.4970486796526529,0.99994026273604,6.383679495011923e-05
-0.49628613141467215,-0.49628613141467215,1.0000417858405044,6.347825121824636e-05
-0.49539870215012344,-0.49539870215012344,1.0000224133706714,6.330783001797226e-05
-0.4948343092961295,-0.4948343092961295,1.0001172644097562,6.235385788286763e-05
-0.49414921735587997,-0.49414921735587997,1.0000216108299902,6.34312433740549e-05
-0.49359738791390556,-0.49359738791390556,1.0000883120980528,6.39277357173996e-05
-0.4929985623806715,-0.4929985623806715,0.9998865772597372,6.335108278088497e-05
-0.4925859395043517,-0.4925859395043517,1.0000665734549392,6.441316767058725e-05
-0.4917191164102405,-0.4917191164102405,1.0000737041815881,6.675913074441008e-05
-0.49102015211537947,-0.49102015211537947,1.0000523288621497,6.287801194543899e-05
-0.4901649156017811,-0.4901649156017811,1.0000533421867377,6.293477387162708e-05
-0.4890731975683593,-0.4890731975683593,1.0000891617943282,6.344615380336587e-05
-0.48851720913226016,-0.48851720913226016,1.0000060150041004,6.436864199716214e-05
-0.48799914630217245,-0.48799914630217245,1.000121361921051,6.387191650919006e-05
-0.4871060283265251,-0.4871060283265251,1.0000661863526201,6.38268465927961e-05
-0.4865812259980885,-0.4865812259980885,1.0000708559156393,6.287359899647687e-05
-0.48569689876167105,-0.48569689876167105,0.9999841457180813,6.297274025029382e-05
-0.4848625972634181,-0.4848625972634181,0.9998913111659302,6.339094855139417e-05
-0.48416359499751704,-0.48416359499751704,1.0000747098086245,6.45109918664212e-05
-0.48318707711005116,-0.48318707711005116,1.0001224510597022,6.330969467973022e-05
-0.48225614513794424,-0.48225614513794424,1.0001517455997841,6.283939473117896e-05
-0.48136109815022793,-0.48136109815022793,0.9999864904750135,6.295291321512173e-05
-0.4807802055191132,-0.4807802055191132,0.999989988617949,6.345499330559075e-05
-0.4801719128226978,-0.4801719128226978,1.000159754745353,6.388006561627002e-05
-0.47963823121390303,-0.47963823121390303,0.999929305286642,6.434623450452636e-05
-0.4781886811011645,-0.4781886811011645,1.0000288282312755,6.282602015323954e-05
-0.47710519201136775,-0.47710519201136775,0.999909475634216,6.292461430281876e-05
-0.47637806152633855,-0.47637806152633855,1.0000018821903771,6.393082501724942e-05
-0.4757726299583737,-0.4757726299583737,1.0000275223611934,6.386647935688707e-05
-0.47535772834016826,-0.47535772834016826,1.0000227751213149,6.472335728456376e-05
-0.47432652602801684,-0.47432652602801684,1.0000929268926722,6.382058218027084e-05
-0.4736284947524837,-0.4736284947524837,1.000003693708575,6.286045416901435e-05
-0.47272916866786546,-0.47272916866786546,1.000034071954621,6.348211387551827e-05
-0.4718742404162185,-0.4718742404162185,0.9999284795341682,6.290317904266929e-05
-0.4713451556475775,-0.4713451556475775,1.0000447368066046,6.617326177890003e-05
-0.4706158849396161,-0.4706158849396161,1.0000003337202188,6.336054911421348e-05
-0.4695418517490907,-0.4695418517490907,1.0000274311500597,6.330076722365908e-05
-0.46872913504994357,-0.46872913504994357,1.0000268522286968,6.296622392833544e-05
-0.4679828336717037,-0.4679828336717037,0.9999891617262773,6.343952910032169e-05
-0.46726884163872456,-0.46726884163872456,1.0000528830690734,6.383183824593971e-05
-0.46642899925864184,-0.46642899925864184,0.9999567699863385,6.359335711452545e-05
-0.46528670474217504,-0.46528670474217504,1.000006035436148,6.32901363132498e-05
-0.4642965523111343,-0.4642965523111343,1.0000697016545728,6.292999642269882e-05
-0.4636451310645498,-0.4636451310645498,0.9999226728285899,6.339952960184279e-05
-0.46303711798464064,-0.46303711798464064,0.9999437568891864,6.33744980077766e-05
-0.462607407507312,-0.462607407507312,0.9999902904161715,6.487352011265021e-05
-0.46184123993734827,-0.46184123993734827,1.000181960920973,6.402005976203983e-05
-0.46103431841547715,-0.46103431841547715,0.9999157647635414,6.336043082678702e-05
-0.46032457688561407,-0.46032457688561407,1.000016829607365,6.240103708748474e-05
-0.4591495081469475,-0.4591495081469475,1.0000397519773117,6.3437877109646e-05
-0.4584246225669631,-0.4584246225669631,1.0001263568949006,6.382250178322459e-05
-0.45776779560546854,-0.45776779560546854,0.9999765876779418,6.390710110419943e-05
-0.4569029597900226,-0.4569029597900226,0.9998890557441895,6.378319491049651e-05
-0.4562026003921346,-0.4562026003921346,0.999941074247354,6.287777064947273e-05
-0.4553023788466817,-0.4553023788466817,1.0000032361352535,6.345925331894905e-05
-0.4545594460592838,-0.4545594460592838,1.0000288481181507,6.38669059762766e-05
-0.45399258882171123,-0.45399258882171123,0.999980448307291,6.392057425963207e-05
-0.4528529955307022,-0.4528529955307022,1.0000616938460847,6.380673964723957e-05
-0.4520679185654444,-0.4520679185654444,0.9998793878384806,6.238297253183995e-05
-0.45112376394390596,-0.45112376394390596,1.0000210585501366,6.293367779316282e-05
-0.4506057653816242,-0.4506057653816242,1.0000081177226658,6.394812301910574e-05
-0.450005306975072,-0.450005306975072,1.0001478832092356,6.384134923673449e-05
-0.44955072439915966,-0.44955072439915966,0.9998604460700395,6.485150860579135e-05
-0.44829037130766664,-0.44829037130766664,1.000065068699418,6.332261688176259e-05
-0.4477308743531466,-0.4477308743531466,1.000105615320234,6.254609197360115e-05
-0.4467162428634765,-0.4467162428634765,0.9998628107207855,6.339524653908834e-05
-0.4460579552549461,-0.4460579552549461,0.9999406478764616,6.392324260923154e-05
-0.44554205558742976,-0.44554205558742976,1.0001167601532586,6.385203187767742e-05
-0.44493908361037027,-0.44493908361037027,1.0000787556487627,6.436751960286848e-05
-0.44392905400891325,-0.44392905400891325,0.9999431005109394,6.381425174171181e-05
-0.4433820319798542,-0.4433820319798542,1.000075711336287,6.239129569882151e-05
-0.44248297043304774,-0.44248297043304774,0.9999844964126228,6.34791746519591e-05
-0.4416896959352016,-0.4416896959352016,0.999991403559723,6.644252981439869e-05
-0.4411641506827436,-0.4411641506827436,0.9999828240956777,6.45133139145819e-05
-0.4400239909191441,-0.4400239909191441,1.0000318997791597,6.379583330437178e-05
-0.4392647444386967,-0.4392647444386967,1.0000049242338875,6.237577385366782e-05
-0.43831328116648366,-0.43831328116648366,0.9999907469974463,6.293573809818443e-05
-0.4376808035944123,-0.4376808035944123,1.0000932397412163,6.391104102938629e-05
-0.4370943392488698,-0.4370943392488698,0.9999261460691514,6.433863739955007e-05
-0.4364564228402742,-0.4364564228402742,1.0000506421442947,6.425368156098363e-05
-0.43535166342699083,-0.43535166342699083,0.9998803201592243,6.332406130540633e-05
-0.43448114399798216,-0.43448114399798216,0.9999292147245408,6.293545043888101e-05
-0.43361341923082364,-0.43361341923082364,0.9999552328732975,6.337481459422213e-05
-0.4329787313879933,-0.4329787313879933,0.9999192118865707,6.39084726454047e-05
-0.43255247759079796,-0.43255247759079796,1.0001355844107613,6.43510485727276e-05
-0.4316732175699144,-0.4316732175699144,1.0001040024502248,6.436196126937152e-05
-0.4308915736866766,-0.4308915736866766,0.9999984921166316,6.283890427449186e-05
-0.4298494172609935,-0.4298494172609935,0.9998508902540181,6.347389141626942e-05
-0.428912533033872,-0.428912533033872,1.00003293015813,6.340547739220531e-05
-0.42835932012239936,-0.42835932012239936,1.000009502840798,6.458305517210427e-05
-0.42770469903189223,-0.42770469903189223,1.0000454682420044,6.391044842719436e-05
-0.4268467118883564,-0.4268467118883564,0.9999774191734796,6.379038238774004e-05
-0.42605324756150365,-0.42605324756150365,1.0000796514454504,6.23990996694862e-05
-0.4252352155628614,-0.4252352155628614,0.9999766544493152,6.34592342649005e-05
-0.4244990483712172,-0.4244990483712172,1.0000640576806386,6.385256331911214e-05
-0.423933557561395,-0.423933557561395,0.9999872683144572,6.386456635361644e-05
-0.4230249083790113,-0.4230249083790113,0.9999676050417735,6.336799290334717e-05
-0.42213509545181294,-0.42213509545181294,0.999960666186303,6.284444912020096e-05
-0.4213646939213504,-0.4213646939213504,1.0000858472746639,6.346172553940404e-05
-0.4207679486935376,-0.4207679486935376,1.0000304074133866,6.340270836928269e-05
-0.42015780131332575,-0.42015780131332575,0.9998768905221762,6.33797281176032e-05
-0.41970256204585893,-0.41970256204585893,1.0000331071484794,6.486653981790132e-05
-0.4187027996304096,-0.4187027996304096,1.000078594215547,6.387839652091575e-05
-0.41799331326255923,-0.41799331326255923,1.0000043584805478,6.292457820851996e-05
-0.4171984318592877,-0.4171984318592877,1.0001119614680138,6.346631312784251e-05
-0.41637478387201554,-0.41637478387201554,1.0001084033519985,6.337828914957313e-05
-0.415756102247542,-0.415756102247542,0.9999682643962504,6.389555497470455e-05
-0.4153350560169201,-0.4153350560169201,1.0000747207564384,6.435991620040936e-05
-0.41451115048257636,-0.41451115048257636,0.999954137735031,6.337071672746093e-05
-0.41380482072854646,-0.41380482072854646,1.0001324788246362,6.379058346511521e-05
-0.41312103441014186,-0.41312103441014186,1.00005365779605,6.244123987885066e-05
-0.41226572612067686,-0.41226572612067686,0.9999390174309136,6.39730980947156e-05
-0.4115144702453108,-0.4115144702453108,1.0000770115795476,6.71064408710927e-05
-0.41100091788248394,-0.41100091788248394,1.0000154489185817,6.383343474959643e-05
-0.40989952148520387,-0.40989952148520387,0.9999883978847144,6.382582481145852e-05
-0.4091967715983628,-0.4091967715983628,1.0000753820104182,6.238503758222792e-05
-0.40824785012955545,-0.40824785012955545,1.000011481630975,6.293322700060832e-05
-0.4076218631249503,-0.4076218631249503,0.9999949440445942,6.442430614598968e-05
-0.40704045216189116,-0.40704045216189116,0.9999066850055531,6.381652153693659e-05
-0.4063969342576456,-0.4063969342576456,1.0000729257853027,6.448043999342622e-05
-0.4052918327775842,-0.4052918327775842,1.0000256708730286,6.332486597864679e-05
-0.4044156918294902,-0.4044156918294902,1.0000308016009367,6.293220293383059e-05
-0.4035521242309187,-0.4035521242309187,1.0000905222226342,6.337983983076274e-05
-0.40292148831285884,-0.40292148831285884,1.0000534510186363,6.390808923236019e-05
-0.40249660018089345,-0.40249660018089345,1.0000108335010407,6.433388571839597e-05
-0.40161624649044825,-0.40161624649044825,0.999991513244764,6.434502584477296e-05
-0.40082737364136845,-0.40082737364136845,1.0000203332217972,6.28337162918447e-05
-0.40001807551743696,-0.40001807551743696,0.999919660693714,6.29077274199294e-05
-0.3992809788163868,-0.3992809788163868,0.9999000599743532,6.396632091296331e-05
-0.3985929006121296,-0.3985929006121296,1.000047283307388,6.511098884559238e-05
-0.3980966312534292,-0.3980966312534292,1.0000635339853339,6.386210655392384e-05
-0.39726466549254835,-0.39726466549254835,0.9999280096251081,6.381790743880033e-05
-0.3964873951430491,-0.3964873951430491,1.0002380089895897,6.283816676042265e-05
-0.3956141899136128,-0.3956141899136128,0.9999142353779554,6.241372470601449e-05
-0.3948735921818297,-0.3948735921818297,1.000068795810023,6.394732498459291e-05
-0.3941848553105956,-0.3941848553105956,1.0000986470605029,6.436590088834981e-05
-0.3934518807211134,-0.3934518807211134,1.0000497093466154,6.297532390831476e-05
-0.39239247379227893,-0.39239247379227893,0.9998982430866545,6.329824164445387e-05
-0.3917992830662115,-0.3917992830662115,0.9999205642127021,6.28983648318827e-05
-0.3909986391015991,-0.3909986391015991,0.9999543201047996,6.342032235512857e-05
-0.39048231615379336,-0.39048231615379336,0.9999386358600907,6.344156308223102e-05
-0.3898921155727294,-0.3898921155727294,0.9999709695673669,6.383765666592473e-05
-0.3894931617171096,-0.3894931617171096,0.999787063909538,6.442125606361803e-05
-0.3883988688328827,-0.3883988688328827,1.0000522209423515,6.38318963032964e-05
-0.38781947489405866,-0.38781947489405866,0.9998860156695322,6.236734056819133e-05
-0.38688521726362524,-0.38688521726362524,1.0000031131265008,6.295064969159327e-05
-0.3859400776978873,-0.3859400776978873,1.000026051940279,6.390579197145048e-05
-0.38542854562183493,-0.38542854562183493,1.0000737039470515,6.38552473899369e-05
-0.38482465615161343,-0.38482465615161343,0.9999326137015639,6.391106927870764e-05
-0.38395666237338444,-0.38395666237338444,0.9999575911790878,6.430168135057478e-05
-0.38342786605426227,-0.38342786605426227,1.0000228151404937,6.236907998958104e-05
-0.38235835031227905,-0.38235835031227905,0.9998992768418734,6.346638943359752e-05
-0.3815454533440061,-0.3815454533440061,0.9999720460778606,6.39979735573977e-05
-0.3809411324400571,-0.3809411324400571,0.9999369944912326,6.382706068852526e-05
-0.37964280314554344,-0.37964280314554344,0.9999649501285383,6.333149772455036e-05
-0.3789682005692157,-0.3789682005692157,0.9999767768760005,6.238890171430987e-05
-0.37805430568259907,-0.37805430568259907,1.0000482710788443,6.342270806064481e-05
-0.3775148802422336,-0.3775148802422336,0.999921294968634,6.396827944026813e-05
-0.3769827950083709,-0.3769827950083709,0.9999899063327582,6.382618361947428e-05
-0.3760338255153329,-0.3760338255153329,0.9999778049498763,6.386540928273005e-05
-0.37479993829329034,-0.37479993829329034,0.9999665080978645,6.236156044630332e-05
-0.3737690446600027,-0.3737690446600027,0.9998971752235388,6.339856671246056e-05
-0.37311111828894356,-0.37311111828894356,0.9999552483868503,6.392087682819234e-05
-0.37259326618659544,-0.37259326618659544,1.0001086153976835,6.384610972348797e-05
-0.3718397080250725,-0.3718397080250725,1.0001404172331552,6.439104273232049e-05
-0.37085781568166565,-0.37085781568166565,0.9999565600047322,6.330014014081972e-05
-0.3700681255962991,-0.3700681255962991,1.0000121937173543,6.242264734398429e-05
-0.3692208285399829,-0.3692208285399829,1.0001618324960384,6.396720088382828e-05
-0.3685356406836945,-0.3685356406836945,1.0000222715474059,6.579469747736865e-05
-0.367964036516787,-0.367964036516787,0.9999730499750313,6.382627669802664e-05
-0.36688917415231115,-0.36688917415231115,0.9999659283387476,6.333684744630087e-05
-0.36616370512711,-0.36616370512711,1.0001138546604689,6.239291874248565e-05
-0.3652346012291673,-0.3652346012291673,1.0000256613148197,6.343180955865812e-05
-0.36446512977199746,-0.36446512977199746,1.0000160710173436,6.387695132471498e-05
-0.3639434646414884,-0.3639434646414884,0.9999950287972007,6.385945494581161e-05
-0.3629027027142001,-0.3629027027142001,1.000049616209848,6.35605749988817e-05
-0.3619774365099147,-0.3619774365099147,0.9999937875384152,6.28617996365049e-05
-0.3609396471380023,-0.3609396471380023,1.000015033985656,6.341792309186909e-05
-0.36028288952002185,-0.36028288952002185,0.9999996276663203,6.393337288887128e-05
-0.3597588325937977,-0.3597588325937977,0.9999368783639969,6.382547468793572e-05
-0.3593260180488869,-0.3593260180488869,0.9999036041416087,6.452986086280941e-05
-0.35814177593856583,-0.35814177593856583,1.0000043395515372,6.383119428243201e-05
-0.35770102707683693,-0.35770102707683693,1.0000356760461924,6.238604982978343e-05
-0.3565933292549744,-0.3565933292549744,0.9999677242287998,6.347765386085919e-05
-0.3557018159641302,-0.3557018159641302,0.9999492069741656,6.426251374012267e-05
-0.3552143728571536,-0.3552143728571536,1.0000319273824538,6.385515957601419e-05
-0.35438313060440124,-0.35438313060440124,0.9999822684916386,6.383431746035667e-05
-0.3536116008210229,-0.3536116008210229,0.9999087329386747,6.28444616272994e-05
-0.3528276793636905,-0.3528276793636905,1.0001366296719103,6.29005149212765e-05
-0.35198703438218215,-0.35198703438218215,1.0000067128172587,6.394862422600488e-05
-0.3513382362711127,-0.3513382362711127,0.999921527643845,6.440698385253164e-05
-0.35064114006308955,-0.35064114006308955,0.999994537707669,6.335579711468812e-05
-0.3494509415773791,-0.3494509415773791,0.9999796448864773,6.328062239445031e-05
-0.3486563374615798,-0.3486563374615798,1.0000459752538844,6.297455471815345e-05
-0.3479098947500461,-0.3479098947500461,0.9999514438813133,6.338595165564554e-05
-0.34735012175515295,-0.34735012175515295,0.9999953525650506,6.3424125743208e-05
-0.3468248238103115,-0.3468248238103115,1.0000247900125143,6.43088405216417e-05
-0.34601044340088266,-0.34601044340088266,0.9999417371586258,6.392107130542783e-05
-0.34513375999813434,-0.34513375999813434,0.9998998068641111,6.34600751746387e-05
-0.344284730124491,-0.344284730124491,1.0000725264406576,6.293758816438463e-05
-0.3434297527033777,-0.3434297527033777,0.9999347814507054,6.337920408613256e-05
-0.3428073299808602,-0.3428073299808602,0.9999252437670035,6.389029465767009e-05
-0.342385110516625,-0.342385110516625,1.000062651606839,6.43531167842364e-05
-0.34143786748172716,-0.34143786748172716,0.9999633261562032,6.382555986258711e-05
-0.34078006909549,-0.34078006909549,1.0001216811450075,6.333494211526842e-05
-0.3400002269336255,-0.3400002269336255,0.9998857398253238,6.24165111488502e-05
-0.33916076114110183,-0.33916076114110183,0.999969287864249,6.396025443171756e-05
-0.33844840319361535,-0.33844840319361535,1.000048661582352,6.756168436995518e-05
-0.33783088701966335,-0.33783088701966335,1.0000962036257248,6.335113743574262e-05
-0.3366218762450444,-0.3366218762450444,1.0000141828727085,6.3288436699632e-05
-0.33584896889005905,-0.33584896889005905,0.9999606151798479,6.24056678238173e-05
-0.33508946572692366,-0.33508946572692366,1.000122755624958,6.394480859747756e-05
-0.33440018733381294,-0.33440018733381294,1.0000167253612884,6.338664635043345e-05
-0.33384956898298696,-0.33384956898298696,0.9999461634935642,6.435746204124684e-05
-0.3330009142322524,-0.3330009142322524,0.9999769687529974,6.378297008531719e-05
-0.3320804445327667,-0.3320804445327667,1.0000923395775134,6.329560922912969e-05
-0.3310346891732479,-0.3310346891732479,0.9999234652903264,6.343049940119551e-05
-0.33036848749252384,-0.33036848749252384,0.9999264438629399,6.344552556282048e-05
-0.32977935724047713,-0.32977935724047713,1.000086672337485,6.384217903321538e-05
-0.3293310677880072,-0.3293310677880072,0.9999227739689562,6.487065490925941e-05
-0.32822538883774544,-0.32822538883774544,0.9999429960383244,6.379096474897125e-05
-0.32749483061779755,-0.32749483061779755,1.000038820291749,6.241079890056893e-05
-0.32648356237623377,-0.32648356237623377,0.9999803249420642,6.398230874313137e-05
-0.325644467138045,-0.325644467138045,1.000041535277616,6.46532609539442e-05
-0.3251827149033488,-0.3251827149033488,1.0000870983143848,6.33867009670748e-05
-0.3245645590119238,-0.3245645590119238,0.9998800450310512,6.383752783270775e-05
-0.3236478577295202,-0.3236478577295202,0.9999200790661202,6.329416928577684e-05
-0.32285183524654715,-0.32285183524654715,1.00003230405948,6.243575703613042e-05
-0.32208943836812975,-0.32208943836812975,0.9999457786871704,6.396054084679956e-05
-0.32137310813413933,-0.32137310813413933,0.9999233053846932,6.383473223103922e-05
-0.32071105496725066,-0.32071105496725066,0.9999937779811802,6.338999685674687e-05
-0.3195212165097473,-0.3195212165097473,1.0000905740307735,6.333340617716773e-05
-0.31885800134114106,-0.31885800134114106,1.0002234218243056,6.290149905622778e-05
-0.3180520637259178,-0.3180520637259178,1.000083720021277,6.293254854262534e-05
-0.3175406804344675,-0.3175406804344675,1.0000294943337615,6.39345219143834e-05
-0.3169429986293835,-0.3169429986293835,1.0001626789096847,6.383774429026595e-05
-0.3164901803873363,-0.3164901803873363,0.9999537772363809,6.486450688528438e-05
-0.31522443555586505,-0.31522443555586505,1.0000132139452642,6.331170173760999e-05
-0.31475388309409025,-0.31475388309409025,1.0000252541498358,6.297791318211347e-05
-0.313796574290609,-0.313796574290609,1.0000605511294238,6.341088850609424e-05
-0.3131233380401682,-0.3131233380401682,0.9998949936254959,6.344072836504051e-05
-0.31256074984485166,-0.31256074984485166,0.9999135623827584,6.383954962123153e-05
