time,time,flux,flux_err
-0.49905522111002937,-0.49905522111002937,0.9997948880919184,0.00015043030435195407
-0.49721324247584564,-0.49721324247584564,0.9999393511173171,0.0001547746240685747
-0.4952091429084248,-0.4952091429084248,1.0000099340725115,0.00015041854776873877
-0.49425283927776037,-0.49425283927776037,0.9999674113980751,0.00015046535406898698
-0.4934640140432748,-0.4934640140432748,0.9999067910881045,0.00015040157486621
-0.4922319663237431,-0.4922319663237431,1.0003845144650265,0.00015922246922712906
-0.4900461389450356,-0.4900461389450356,1.0001605549594674,0.00015037980591163334
-0.488163762295153,-0.488163762295153,1.0002021898142333,0.0001504542651190576
-0.48653342277902994,-0.48653342277902994,1.0000926581282301,0.00015041275744938302
-0.4852867311659793,-0.4852867311659793,0.9998826676951366,0.00015042470644605294
-0.48239644816276267,-0.48239644816276267,1.0001387490687583,0.00015183062895460253
-0.48088663903618,-0.48088663903618,1.0001144500169628,0.00015493827232610543
-0.47836887668818234,-0.47836887668818234,1.0000407931807476,0.00015039631253413365
-0.4759171662815788,-0.4759171662815788,0.999866785407826,0.00015043160046934699
-0.47438727137196113,-0.47438727137196113,1.0001123278270672,0.0001542793782666898
-0.47242454112201815,-0.47242454112201815,0.9998521898604393,0.00015039970563073395
-0.46975378248826016,-0.46975378248826016,0.9999886466032031,0.00015336887982032296
-0.4676898299461755,-0.4676898299461755,1.0001280125648644,0.00015045651310673105
-0.46641208539149376,-0.46641208539149376,1.0001867343639221,0.00015047388863560155
-0.464387182523933,-0.464387182523933,1.0000110976614722,0.00015173985103201186
-0.4633018653614272,-0.4633018653614272,1.0000288840216136,0.00015374473613134177
-0.46205006594682346,-0.46205006594682346,0.9998588793609177,0.0001547100876797071
-0.4596329649888503,-0.4596329649888503,0.9999891585681361,0.00015040728454232552
-0.45744095994814415,-0.45744095994814415,0.9999434435788664,0.00015043616366594367
-0.4556105933123035,-0.4556105933123035,1.0000218330328359,0.00015508638646626478
-0.45323698550710106,-0.45323698550710106,0.9999884924742883,0.00015035192408611287
-0.4508391742994718,-0.4508391742994718,1.0002341247487,0.00015299594414010774
-0.44841627896385033,-0.44841627896385033,0.9999267999380782,0.000153656110162702
-0.4468807198842114,-0.4468807198842114,0.9999390773527098,0.00015041560306960867
-0.44558012340567077,-0.44558012340567077,1.0002340348728491,0.00015167810381720424
-0.444050419490668,-0.444050419490668,1.0000674749297265,0.00015042914417498203
-0.4418302575955749,-0.4418302575955749,0.9999223236214299,0.00015035765147003427
-0.43878515472097207,-0.43878515472097207,1.0002222723904237,0.0001504670725609566
-0.4366810423940478,-0.4366810423940478,0.9998709920015632,0.00015446110730304714
-0.43500088059445263,-0.43500088059445263,0.9999336239075305,0.00015124157856195674
-0.4341694439317507,-0.4341694439317507,0.9999872667834954,0.00015182163740869208
-0.43254091424823854,-0.43254091424823854,0.9998055279885201,0.0001561558996983791
-0.43040179613526564,-0.43040179613526564,0.9999734612956196,0.0001541228582489016
-0.4291126405340037,-0.4291126405340037,1.0001005242399499,0.0001504485427166415
-0.4278927508363267,-0.4278927508363267,0.9999827314299221,0.00015155174342394446
-0.4257327751060075,-0.4257327751060075,0.9997889717322879,0.00015044251689849087
-0.42222733292219344,-0.42222733292219344,1.0001263905616278,0.00015122759936529948
-0.41954130018348224,-0.41954130018348224,1.0000057343866444,0.0001504289631348867
-0.41812216433900173,-0.41812216433900173,0.9999981552087199,0.00015063172180892982
-0.4172439702640986,-0.4172439702640986,1.0000728931186855,0.00015042601342888382
-0.4163771716877818,-0.4163771716877818,0.9997929516532931,0.0001504333664392013
-0.4139952445540985,-0.4139952445540985,0.9999425993801893,0.00015272061607482843
-0.4111425285511359,-0.4111425285511359,0.9999284797855157,0.00015048757678351904
-0.40920851002956626,-0.40920851002956626,1.0000834954461597,0.00015054036294287454
-0.4065976744052023,-0.4065976744052023,1.0000456556385193,0.00015048607736715535
-0.40323571692279075,-0.40323571692279075,1.0000710893903555,0.00015098954565585728
-0.4008583168455516,-0.4008583168455516,1.0000760471920949,0.00015044295612033618
-0.39966905378096274,-0.39966905378096274,1.0000073674382564,0.0001504776871783805
-0.39837041722494176,-0.39837041722494176,0.999943833971261,0.0001504550630461019
-0.39636456234875367,-0.39636456234875367,1.0001598154246856,0.00015243943255574964
-0.39405807781004115,-0.39405807781004115,0.9998439975984545,0.00015452660425914957
-0.3918095960390929,-0.3918095960390929,0.9998287004755488,0.000150465975074074
-0.3894274282247352,-0.3894274282247352,1.000086530010901,0.00015046896907225813
-0.38844708053948124,-0.38844708053948124,0.9998070681004876,0.0001550097817149659
-0.3872492876536853,-0.3872492876536853,0.9997706526938226,0.0001504298007104186
-0.38545124338415915,-0.38545124338415915,1.0000280419250918,0.0001550752754971834
-0.3834978975057311,-0.3834978975057311,1.0002301685811283,0.00015045110176443392
-0.3821230509624002,-0.3821230509624002,0.9999630943887785,0.00015043436399208996
-0.38093606524489587,-0.38093606524489587,1.0001134390183566,0.0001504443272437787
-0.37919753882888474,-0.37919753882888474,1.000050078485684,0.00015043800452807136
-0.3775850393285509,-0.3775850393285509,0.9999117233839371,0.0001520270780977528
-0.3760388606140623,-0.3760388606140623,0.9998460391466638,0.00015478816942959977
-0.3739588088756136,-0.3739588088756136,0.9999785755749955,0.00015041033535710782
-0.3721362954653159,-0.3721362954653159,1.0001164388158439,0.0001504196440010599
-0.37133514698507497,-0.37133514698507497,0.9999655956569604,0.00015047106859712747
-0.3706056228511443,-0.3706056228511443,0.9997363624462586,0.00015042870403948774
-0.36893645751988513,-0.36893645751988513,1.0000973751586333,0.00015504080269440065
-0.3664321336298599,-0.3664321336298599,0.9999339326083119,0.0001503966961902708
-0.36467545048581085,-0.36467545048581085,1.0001094305529807,0.00015039625573472941
-0.36336557863178315,-0.36336557863178315,1.0002661871110037,0.00015043375254525777
-0.3613194533063506,-0.3613194533063506,1.0001466207055163,0.00015044087462445706
-0.359206845760491,-0.359206845760491,1.000329737998206,0.00015193401634454158
-0.3575515502590861,-0.3575515502590861,1.0002106287938752,0.00015486259563027513
-0.3551256532831758,-0.3551256532831758,0.9998884921961073,0.00015043460923780876
-0.35296997461045976,-0.35296997461045976,1.0001354554513224,0.0001504585799260869
-0.35140568137430817,-0.35140568137430817,0.9999568518839608,0.00015048807145582148
-0.3491392374002317,-0.3491392374002317,1.0001117747945405,0.00015041292810756137
-0.34601269936174506,-0.34601269936174506,1.000213039911341,0.00015340304867011745
-0.344677009969746,-0.344677009969746,0.9998936546475333,0.0001504309203435939
-0.3428134989946557,-0.3428134989946557,1.0002003652810223,0.0001504285865582889
-0.34121803258385625,-0.34121803258385625,1.0001247756156926,0.00015178941697850575
-0.33988249253234243,-0.33988249253234243,1.000095564223114,0.00015483527277089255
-0.3373802890673687,-0.3373802890673687,1.0000928472932966,0.00015040452307585672
-0.33540229580394226,-0.33540229580394226,1.0003063252707984,0.0001537902120311834
-0.3338132941935328,-0.3338132941935328,1.0003561988283938,0.00015509377611062095
-0.3326908290611755,-0.3326908290611755,1.000068283331967,0.0001504765153721907
-0.3306331489657168,-0.3306331489657168,0.9998410706878665,0.00015031292232272866
-0.32888482528869645,-0.32888482528869645,1.0001205133623245,0.00015303552177534622
-0.32681636395136593,-0.32681636395136593,1.0000624443325035,0.00015735783733268323
-0.325186814043991,-0.325186814043991,1.000175616383851,0.0001504700905891797
-0.3236026654485613,-0.3236026654485613,0.9996429039871437,0.00015041344695871975
-0.3223472896846943,-0.3223472896846943,1.0003095116378702,0.00015169179312759636
-0.3208975671841472,-0.3208975671841472,0.9999838899211262,0.00015035917643897866
-0.31803041436578494,-0.31803041436578494,1.0000870855149704,0.00015042206319384582
-0.31503881984899634,-0.31503881984899634,1.0000253178155716,0.00015042565983378623
-0.3132129104000342,-0.3132129104000342,0.99999542972112,0.00015440964994535344
-0.3116816412155458,-0.3116816412155458,1.0000400423320883,0.0001509101376608542
-0.30932588794385085,-0.30932588794385085,0.9997303119486609,0.0001561973409458657
-0.3072371324531559,-0.3072371324531559,1.0001244131614964,0.00015405970064984666
-0.3058999868837418,-0.3058999868837418,0.9999205792243584,0.0001504783135024081
-0.30440079045074525,-0.30440079045074525,1.0001318747276833,0.00015156006829719154
-0.3005050032530562,-0.3005050032530562,1.000013169822186,0.00015045266336259446
-0.297729113947571,-0.297729113947571,0.999913746957553,0.00015118794156157236
-0.29604622457700314,-0.29604622457700314,0.9998428135803138,0.00015139016138164156
-0.2947076824719261,-0.2947076824719261,1.000094409280728,0.0001504573476527836
-0.2938239448179957,-0.2938239448179957,1.0002484947432708,0.000150468599871203
-0.2929134056219482,-0.2929134056219482,0.9999009414744693,0.00015165653963835577
-0.29043296132731483,-0.29043296132731483,0.9999680166617644,0.00015241805353631338
-0.2883485292979458,-0.2883485292979458,1.0000874188465851,0.0001504955332078353
-0.28700405433701237,-0.28700405433701237,0.9999803684279573,0.00015056405752958912
-0.28484137615814686,-0.28484137615814686,1.000288210548676,0.00015045497928167824
-0.28161333918687886,-0.28161333918687886,1.0001555301960252,0.00015109226224245136
-0.2785550470391172,-0.2785550470391172,1.0000919441832992,0.0001504235137470629
-0.2771403640283097,-0.2771403640283097,1.0001247062977718,0.00015046495613340143
-0.27591700079719883,-0.27591700079719883,1.0001682435823387,0.00015046848506755937
-0.2744579347119725,-0.2744579347119725,0.9999861587955751,0.00015246124717761995
-0.27178183262294625,-0.27178183262294625,1.000070390197708,0.00015455392434701975
-0.26909338903642493,-0.26909338903642493,1.000062849112498,0.0001504730679373198
-0.2667094786076632,-0.2667094786076632,0.9999952603104717,0.00015045087814571505
-0.2655015499149158,-0.2655015499149158,1.0001150993007037,0.00015500903445756685
-0.26366611724806716,-0.26366611724806716,1.0001294070576106,0.00015042475591835826
-0.26087925065876333,-0.26087925065876333,1.0000210634060915,0.00015042449932985003
-0.2594071925348544,-0.2594071925348544,1.0001012092305963,0.00015045118782151053
-0.2582201042874658,-0.2582201042874658,0.9999181001573693,0.00015043231439654156
-0.25679757929829067,-0.25679757929829067,0.9999379383131217,0.00015065671885639535
-0.2550092760604457,-0.2550092760604457,0.999987688828852,0.00015197436019873627
-0.25354232494646567,-0.25354232494646567,1.000169471130221,0.00015514739523822456
-0.2517808179487474,-0.2517808179487474,1.0000107703978114,0.00015473724393397144
-0.24961727325135144,-0.24961727325135144,1.0000515296132388,0.00015043648316576274
-0.24856958109376137,-0.24856958109376137,1.0002039504566782,0.00015048030833477816
-0.24769639396981802,-0.24769639396981802,0.9998766343112037,0.00015505482080081502
-0.24613626267091604,-0.24613626267091604,0.9999932508026615,0.00015044450687137447
-0.24371547059854493,-0.24371547059854493,1.0001367135927295,0.00015041023349623013
-0.24201713874062988,-0.24201713874062988,0.9997997256952642,0.00015040381341557444
-0.24088951771700523,-0.24088951771700523,0.9998942955758077,0.0001504445806997853
-0.23960851712181466,-0.23960851712181466,0.9998816857037116,0.00015039454888076333
-0.23776890937588177,-0.23776890937588177,0.9998046978248054,0.00015040661763108772
-0.2361663952789968,-0.2361663952789968,0.9997951609862088,0.00015189763714019608
-0.23412956010870403,-0.23412956010870403,1.000005413497785,0.00015481518366698225
-0.2314400756957184,-0.2314400756957184,1.000098385075853,0.00015043457846427075
-0.23004606651811627,-0.23004606651811627,1.0000856934214541,0.00015046075856035368
-0.2282769686942629,-0.2282769686942629,1.0000183371465066,0.0001504759209848371
-0.22607615464003175,-0.22607615464003175,0.9999431924834686,0.00015037133127556297
-0.22305657459728537,-0.22305657459728537,1.000115720823762,0.0001504219134344295
-0.22138260829597128,-0.22138260829597128,1.0000455482915114,0.0001504465822838632
-0.2190179908699065,-0.2190179908699065,0.9998038730303362,0.00015176424775450634
-0.21807038923216168,-0.21807038923216168,0.9998317691970404,0.00015048720537609413
-0.21540465917933033,-0.21540465917933033,1.0002636972108545,0.00015041129383143662
-0.2132861628830142,-0.2132861628830142,1.000344138591236,0.00015350879305182398
-0.2118851230428845,-0.2118851230428845,1.0000654553313575,0.00015040929486690878
-0.21053232964040944,-0.21053232964040944,0.9999935657087882,0.00015511156384686485
-0.20951479216601002,-0.20951479216601002,1.000212095729889,0.00015046023548063027
-0.20733879984472878,-0.20733879984472878,0.9998448160376764,0.00015036529377324218
-0.20496686126425628,-0.20496686126425628,0.9997754900203628,0.00015306619590586322
-0.2028871353249997,-0.2028871353249997,0.9999606915289789,0.0001535517744617618
-0.20109556763854924,-0.20109556763854924,1.000015769259968,0.00015044328477327866
-0.20000422856537625,-0.20000422856537625,1.0000746408095609,0.00015167182594324983
-0.19861791662260658,-0.19861791662260658,1.00017980421372,0.00015042566548938982
-0.19636820239320513,-0.19636820239320513,1.0001855484823927,0.000154852420776131
-0.1931625215242093,-0.1931625215242093,1.0000228035527639,0.00015375994295020176
-0.19184759536510682,-0.19184759536510682,0.9998563453567909,0.00015445024618290638
-0.18956114919492392,-0.18956114919492392,0.999940205385688,0.00015086755693496234
-0.18730415860263747,-0.18730415860263747,0.9998889062969626,0.0001526920505626149
-0.18491581806301838,-0.18491581806301838,1.0002018190065727,0.000157794438548133
-0.18368020695343149,-0.18368020695343149,1.0000513757987348,0.00015043889359244684
-0.18246134485016227,-0.18246134485016227,0.9999766049085432,0.0001515816754819943
-0.17971565156331054,-0.17971565156331054,1.0002352200755056,0.00015041716311297202
-0.17661143208461,-0.17661143208461,1.0000410359320364,0.0001512429757195978
-0.1743495164104388,-0.1743495164104388,1.0001132117402771,0.00015044255780090552
-0.17270893383174551,-0.17270893383174551,1.0000562180366335,0.0001504370323102796
-0.17161033459051395,-0.17161033459051395,1.0000702363763438,0.00015042251238778253
-0.17085377086114023,-0.17085377086114023,0.9999877432558593,0.000150405052546031
-0.16995167840213982,-0.16995167840213982,1.0002496318748617,0.00015172228620736683
-0.16704356612899574,-0.16704356612899574,1.0001309836305519,0.0001524197356700126
-0.16545228563481942,-0.16545228563481942,0.9998933816503183,0.00015050952643829905
-0.1643177008292696,-0.1643177008292696,1.0002091463797578,0.0001515737038557119
-0.16248884259111945,-0.16248884259111945,1.0001030401256314,0.00015044281769538014
-0.15970926643058192,-0.15970926643058192,0.99991850007317,0.00015105330929116682
-0.15661409773820195,-0.15661409773820195,1.000116233660965,0.00015046076072035142
-0.15492862817627612,-0.15492862817627612,0.9997087718853244,0.00015042175549784275
-0.1537443821041961,-0.1537443821041961,1.0001728157257783,0.00015047654511260507
-0.15251497887438745,-0.15251497887438745,1.0000204574223965,0.0001507165691644432
-0.1502959920137073,-0.1502959920137073,0.9998710821870237,0.00015580352356436177
-0.1469160843131249,-0.1469160843131249,1.000025518914232,0.00015052491792805325
-0.1446321294119116,-0.1446321294119116,0.9997074022332673,0.00015041914379604375
-0.1432062965570367,-0.1432062965570367,1.0002332493857415,0.00015050590500261348
-0.14153279404781643,-0.14153279404781643,0.999858177456753,0.00015042646759892448
-0.1385421159742691,-0.1385421159742691,0.9998924139362361,0.00015041866967567416
-0.1369539091225306,-0.1369539091225306,1.0002478251466485,0.00015045123943090955
-0.13568196025516954,-0.13568196025516954,0.9999295219760131,0.0001504447322209715
-0.13408129248418846,-0.13408129248418846,1.0000393284865523,0.00015066760757870347
-0.13203277231950777,-0.13203277231950777,1.0000670593779728,0.00015203563361173327
-0.13052625689961134,-0.13052625689961134,1.0002738018929125,0.00015934906460876802
-0.1285267770246719,-0.1285267770246719,1.0000328943348165,0.00015042386997093216
-0.12660023148782784,-0.12660023148782784,1.0001555981736123,0.0001504416376004645
-0.12548422097024742,-0.12548422097024742,1.0001618769952245,0.00015047281867466053
-0.12437748575757723,-0.12437748575757723,1.000043914820219,0.0001591043653730267
-0.1224642910521652,-0.1224642910521652,0.9996350061592334,0.00015035321887073386
-0.1206106299883686,-0.1206106299883686,1.000121206402333,0.0001504384899176584
-0.11924178984409081,-0.11924178984409081,0.9998428336150432,0.00015037319358068924
-0.11776730430865427,-0.11776730430865427,1.0000220433814775,0.0001504180924404345
-0.11577731149227474,-0.11577731149227474,0.9999809256341002,0.00015042853810556388
-0.11390293304793886,-0.11390293304793886,1.0000034493713357,0.00015192823872691634
-0.11238425750489114,-0.11238425750489114,0.9999756197877661,0.00015484790124249958
-0.11031536057635094,-0.11031536057635094,1.0001364655082496,0.00015040820572991286
-0.10820828342766617,-0.10820828342766617,1.0001203215039747,0.00015043749776158044
-0.10732997620507376,-0.10732997620507376,0.9999871204399169,0.00015046128234782113
-0.10609526242842549,-0.10609526242842549,0.9999311101134796,0.00015043364105576926
-0.10435520028986503,-0.10435520028986503,1.0000422048118158,0.00015495460603937809
-0.10169566456315807,-0.10169566456315807,0.9999178963930794,0.00015037664875391907
-0.0994963232325972,-0.0994963232325972,0.999833155454847,0.00015040406813624464
-0.0977642368132365,-0.0977642368132365,0.9998483349777241,0.00015041825227619698
-0.0957866221673612,-0.0957866221673612,1.0001347049198057,0.00015181902793833663
-0.09420299447738216,-0.09420299447738216,0.999932393771984,0.00015042823151714595
-0.09108210479244008,-0.09108210479244008,0.9997085529582923,0.00015043749580873078
-0.08952385048542055,-0.08952385048542055,1.0001107597654355,0.00015041923102366577
-0.08769947153778049,-0.08769947153778049,1.000098675942851,0.00015507679313281672
-0.08611585656180978,-0.08611585656180978,1.0000328917494967,0.00015040942533582649
-0.08366431793983793,-0.08366431793983793,1.0000713455804096,0.00015311750698838653
-0.08135136911369045,-0.08135136911369045,1.0000222652783333,0.0001504207795185386
-0.07981826280592941,-0.07981826280592941,1.0000909453251903,0.0001535399277815889
-0.07800847794787842,-0.07800847794787842,1.0001617357035522,0.00015043489245222932
-0.07710193088059895,-0.07710193088059895,0.9998534744947956,0.00015170250772146614
-0.07561294916449697,-0.07561294916449697,0.999945685905344,0.00015342153031367394
-0.07349983302046895,-0.07349983302046895,1.000018225617554,0.00015043728506963723
-0.0709464205079712,-0.0709464205079712,0.9998945840621879,0.0001538209683049644
-0.06968103872859502,-0.06968103872859502,0.9999241624915017,0.0001549133039899005
-0.06815667283517542,-0.06815667283517542,1.0001118873376977,0.0001543168269599303
-0.06571371804166119,-0.06571371804166119,0.9999473925815048,0.00015274077885596757
-0.06278999511632719,-0.06278999511632719,0.9999715144259514,0.00015391490561243807
-0.061279704202752326,-0.061279704202752326,1.0000598891473818,0.0001504811733014885
-0.05977701069059549,-0.05977701069059549,1.000073711094068,0.000151591442438611
-0.05758576948501286,-0.05758576948501286,0.9998332811572617,0.00015038652955249646
-0.05481993513967609,-0.05481993513967609,1.000111913533941,0.0001505013011805705
-0.052296749329252636,-0.052296749329252636,0.9997815291517629,0.00015120123575783527
-0.05049512976474944,-0.05049512976474944,0.9999992688568659,0.00015458555222459607
