time,time,flux,flux_err
-0.49890330568450736,-0.49890330568450736,1.0001703268857545,0.00018532187828187695
-0.49718725255782675,-0.49718725255782675,0.9998884707172903,0.00018924261367854014
-0.49541379290652304,-0.49541379290652304,1.0000350616042921,0.0001865194641689244
-0.49293312738761114,-0.49293312738761114,1.00000131968898,0.00018919023297203828
-0.49128058619098736,-0.49128058619098736,0.9999748409872788,0.00017144358268601494
-0.4892733399115968,-0.4892733399115968,0.999946913989552,0.00016916059182350962
-0.48770160894055153,-0.48770160894055153,1.0001296601557799,0.00016916280602659157
-0.4855210000445368,-0.4855210000445368,1.0001095385102983,0.00016999956007167835
-0.48413316129299344,-0.48413316129299344,0.9997969916766898,0.00016913657380218967
-0.48293603942147456,-0.48293603942147456,1.0003081218565595,0.00017627301177811468
-0.4814903890975984,-0.4814903890975984,0.9999575348862969,0.00016918221213911225
-0.4799687774037011,-0.4799687774037011,1.0001822359681767,0.0001696742812615379
-0.47842935247754215,-0.47842935247754215,1.0001426420720976,0.00017220270559478498
-0.47723597539006735,-0.47723597539006735,1.0000441590973592,0.00016924215091788122
-0.47568517699692164,-0.47568517699692164,0.9997365188868415,0.00017007803422971194
-0.47408268723811486,-0.47408268723811486,1.0001400251265733,0.00016932996967386843
-0.47219521025544964,-0.47219521025544964,1.0004651588889542,0.00017037387017170163
-0.4702808124537114,-0.4702808124537114,0.9998974637603256,0.0001735608134537893
-0.4689020634177723,-0.4689020634177723,0.9997801587228613,0.0001716132393808192
-0.46671136152144754,-0.46671136152144754,0.9996680773218249,0.0001691493524035035
-0.4651601388439303,-0.4651601388439303,1.0001147194453406,0.0001700331276657011
-0.4632238997161039,-0.4632238997161039,1.0001192153566687,0.00016916677975366596
-0.4619885162319406,-0.4619885162319406,1.000118674843133,0.00016911836693032128
-0.46079972650331913,-0.46079972650331913,0.9998020673597539,0.0001768273181181312
-0.45935251825430895,-0.45935251825430895,1.0003151700449098,0.00016918801741293182
-0.45783264392812273,-0.45783264392812273,1.0000953847777407,0.00016971481987892588
-0.45628980770125055,-0.45628980770125055,1.0001719369120023,0.00017237470435171794
-0.4550950720004039,-0.4550950720004039,1.0001080992934805,0.00016920879252443102
-0.4535475862605381,-0.4535475862605381,1.0000149357770578,0.00017020805400569676
-0.4519416920709773,-0.4519416920709773,0.9999890256719173,0.00016934325063511278
-0.4500575518555706,-0.4500575518555706,0.9999627476781768,0.00017037964482196353
-0.44813956916477765,-0.44813956916477765,0.9998499875542736,0.00017374797569039534
-0.4467569410262513,-0.4467569410262513,0.9999188284505778,0.0001718806134302026
-0.44492044485668886,-0.44492044485668886,0.9998979440419165,0.0001698455820924051
-0.4434054218349047,-0.4434054218349047,1.0002268420648273,0.0001691830264170254
-0.4414199119855766,-0.4414199119855766,0.9997482390482142,0.00017002784541657892
-0.44006206732301506,-0.44006206732301506,1.0001973546777077,0.00016912536077889087
-0.4389505536906654,-0.4389505536906654,0.9998163708205773,0.0001710942894189743
-0.4374943265444017,-0.4374943265444017,0.9997003693823187,0.00017576688597957537
-0.43597136221069377,-0.43597136221069377,0.9998389620568151,0.0001691173350228106
-0.4344754812511383,-0.4344754812511383,0.9999640031195586,0.0001731399370339334
-0.43319402660854395,-0.43319402660854395,0.9999146002541941,0.00016923376938315384
-0.43141004483331924,-0.43141004483331924,1.0003407651210865,0.00017029886216369917
-0.4298007488148869,-0.4298007488148869,0.9999471931391731,0.00016930128692125627
-0.42742306052823553,-0.42742306052823553,1.0000798977087204,0.00017050977538536836
-0.42576124303013785,-0.42576124303013785,0.9998915971990975,0.00017400603410159984
-0.42400411150738365,-0.42400411150738365,0.9998678441870297,0.00017282674037770524
-0.422202490332711,-0.422202490332711,1.0002195492135004,0.0001691790135658475
-0.4207393660239177,-0.4207393660239177,1.0000287926977076,0.00017036887243125108
-0.4189467207135749,-0.4189467207135749,1.0002936122974786,0.00016916430793914746
-0.41769944538536946,-0.41769944538536946,0.9998008444477543,0.00016914696069393606
-0.41645038427377584,-0.41645038427377584,1.0003244921378458,0.00017124916103073746
-0.4147492204196169,-0.4147492204196169,1.0000972684715097,0.00016916280659966826
-0.41331403484509793,-0.41331403484509793,1.0001064360399163,0.00017256835813565457
-0.411759164709656,-0.411759164709656,0.9999755996217676,0.0001700419387517369
-0.41033862697950096,-0.41033862697950096,1.0000939258310566,0.00016913816954815882
-0.408567739596765,-0.408567739596765,1.0002369231524861,0.00017037624632294386
-0.4069222434831318,-0.4069222434831318,1.0000047540701735,0.00017083664508912917
-0.40447080193698637,-0.40447080193698637,0.9999704427208886,0.00016947510918586162
-0.4032355734569137,-0.4032355734569137,0.9998861795816506,0.00017719312944501728
-0.40146388500143076,-0.40146388500143076,1.0001353150519334,0.00016987553893990686
-0.3995566514742677,-0.3995566514742677,0.9998717057618508,0.00016913175503815842
-0.39833087492443153,-0.39833087492443153,1.0000482336743164,0.00017067351872223437
-0.3970528853329597,-0.3970528853329597,1.0003559454882545,0.00016914364822957515
-0.3957847068100818,-0.3957847068100818,1.0002050561995317,0.00016911626006575373
-0.3946650886617135,-0.3946650886617135,0.9998802259926143,0.00017131846768141007
-0.3931905366393039,-0.3931905366393039,0.9998378639593337,0.0001695997572120274
-0.39184136459516594,-0.39184136459516594,0.9998930518987409,0.00016913523502829977
-0.3905265887049609,-0.3905265887049609,1.0000198754890168,0.0001734790001619818
-0.38921667471586263,-0.38921667471586263,0.9999647856104567,0.00016928218575863963
-0.387490679610346,-0.387490679610346,1.00011903908872,0.00017020539399268354
-0.38594767274626063,-0.38594767274626063,1.0002007872670222,0.00017366407600889847
-0.3844032773209619,-0.3844032773209619,1.0002637302597335,0.00017104820620908521
-0.38197599703853485,-0.38197599703853485,1.0002713422451397,0.0001741924400334564
-0.38109494118689324,-0.38109494118689324,0.9998152839977873,0.00016917321563608898
-0.3797312769020209,-0.3797312769020209,1.0001086496272449,0.0001734360716263942
-0.3777291539430735,-0.3777291539430735,1.0000444895424734,0.00016916485700467753
-0.3763734731794102,-0.3763734731794102,1.000050793791667,0.0001697089355372241
-0.3751614689885173,-0.3751614689885173,1.0000813476394605,0.00017016752303420458
-0.37393546047242127,-0.37393546047242127,1.0000108461724415,0.0001691169122626753
-0.3727284115200746,-0.3727284115200746,1.0001811026220717,0.00016959218600394487
-0.3713536333889351,-0.3713536333889351,1.0000404570076638,0.00017153773319309956
-0.3699843310183496,-0.3699843310183496,1.0001817317508062,0.0001691586227295464
-0.3686769983876729,-0.3686769983876729,0.9998687257406134,0.00017287167643665696
-0.36719389350473647,-0.36719389350473647,0.999976507640989,0.0001692838317051828
-0.3657254071018542,-0.3657254071018542,0.9997362666936522,0.000170217642382001
-0.36402086067100753,-0.36402086067100753,1.000305935945167,0.0001693446052494686
-0.3623269113042625,-0.3623269113042625,1.0000414870869512,0.00017117839441551085
-0.36023862428119174,-0.36023862428119174,1.0000832318214161,0.0001691484561830784
-0.35894525459880244,-0.35894525459880244,0.9999581575282125,0.0001783249355015117
-0.35718306599592325,-0.35718306599592325,1.0001677008125591,0.0001699147055378956
-0.3555314333541901,-0.3555314333541901,1.0000700725681149,0.00016913710175974747
-0.35407225446106166,-0.35407225446106166,0.9999605457974431,0.0001703809332377792
-0.35261896394513315,-0.35261896394513315,0.9999950224553956,0.0001691613087628326
-0.35126637782814213,-0.35126637782814213,1.000141915862991,0.00016913104851595912
-0.3500731298903702,-0.3500731298903702,1.0000647582187576,0.00017200738849710683
-0.34866399434686174,-0.34866399434686174,1.0001267694670335,0.00016927133836180355
-0.3473260799743002,-0.3473260799743002,1.0001065021685278,0.0001691297188366862
-0.34604105539474406,-0.34604105539474406,1.0000262044218093,0.00017303123166134978
-0.34485340790852204,-0.34485340790852204,0.9999441243053349,0.00016928612497422364
-0.34313973437820094,-0.34313973437820094,1.0001814005364875,0.00017048807563947607
-0.3408852552282042,-0.3408852552282042,0.9999269496971458,0.00016938202826378846
-0.33888298292586116,-0.33888298292586116,1.0002047634323126,0.00017115897827210834
-0.3373756460961886,-0.3373756460961886,1.0002702162914499,0.0001748578977562933
-0.33590905548480804,-0.33590905548480804,1.000007709348912,0.00017410437515628273
-0.33375494792853716,-0.33375494792853716,1.0001706102458683,0.00016916143776476097
-0.3323253260401543,-0.3323253260401543,0.9999477995752549,0.00016932670614657857
-0.33122215982875786,-0.33122215982875786,1.000045990543563,0.0001749695935854086
-0.32991430654219583,-0.32991430654219583,0.9999249808599171,0.0001691564826711187
-0.3286684929043986,-0.3286684929043986,0.9998439388919955,0.0001696105780050213
-0.3270751308344188,-0.3270751308344188,0.9999337434365911,0.00017187165713532552
-0.32570645802188664,-0.32570645802188664,0.9998805400954456,0.00016910631193077692
-0.32451304690766847,-0.32451304690766847,0.9999461222095004,0.0001730090849226953
-0.3230626666743774,-0.3230626666743774,0.9998648841817982,0.00016945441248792257
-0.3214484069714672,-0.3214484069714672,0.9998903065553046,0.00017025021470283658
-0.3191963117089472,-0.3191963117089472,1.000170644155169,0.0001731254235766509
-0.3176626867381856,-0.3176626867381856,1.0001364505684687,0.0001712427568112318
-0.3155599033329054,-0.3155599033329054,1.0001431058555657,0.0001754513618275786
-0.31440315041982103,-0.31440315041982103,0.9998357285066504,0.00017367491761002238
-0.3124813137590536,-0.3124813137590536,0.9998609704073005,0.0001700069394678406
-0.31070683523139453,-0.31070683523139453,1.0002038927579653,0.00016913187731645534
-0.30949965552572395,-0.30949965552572395,1.0000647549342385,0.000175624735373141
-0.30805590411036976,-0.30805590411036976,1.0000518913312424,0.00016916783137091343
-0.3065322209658916,-0.3065322209658916,0.9998682156693235,0.00016961392504227094
-0.3049359406621079,-0.3049359406621079,0.9999299018622783,0.00017203401822185566
-0.3034605289227329,-0.3034605289227329,0.9997253739455993,0.00016912193378388168
-0.3021018348445068,-0.3021018348445068,1.0001464030885898,0.0001733950947162668
-0.30065194440394405,-0.30065194440394405,1.0003630212446417,0.00016932378530331264
-0.2987604614085285,-0.2987604614085285,0.9998736251000695,0.00017031628840050189
-0.29685038802417696,-0.29685038802417696,0.9999853470314406,0.0001733446281326168
-0.2954763243396883,-0.2954763243396883,0.9999879267153127,0.00017144558193046112
-0.29330760467855727,-0.29330760467855727,1.000190791193216,0.00017616610343765385
-0.2921312446516822,-0.2921312446516822,1.000160821576166,0.0001691698742788094
-0.2899483913613949,-0.2899483913613949,1.0000484054991579,0.00017000798271108673
-0.2885620989007293,-0.2885620989007293,1.0002254632485308,0.00016915428244526984
-0.2873633074661484,-0.2873633074661484,1.0000754621881351,0.00017614956801548503
-0.2859179676772328,-0.2859179676772328,0.9999572051081429,0.00016916872817266922
-0.2843960130077903,-0.2843960130077903,0.999837624546393,0.0001696446049331127
-0.2827967893259483,-0.2827967893259483,1.0001153809082168,0.00017222033228155232
-0.2813172597816447,-0.2813172597816447,1.0002804256670317,0.00016911546446737042
-0.2798092409444507,-0.2798092409444507,1.0001857829852723,0.00018165111930342972
-0.27851088994793827,-0.27851088994793827,1.0001075830840411,0.00016930637608099486
-0.27662274687318134,-0.27662274687318134,1.00017199356755,0.0001703678491015177
-0.2747090702294372,-0.2747090702294372,1.000370399392526,0.00017352957459936295
-0.2733310991272447,-0.2733310991272447,1.0001781593598966,0.00017161127492178435
-0.2711398522209493,-0.2711398522209493,1.0000364546793876,0.00016914913634493662
-0.2695896150835324,-0.2695896150835324,0.9999076212271077,0.00017000766187533076
-0.2676516314590117,-0.2676516314590117,1.0001413831080164,0.00016915280878950515
-0.26641744021180785,-0.26641744021180785,1.0001134196943375,0.00016912395929768374
-0.26522698719927573,-0.26522698719927573,1.0000212096138341,0.00017673660080383294
-0.2637800889569917,-0.2637800889569917,1.000168085283846,0.00016920261871957473
-0.26225986485806063,-0.26225986485806063,1.0001640301722534,0.00016973495605736581
-0.2607177145619062,-0.2607177145619062,0.9999070526358722,0.00017234319548413703
-0.25952325005782767,-0.25952325005782767,1.000313035463953,0.00016924093367378772
-0.2579751003198908,-0.2579751003198908,1.0003545297870293,0.00017023284621387697
-0.25656077251478565,-0.25656077251478565,1.0000757621417713,0.00016932143307017602
-0.25503328052727736,-0.25503328052727736,0.9998855576477241,0.00017033835657704208
-0.25277405426750194,-0.25277405426750194,1.0000265030186952,0.0001737409648686859
-0.2514212854395737,-0.2514212854395737,0.999794330378019,0.00017180999258566083
-0.249414234298456,-0.249414234298456,1.0000895144660973,0.00016919731904220222
-0.24783502711361508,-0.24783502711361508,1.0001323554903434,0.00016916959123147707
-0.24584820072486763,-0.24584820072486763,1.0001641346535242,0.0001700402085356621
-0.24448981586028823,-0.24448981586028823,1.0002465516019616,0.00016911834041785396
-0.24337911256443476,-0.24337911256443476,1.0001470349454844,0.00017106355081939237
-0.24192089649732224,-0.24192089649732224,0.999872568798402,0.00017571547709215653
-0.24039955871994606,-0.24039955871994606,1.0001267538793148,0.00016912374758552444
-0.23890291600691854,-0.23890291600691854,0.9998860654728979,0.00017306269474511325
-0.23762162407219875,-0.23762162407219875,0.9997554157414144,0.00016922265825735535
-0.23583755049767205,-0.23583755049767205,0.9998977400744303,0.00017026581159614861
-0.23422893369570374,-0.23422893369570374,1.0002866839333253,0.00016933444259560788
-0.23185051163018217,-0.23185051163018217,1.0003612829973263,0.0001705209238298414
-0.2301908247100073,-0.2301908247100073,0.9998575501351112,0.00017395878094633716
-0.22843140420445707,-0.22843140420445707,0.9998698682812961,0.00017275115714047981
-0.22663179504452274,-0.22663179504452274,1.0003532917440912,0.00016920047242000697
-0.22516863558848854,-0.22516863558848854,0.9999219956949668,0.0001703579755812934
-0.22337442518619355,-0.22337442518619355,1.0001108673113783,0.00016915455678170215
-0.22212833841622343,-0.22212833841622343,0.9999010423026056,0.000169097828338014
-0.22087767538469052,-0.22087767538469052,0.9999331658330641,0.00017119406118503658
-0.21917707229731603,-0.21917707229731603,0.9997306836070653,0.00016916461158301597
-0.21774158666667062,-0.21774158666667062,0.9999476147563776,0.00017256083830874408
-0.21618711143528344,-0.21618711143528344,1.000148303760946,0.0001700183936942399
-0.21476647623348982,-0.21476647623348982,0.9999998735889486,0.00016913789053331422
-0.212995011836756,-0.212995011836756,0.9996763264629674,0.00017030235507577214
-0.21134940136107616,-0.21134940136107616,1.0000084986447837,0.00017081299930603213
-0.20889938022737625,-0.20889938022737625,0.9998620301027877,0.00016948500864957117
-0.20742376234411494,-0.20742376234411494,1.0001355213476226,0.00017705378199145042
-0.20547802935616347,-0.20547802935616347,0.9999154277680512,0.00016985753965520755
-0.20366239486611448,-0.20366239486611448,1.0001735297138867,0.00016947623323075212
-0.20231048365239984,-0.20231048365239984,1.0001083204958703,0.0001700686151146058
-0.20103585524193476,-0.20103585524193476,1.0000201687833137,0.00016911457286709035
-0.19992655390378786,-0.19992655390378786,1.0002738626339212,0.00016915986485534787
-0.19878075995657127,-0.19878075995657127,0.9999204008589272,0.00017167912528231658
-0.1973667790647596,-0.1973667790647596,1.0000467114886402,0.00016924682418870766
-0.19603657308180117,-0.19603657308180117,1.000104180815326,0.00016914969511128865
-0.19462863248481882,-0.19462863248481882,1.0000234540813495,0.00017345604262058008
-0.19334575542306992,-0.19334575542306992,0.9997604793513426,0.00016921481512132967
-0.19156259457813576,-0.19156259457813576,0.999890729320582,0.00017037213722797924
-0.18994717518944526,-0.18994717518944526,0.9999754929562714,0.0001693684661816866
-0.1875914627147722,-0.1875914627147722,1.0003246008917046,0.0001707703519864898
-0.18608726227103034,-0.18608726227103034,0.9997435005934117,0.00017412211626883223
-0.18482821292855078,-0.18482821292855078,0.9998712535288533,0.0001727002031414354
-0.1829239288927056,-0.1829239288927056,1.0002526353764678,0.00016990953135834566
-0.18122174383606762,-0.18122174383606762,0.9999550894942963,0.0001694826026047036
-0.18010796437592944,-0.18010796437592944,1.0003598870819734,0.00017035260038771673
-0.17889767908636714,-0.17889767908636714,0.999848593747903,0.00016913978066536081
-0.17757742808316834,-0.17757742808316834,0.999993566802611,0.0001691166897011291
-0.1763625190622406,-0.1763625190622406,1.0003200569131276,0.0001719029471366537
-0.17493139734870056,-0.17493139734870056,0.9999175507008353,0.00016920574123387936
-0.17371589068643517,-0.17371589068643517,1.0000944842839987,0.00016980730154401584
-0.17203596741019284,-0.17203596741019284,1.0000829566535665,0.00017238845325720124
-0.17082528653118062,-0.17082528653118062,1.0001246773677166,0.00016912008319726804
-0.1691780554043362,-0.1691780554043362,1.0001510522899746,0.00017045229205575819
-0.16743830604391405,-0.16743830604391405,1.0000881388510023,0.000169336461376199
-0.16545271847426193,-0.16545271847426193,0.9997976679111277,0.00017095748506771577
-0.16394558360771044,-0.16394558360771044,1.0001505581497274,0.00017442187115397585
-0.16248068835848245,-0.16248068835848245,0.9999928639859872,0.00017371981794124587
-0.16032579451275525,-0.16032579451275525,1.0000090606953045,0.0001691588981887396
-0.15870731486647854,-0.15870731486647854,0.9999692545480231,0.00016931742528200226
-0.15736977218912215,-0.15736977218912215,1.0000119303671284,0.00017020669821990993
-0.15593526112934342,-0.15593526112934342,1.0001407714429942,0.00016910744702312923
-0.1548083745103213,-0.1548083745103213,0.9999912915382463,0.00017153474366560115
-0.15334505451028235,-0.15334505451028235,1.0000887948407344,0.00016971202945017478
-0.15198109130578813,-0.15198109130578813,0.9999310102640168,0.00016913384253525217
-0.15096099905931623,-0.15096099905931623,1.0001038059164906,0.0001728295759667649
-0.1496264700414031,-0.1496264700414031,0.9999670736179829,0.00016944448310792943
-0.1483523646456888,-0.1483523646456888,0.999914584794946,0.00017020274368831378
-0.1463180016289698,-0.1463180016289698,1.0004870180714989,0.00016968169607935846
-0.14442214667215011,-0.14442214667215011,0.9999765972750065,0.00017107132948378475
-0.14252581621549326,-0.14252581621549326,0.9996797097386075,0.00016912477495214745
-0.14122918821522035,-0.14122918821522035,0.9996867373503141,0.00017879081635494817
-0.13947078810742825,-0.13947078810742825,1.0002265690154548,0.00016994092315335122
-0.1375827066382044,-0.1375827066382044,1.0000995567939248,0.00016914090288765765
-0.13636226590315345,-0.13636226590315345,1.00015745061302,0.00017047217966896234
-0.1351200823613908,-0.1351200823613908,1.0000639188770808,0.00017385451484224995
-0.13379675345640862,-0.13379675345640862,0.9999374548132856,0.00016909911371083909
-0.1325205753208138,-0.1325205753208138,1.000064320566094,0.0001721566553921639
-0.1309539549140027,-0.1309539549140027,1.0002092291878166,0.0001692926030984141
-0.12961325775104343,-0.12961325775104343,1.000410205583152,0.00016913902715181078
-0.1283307514328044,-0.1283307514328044,1.000166067223879,0.00017315275201642972
-0.12693234533362557,-0.12693234533362557,1.0003721148131919,0.00016928640827915882
-0.12483775271102786,-0.12483775271102786,1.0001552263201003,0.0001703164789024901
