time,time,flux,flux_err
-0.49950686149046913,-0.49950686149046913,1.0001299253285438,0.0002872837981778071
-0.4987138031501672,-0.4987138031501672,1.0004242259935556,0.00029804800310600523
-0.4979642270651918,-0.4979642270651918,1.000020859138769,0.000286665314305914
-0.4967626275514097,-0.4967626275514097,1.0001559919001208,0.0002914585297228812
-0.4959403245389694,-0.4959403245389694,0.9995555664332245,0.00026099991878561214
-0.4952412769838702,-0.4952412769838702,1.000232750729358,0.0002642437328580325
-0.49437470619741364,-0.49437470619741364,0.9996961072236763,0.0002598591398342166
-0.4937093163724057,-0.4937093163724057,0.9999087440279268,0.00026983218160202906
-0.49334299395268316,-0.49334299395268316,1.0003985597683929,0.0002670974459287825
-0.4922651860222686,-0.4922651860222686,0.9999247685398223,0.00027766618751801835
-0.49166848935128654,-0.49166848935128654,0.99973027948806,0.00026545327373866744
-0.4907873092248337,-0.4907873092248337,0.9998630220636061,0.0002581610224484564
-0.49006262196053285,-0.49006262196053285,1.000406945237927,0.00027287844584605907
-0.48964106293569787,-0.48964106293569787,0.9999710678288185,0.0002665815849163735
-0.48877907914866225,-0.48877907914866225,1.0001555569316272,0.0002711502617437638
-0.4880655996676069,-0.4880655996676069,1.0003924572826923,0.0002697038324085304
-0.48742359470052177,-0.48742359470052177,1.0000379976170979,0.00025910921156735304
-0.48600650057778694,-0.48600650057778694,0.9998748155179268,0.0002633150202683708
-0.4854627477703616,-0.4854627477703616,1.0001170828956756,0.00025960874289640773
-0.4847846435935935,-0.4847846435935935,1.0000164852347668,0.00026072131195266384
-0.48390788144315594,-0.48390788144315594,0.9997736474375287,0.0002591035471532887
-0.48317804843827616,-0.48317804843827616,1.0001611003047621,0.0002651882581170873
-0.4827311264176387,-0.4827311264176387,0.9997875696617529,0.000266878457241769
-0.4820124937483342,-0.4820124937483342,1.0001139746834344,0.0002707104500556069
-0.4812884870771086,-0.4812884870771086,1.000213220978523,0.00026685630897849063
-0.4806744255067315,-0.4806744255067315,0.9998829565209553,0.00026652452933937905
-0.4799236110295169,-0.4799236110295169,0.9997709509751089,0.0002527851593921859
-0.4794043741363566,-0.4794043741363566,1.000067429519808,0.0002600845706814453
-0.47893089517892806,-0.47893089517892806,1.0001222062906618,0.0002709924159604351
-0.47803937954013237,-0.47803937954013237,0.9998477988562093,0.00026555186855290873
-0.47737912690790835,-0.47737912690790835,1.0002639568300322,0.0002635327263928287
-0.47684864808106797,-0.47684864808106797,0.9999879927669177,0.00026444150623431003
-0.47544086426787546,-0.47544086426787546,1.000042623190501,0.0002623246154143838
-0.47483468466380147,-0.47483468466380147,0.9997360314104963,0.0002613543012040212
-0.47403157693333925,-0.47403157693333925,0.9999620097310224,0.0002603487516509387
-0.4730156701261876,-0.4730156701261876,0.9997429395007049,0.00025903357120788783
-0.47226258581795266,-0.47226258581795266,1.0001814400783817,0.0002651787445049396
-0.47160294840869027,-0.47160294840869027,0.9999680871700782,0.000271329572439178
-0.47100788114767056,-0.47100788114767056,1.0004176848818387,0.00026457786913249975
-0.47012601922324393,-0.47012601922324393,0.9998994559546125,0.00026427737646707273
-0.46956779241154434,-0.46956779241154434,0.9999650140380428,0.00025933567224029617
-0.46888397133734544,-0.46888397133734544,0.9997496197462041,0.0002589437573638673
-0.4681162551889429,-0.4681162551889429,1.000199868399458,0.00027072736501858807
-0.4672025897190906,-0.4672025897190906,1.0001377731166223,0.0002653780191291883
-0.4665083946019877,-0.4665083946019877,1.0002261323298625,0.0002627386637245051
-0.4656293589185225,-0.4656293589185225,1.0000553203439047,0.0002768080178442632
-0.4643582914432045,-0.4643582914432045,0.9999332052886599,0.0002592003148722185
-0.4637749736139085,-0.4637749736139085,1.000078032981698,0.0002725983221876963
-0.4632033151836367,-0.4632033151836367,0.9997545481791187,0.0002652150076401061
-0.4624379130633315,-0.4624379130633315,1.0003349155097396,0.0002642536047999957
-0.4619016766693676,-0.4619016766693676,0.9998122777070397,0.0002651091814111476
-0.46118891960941255,-0.46118891960941255,1.000485946183889,0.00026632215921334725
-0.46054055942222477,-0.46054055942222477,0.9997854077776577,0.0002681088575810633
-0.459862474759575,-0.459862474759575,0.9999564972858836,0.00026429762906750906
-0.4588580311217811,-0.4588580311217811,1.0000555902844597,0.00027250476139826195
-0.45785277378745376,-0.45785277378745376,1.000116888375611,0.0002694488467551895
-0.4568486797332298,-0.4568486797332298,0.9997464394124306,0.00026029898046665687
-0.45607113191508686,-0.45607113191508686,0.9994632250940405,0.0002665731648109343
-0.4554206126078498,-0.4554206126078498,1.0001232792687613,0.0002619111244102852
-0.4541782590356888,-0.4541782590356888,0.999575278932971,0.00026955824075664225
-0.4532751543010818,-0.4532751543010818,0.9999827796652863,0.00025968081561877134
-0.452531034508138,-0.452531034508138,0.9995536509153553,0.00027047052277772126
-0.4519195854605641,-0.4519195854605641,1.0003464041682073,0.0002700159099381386
-0.45124938200751785,-0.45124938200751785,0.9999385580211572,0.0002650002366733181
-0.4504388791159727,-0.4504388791159727,1.0000148215335958,0.0002640912675989418
-0.4498899098020047,-0.4498899098020047,0.9999442649720324,0.00026720363223807226
-0.4490616464492632,-0.4490616464492632,1.0000231904963526,0.00026422285272939506
-0.4479808104166295,-0.4479808104166295,0.9997423788612909,0.0002646211099684167
-0.4472361998166889,-0.4472361998166889,1.000130307525764,0.000262715571553374
-0.44642736758396495,-0.44642736758396495,1.0000637777895744,0.00026430402602928185
-0.4454180965636624,-0.4454180965636624,0.9996358956975232,0.0002590736099429114
-0.44499317480949685,-0.44499317480949685,0.9998561142157115,0.0002658271322300095
-0.44433934415574183,-0.44433934415574183,1.0003650626498692,0.00027057763370083376
-0.44327905667596496,-0.44327905667596496,0.9998730931073894,0.0002707678267539428
-0.4424383897683583,-0.4424383897683583,1.000189226798307,0.0002542660373408867
-0.4415365266409935,-0.4415365266409935,0.9999566171481021,0.0002682874251839495
-0.44113183029403447,-0.44113183029403447,1.0004677706053406,0.00027127395454815557
-0.4402858739253134,-0.4402858739253134,1.000455986410862,0.0002667006595638757
-0.43955459976859856,-0.43955459976859856,1.0001798068201793,0.0002701367408129954
-0.4389943721005693,-0.4389943721005693,0.999996030968022,0.00025938059866925835
-0.4377606994617963,-0.4377606994617963,0.9994439062762723,0.0002663944901577772
-0.4369054045993835,-0.4369054045993835,0.9999462899281524,0.0002657204748123816
-0.43627897984115405,-0.43627897984115405,0.999776706722795,0.00025996398211313083
-0.43560297107032964,-0.43560297107032964,1.000224722324646,0.0002642430053342504
-0.434626164988731,-0.434626164988731,0.9998579640291126,0.0002589263202250669
-0.43414917521877217,-0.43414917521877217,1.0000709139971193,0.00026783218238223753
-0.43360909294569866,-0.43360909294569866,0.9999741157150364,0.0002684006511331149
-0.43277691713301464,-0.43277691713301464,0.9998669004417262,0.00026305534741914493
-0.43225655985879713,-0.43225655985879713,0.9998941982410463,0.0002784178569805926
-0.43150492052081973,-0.43150492052081973,0.9996262606691134,0.0002532906287858949
-0.4308123225928284,-0.4308123225928284,0.9999104122625321,0.00026441101018412664
-0.4303698355826782,-0.4303698355826782,1.00045963766186,0.000278087760540514
-0.42949443656543734,-0.42949443656543734,0.9997171651657867,0.00026107516738475633
-0.42872272129170597,-0.42872272129170597,0.9998948547590173,0.00027351587824240827
-0.4281904928939184,-0.4281904928939184,0.9998517287789493,0.00025917280466359547
-0.4270167726353975,-0.4270167726353975,1.0000392742527136,0.0002624348909267322
-0.42618145486630965,-0.42618145486630965,0.9997249492774316,0.00026136953483123606
-0.42553746432531625,-0.42553746432531625,0.9998425086438522,0.000261290827324849
-0.42480007966805716,-0.42480007966805716,0.9999188019038933,0.0002643470986637707
-0.42388148721365726,-0.42388148721365726,1.0004265201249773,0.00025997541726765767
-0.4233112873713253,-0.4233112873713253,1.0001218335785125,0.00026684836337168894
-0.42259602146514225,-0.42259602146514225,1.000502505294809,0.0002697099601621246
-0.42182194521010385,-0.42182194521010385,0.9999966600428785,0.00025992394028052164
-0.4212091969442554,-0.4212091969442554,1.000464444724274,0.0002666037905715602
-0.42042515384673607,-0.42042515384673607,0.9999638879436106,0.0002567873483336018
-0.41981201129383405,-0.41981201129383405,0.999702890458134,0.0002693742594185428
-0.41908267844410146,-0.41908267844410146,0.9997979683236874,0.00026694373175802116
-0.41832335328217596,-0.41832335328217596,1.0002095005416296,0.00026984830333410224
-0.417625582695473,-0.417625582695473,0.9998068161348694,0.000262624340850755
-0.41693876395584084,-0.41693876395584084,0.9998989097324525,0.0002722986353328368
-0.4156991537893191,-0.4156991537893191,1.0000146707225797,0.00025917678774275315
-0.41514675224025266,-0.41514675224025266,1.0004876573033792,0.00027947120246325617
-0.41445481953851415,-0.41445481953851415,1.0001659862909442,0.0002653981933025336
-0.41349697812402153,-0.41349697812402153,0.9999894685724753,0.0002590189007577581
-0.4127999124699272,-0.4127999124699272,1.0000440531307477,0.0002616996159926353
-0.41218942211999093,-0.41218942211999093,1.0001005219637193,0.0002739207232914817
-0.41140944969665727,-0.41140944969665727,1.0001609737441535,0.0002645058215199099
-0.4103790400055004,-0.4103790400055004,0.9999153032374867,0.0002702401286108884
-0.4094579035823699,-0.4094579035823699,0.9997296262232913,0.0002671272118723722
-0.4082700742379529,-0.4082700742379529,0.9997419867719677,0.000269814843692848
-0.40732328379526733,-0.40732328379526733,1.0000048201984546,0.00026461695057191514
-0.4066075918002753,-0.4066075918002753,0.9999640723473912,0.00025745134125706776
-0.40554398350941484,-0.40554398350941484,0.9997729654973035,0.000270348908660489
-0.4046473640075419,-0.4046473640075419,1.0002151570090003,0.000266078917580368
-0.4041145411669277,-0.4041145411669277,1.0003758185826581,0.00026895617098919176
-0.4035486552049406,-0.4035486552049406,1.000205788464168,0.0002829845849462848
-0.40284321309591176,-0.40284321309591176,1.000361728385231,0.0002642809567359951
-0.40213688028452454,-0.40213688028452454,1.00006205113247,0.0002651727010364645
-0.4014357990003191,-0.4014357990003191,0.9999128116308554,0.00027278948220018105
-0.40064863504667303,-0.40064863504667303,0.999899226110438,0.0002642664196443016
-0.39990067352773623,-0.39990067352773623,0.9996846787084939,0.0002724047620890592
-0.3991485501494026,-0.3991485501494026,1.0004674644568579,0.00025832450147819273
-0.39817958347848614,-0.39817958347848614,1.0001494917580214,0.0002655894620839766
-0.39737284160219133,-0.39737284160219133,1.0003452661614067,0.0002591392312997757
-0.3965517357835779,-0.3965517357835779,0.9997846383618425,0.00026428091622893716
-0.39596641752577855,-0.39596641752577855,1.000126721317001,0.00026154571364624194
-0.3947894639422884,-0.3947894639422884,0.9999955211505214,0.00028192855904908066
-0.3941168153192848,-0.3941168153192848,1.0000640301162693,0.000248819276645764
-0.393280544350273,-0.393280544350273,0.9997902789810371,0.0002590583699923773
-0.39257163043948823,-0.39257163043948823,0.999845728344307,0.0002795186320684746
-0.3918467179260915,-0.3918467179260915,0.9998408084633807,0.0002648912487186307
-0.3909015813143924,-0.3909015813143924,0.9998447840488671,0.00027079314637131375
-0.39043664104247,-0.39043664104247,0.9998799163514244,0.00026009052219964446
-0.3893930506252218,-0.3893930506252218,1.00029744392834,0.0002665227497586047
-0.3883360400272068,-0.3883360400272068,0.9998853483662316,0.00026071289017800284
-0.38727862506348176,-0.38727862506348176,1.0000059668798387,0.0002647971141258135
-0.3865499266772531,-0.3865499266772531,1.0002676855902475,0.0002590247037431562
-0.3857177563855657,-0.3857177563855657,1.000121174377077,0.0002658347199048484
-0.3853534297813894,-0.3853534297813894,0.9999844164990478,0.00027032547303170313
-0.3843532546859933,-0.3843532546859933,1.0001362610534485,0.0002739641325800007
-0.383508344515576,-0.383508344515576,1.00012831554591,0.00026831160088664456
-0.3825771993317176,-0.3825771993317176,1.0001483993826485,0.00025807116113506364
-0.3818734028202016,-0.3818734028202016,0.9998283890204366,0.00026954674804892056
-0.3814768012001878,-0.3814768012001878,1.000158284492082,0.0002691013728877397
-0.38066468088654803,-0.38066468088654803,0.999761349666481,0.0002659982528421034
-0.3799615242547588,-0.3799615242547588,1.000266718370919,0.0002690006940986606
-0.37932008726347705,-0.37932008726347705,0.9998817973216132,0.000264434935635346
-0.3779002324474277,-0.3779002324474277,1.0000033805753068,0.00026311004277516096
-0.3773144413018599,-0.3773144413018599,0.9998379618441533,0.0002659990330672491
-0.37663611380557993,-0.37663611380557993,1.0003009745705105,0.0002565993507770214
-0.3758817242924124,-0.3758817242924124,1.0000426956114312,0.000259138674837489
-0.375073246989632,-0.375073246989632,0.9999407463995427,0.0002651065052800833
-0.3746121415519156,-0.3746121415519156,1.0001280418631155,0.0002668975844571452
-0.3739222411735682,-0.3739222411735682,1.0001790799437287,0.00027023731296670794
-0.37317808761727067,-0.37317808761727067,1.0000212091239253,0.00026433260849168135
-0.37254924958979246,-0.37254924958979246,0.9999952783254535,0.0002669301124774201
-0.37178743270924314,-0.37178743270924314,1.0003439954727744,0.00025776521138214743
-0.37124992836616,-0.37124992836616,1.0006190347207342,0.0002643794531877785
-0.3707182302867295,-0.3707182302867295,0.9998734531702687,0.00026648381196803234
-0.36992427123768723,-0.36992427123768723,0.9999190216555236,0.0002654839486114043
-0.3693108606094029,-0.3693108606094029,1.0006275617615479,0.00026782791978404813
-0.3687421840906609,-0.3687421840906609,1.0002656899693685,0.00027825742141554695
-0.3675113809644245,-0.3675113809644245,0.9998402601411837,0.0002591948383976469
-0.36656478489458094,-0.36656478489458094,0.9995059973689455,0.00026145152037876406
-0.36590575753652954,-0.36590575753652954,1.000079978009394,0.0002615550900459271
-0.36492817690304946,-0.36492817690304946,1.0000470086736877,0.00025904568626057946
-0.3641482204955537,-0.3641482204955537,0.9999402172606178,0.00026517749775668164
-0.36351873935782353,-0.36351873935782353,1.0004680521691336,0.000271057993751456
-0.36289368996804117,-0.36289368996804117,1.0001707959766097,0.0002650742593871819
-0.3620074972248403,-0.3620074972248403,0.9999148466947313,0.00026346667868310956
-0.36132764954236335,-0.36132764954236335,1.00029535954206,0.0002597582381438115
-0.3605006774130743,-0.3605006774130743,1.0001994389086772,0.00026943734433651576
-0.35957695486431474,-0.35957695486431474,1.0001428394378202,0.00027060614566104925
-0.3586864909215365,-0.3586864909215365,1.0000188460979405,0.000264699585329218
-0.3579349551233463,-0.3579349551233463,0.9998584940375139,0.00025777513050034915
-0.35691368926491124,-0.35691368926491124,1.0001327214025064,0.000272216639798939
-0.3561492300563259,-0.3561492300563259,1.00030092752892,0.00026584847176733305
-0.35556139637483286,-0.35556139637483286,0.9998162206511172,0.0002702097249227887
-0.3549691077758325,-0.3549691077758325,1.0001672608015708,0.0002653620957554521
-0.3541918808798073,-0.3541918808798073,0.9997919184177431,0.00026426759222858046
-0.353669496398652,-0.353669496398652,0.999756372412118,0.00026512820585393893
-0.35288669863948596,-0.35288669863948596,1.0002808766411981,0.0002655619693867143
-0.3521298568928614,-0.3521298568928614,0.9999878707785257,0.00027221622526759026
-0.3513375808746787,-0.3513375808746787,1.0001407174836647,0.0002676682587045548
-0.35048715623561294,-0.35048715623561294,0.9998203779674686,0.00025923045651049786
-0.3495225447724806,-0.3495225447724806,0.9998623963700284,0.00026989156735973745
-0.3486673575360328,-0.3486673575360328,1.0002275406200631,0.0002599642349792141
-0.3479094208247261,-0.3479094208247261,0.9997380417786312,0.0002642793552955574
-0.3473146362608531,-0.3473146362608531,0.9998973611080004,0.00026175127099244914
-0.34606000348285304,-0.34606000348285304,1.0000342850625743,0.00026912227267044157
-0.345091397993383,-0.345091397993383,0.9999801509489685,0.0002542840597729057
-0.34424592556606515,-0.34424592556606515,0.999590242285926,0.00027488138253497065
-0.3437053173169261,-0.3437053173169261,1.0001798094932273,0.00026489468613874624
-0.3428314162418246,-0.3428314162418246,0.9997583577544153,0.0002649922178438164
-0.3421007869008463,-0.3421007869008463,0.9997350757814436,0.0002698956720085406
-0.34148097764118573,-0.34148097764118573,0.999669112089735,0.0002610046572213094
-0.3405033641407499,-0.3405033641407499,0.9996475240654119,0.0002693144517058718
-0.33969170643249524,-0.33969170643249524,0.999711221470079,0.0002607391533135332
-0.33888677713111975,-0.33888677713111975,1.0000021250088333,0.0002653276944077829
-0.33831548793823457,-0.33831548793823457,1.0003196125819243,0.0002643746684651998
-0.33730082474648954,-0.33730082474648954,1.0003232129900623,0.0002649331132384361
-0.3368382215703605,-0.3368382215703605,0.999760785592074,0.00026209083522321826
-0.3360631911986275,-0.3360631911986275,0.9998834868165426,0.0002655324764170184
-0.33516696078586394,-0.33516696078586394,1.000272268274216,0.00027401055761430563
-0.33434819827671164,-0.33434819827671164,1.000114318328667,0.0002542736024942477
-0.3335654093680205,-0.3335654093680205,0.9999806559585611,0.00025807630649404774
-0.3330724497238407,-0.3330724497238407,1.000341915810778,0.0002791779260559365
-0.33239477875758894,-0.33239477875758894,1.0001034820863648,0.0002670215240580606
-0.33157091663742905,-0.33157091663742905,0.9998533120041634,0.00027008996449251477
-0.3310197015409358,-0.3310197015409358,1.0001759601856157,0.000264253027804379
-0.3296994852949865,-0.3296994852949865,0.9999081105502746,0.0002613330653892784
-0.32889032757957465,-0.32889032757957465,0.9999339556170529,0.00026630968232102157
-0.3284350798116066,-0.3284350798116066,1.0000492778292398,0.0002567395223429441
-0.3276925975835184,-0.3276925975835184,1.0000298386879378,0.0002642586127239074
-0.3266559572512051,-0.3266559572512051,0.9998598986767,0.00025896907124667697
-0.3260967221838655,-0.3260967221838655,0.999594996151389,0.0002678297490891773
-0.32558017916162496,-0.32558017916162496,1.0001285843605605,0.0002671953602673762
-0.3248608197493013,-0.3248608197493013,1.0001192922541002,0.00026287534894540423
-0.3241232047672383,-0.3241232047672383,1.0000064068002836,0.00027804195545337823
-0.32343828876910263,-0.32343828876910263,1.0000861902645446,0.0002531586830274571
-0.322717105835909,-0.322717105835909,0.9999897806698653,0.000259004641823822
-0.3222480841795914,-0.3222480841795914,0.9999115683877774,0.0002825086351931209
-0.3215266055194661,-0.3215266055194661,1.0001542410360669,0.0002659924809873273
-0.3208993377251318,-0.3208993377251318,1.0003327935359017,0.0002613902108181804
-0.320286897639744,-0.320286897639744,1.0001587245424437,0.00026318839273801813
-0.31926678855670615,-0.31926678855670615,1.0000688692218456,0.00026622543413330107
-0.3183404368639458,-0.3183404368639458,0.9998182945530786,0.0002569865392313877
-0.31756705340521874,-0.31756705340521874,0.9995980837668341,0.00026080962798042827
-0.31669761809462216,-0.31669761809462216,1.0003317544416164,0.00026428273386269757
-0.31578967289533466,-0.31578967289533466,0.9997794462634303,0.00025986910361092054
-0.3151208113558823,-0.3151208113558823,1.000210415761006,0.0002681880632915895
-0.31441470472782385,-0.31441470472782385,0.999846263104177,0.00026796699791696924
-0.3137199608521769,-0.3137199608521769,0.9999809891248355,0.0002597529009417763
-0.3131092380179325,-0.3131092380179325,1.0000271773877436,0.00026616716840751963
