time,time,flux,flux_err
-0.4995274939016478,-0.4995274939016478,1.0001187269180771,7.896548616102924e-05
-0.4987955691758543,-0.4987955691758543,1.0000028320643453,7.938498765841233e-05
-0.497975213334333,-0.497975213334333,0.9999841456314162,7.869090040391386e-05
-0.4968786079601462,-0.4968786079601462,1.0000669070764876,7.951486444362981e-05
-0.4962531161116203,-0.4962531161116203,0.9999266453801902,7.234900997266162e-05
-0.4959327540389495,-0.4959327540389495,1.0000551844987215,7.210782118069426e-05
-0.4953280826564878,-0.4953280826564878,1.0000021364023959,7.201324464325905e-05
-0.49441104842408096,-0.49441104842408096,1.000018933192242,7.165434179457825e-05
-0.49328991294605656,-0.49328991294605656,0.9999775893381576,7.194858943797748e-05
-0.4926049840985797,-0.4926049840985797,0.9999015801703905,7.212420040715763e-05
-0.49163246405660177,-0.49163246405660177,0.9998692143711445,7.312984326621484e-05
-0.4911409729073057,-0.4911409729073057,0.9998651724529601,7.243096083812393e-05
-0.49061672735551837,-0.49061672735551837,1.0000136554396382,7.21717416426205e-05
-0.4893913034058642,-0.4893913034058642,1.0000077663022424,7.241788228325356e-05
-0.488812251019408,-0.488812251019408,0.999999530028262,7.234155224245e-05
-0.488449377741199,-0.488449377741199,0.9998917481932071,7.188945895504579e-05
-0.487991479143966,-0.487991479143966,0.9998956431305114,7.212026873791732e-05
-0.48744615542236713,-0.48744615542236713,0.9999191933757643,7.652247458946306e-05
-0.48617959673865696,-0.48617959673865696,1.0000168099186326,7.150423501577045e-05
-0.48523708794382403,-0.48523708794382403,0.9998770903315247,7.343380294524258e-05
-0.48444293534557803,-0.48444293534557803,0.9999264937774568,7.212164452676801e-05
-0.48370665076654407,-0.48370665076654407,1.0000011888198617,7.242810612477359e-05
-0.48342567311774476,-0.48342567311774476,0.999871658069161,7.240887645665126e-05
-0.48188186083280016,-0.48188186083280016,0.9999948380166108,7.259726669162131e-05
-0.4810389896709239,-0.4810389896709239,0.9998353783222333,7.233316413460557e-05
-0.48071326708013656,-0.48071326708013656,0.9999086470680746,7.216096729848916e-05
-0.48014801911776883,-0.48014801911776883,0.9999838882677915,7.167906731976495e-05
-0.479266528467997,-0.479266528467997,1.000020237238025,7.145600360099857e-05
-0.4784198110370198,-0.4784198110370198,0.9998795397082331,7.170841612741207e-05
-0.4772799696715083,-0.4772799696715083,1.0000861828285983,7.213995089574478e-05
-0.47636480737128295,-0.47636480737128295,0.9999157732735611,7.219202755713653e-05
-0.47586022011819296,-0.47586022011819296,1.000027596427893,7.242850681851864e-05
-0.47517132974171544,-0.47517132974171544,1.0000704310151127,7.19233968376064e-05
-0.474079262977466,-0.474079262977466,1.0001231959344856,7.258632608554141e-05
-0.4734401029709261,-0.4734401029709261,0.9999772480487588,7.25869252736182e-05
-0.4731385090504773,-0.4731385090504773,0.9999595372046732,7.187319815665823e-05
-0.4726716981909703,-0.4726716981909703,0.9999425805282158,7.228243927409069e-05
-0.47199109064531514,-0.47199109064531514,1.000019733601056,7.250590496823789e-05
-0.47108997514587825,-0.47108997514587825,0.9999320740885137,7.148763951699969e-05
-0.4701023328321753,-0.4701023328321753,1.0000570530369608,7.243583565189448e-05
-0.4693363716971362,-0.4693363716971362,1.0000694077629617,7.19023015148269e-05
-0.4684340091480408,-0.4684340091480408,1.000058489549088,7.326143853743961e-05
-0.46807113604445477,-0.46807113604445477,0.9999463046077779,7.2200187965198e-05
-0.4669966738845687,-0.4669966738845687,0.9999919492341963,7.382060475892605e-05
-0.46608462049625815,-0.46608462049625815,1.0000124426628196,7.258496095383913e-05
-0.4655978378083091,-0.4655978378083091,0.9999179803508735,7.187402478622414e-05
-0.46509577958786397,-0.46509577958786397,1.000002841933023,7.212258547090785e-05
-0.4645507635141257,-0.4645507635141257,0.9999395325396062,7.699555009440287e-05
-0.4632438779895892,-0.4632438779895892,0.9999671731702311,7.149678902505662e-05
-0.46231844859721605,-0.46231844859721605,0.999957298485769,7.345861655938017e-05
-0.4615478968276875,-0.4615478968276875,0.9998149916996473,7.269592522013843e-05
-0.4607074457948329,-0.4607074457948329,1.0000631510628764,7.240909595561577e-05
-0.4603089768555947,-0.4603089768555947,0.9997969099241176,7.21711835666038e-05
-0.4587902198894881,-0.4587902198894881,0.9998640361856456,7.260037224695839e-05
-0.45807282293390017,-0.45807282293390017,1.0000189902723942,7.211150771371753e-05
-0.457824185944628,-0.457824185944628,1.000075808392029,7.220080663120392e-05
-0.45723848045163323,-0.45723848045163323,0.9999172775054375,7.167575747635645e-05
-0.4565321576112183,-0.4565321576112183,0.9999610197536608,7.294244960176864e-05
-0.4556617238180479,-0.4556617238180479,1.0000365643924722,7.152472357200934e-05
-0.454704214661615,-0.454704214661615,1.0000473781520134,7.238469705935695e-05
-0.4538104601204395,-0.4538104601204395,0.9999546934565302,7.190050597180312e-05
-0.453069306362886,-0.453069306362886,1.00006067644977,7.267368792555626e-05
-0.45259918987576386,-0.45259918987576386,1.0000108514900081,7.215205936512235e-05
-0.4514594621170545,-0.4514594621170545,0.9998596540504863,7.235654829332388e-05
-0.45064625358500054,-0.45064625358500054,1.000013210010564,7.259668703573574e-05
-0.45031977543549145,-0.45031977543549145,0.9999075740972836,7.162001984798818e-05
-0.44998936049523763,-0.44998936049523763,0.9998497062861464,7.279601251570292e-05
-0.44935609204112553,-0.44935609204112553,0.9999673698286449,7.166755989927837e-05
-0.4486163631838281,-0.4486163631838281,0.9999699343777333,7.259750335584601e-05
-0.4474293860170292,-0.4474293860170292,1.0000365950116088,7.233263019235746e-05
-0.446799612644827,-0.446799612644827,0.9999881437629489,7.189820742930649e-05
-0.4458382429409539,-0.4458382429409539,1.0001198291984974,7.2892909864668e-05
-0.44532432178093584,-0.44532432178093584,1.0000757208728615,7.266787885358221e-05
-0.4442486444488168,-0.4442486444488168,1.0000704084218657,7.236928541857546e-05
-0.44320566990354565,-0.44320566990354565,0.9999766506868376,7.258341492534456e-05
-0.44270369005098476,-0.44270369005098476,1.0000086147595444,7.187687697055173e-05
-0.4422001755097881,-0.4422001755097881,0.9998854693381833,7.212124770603396e-05
-0.44146059491613415,-0.44146059491613415,1.000013959402157,7.166044072902758e-05
-0.4400812644220423,-0.4400812644220423,1.0000158141315578,7.17198253198087e-05
-0.43922734235820826,-0.43922734235820826,0.9998975947925155,7.347928768524533e-05
-0.4384448211902054,-0.4384448211902054,1.0000470052003139,7.285824997378435e-05
-0.4377648709632922,-0.4377648709632922,0.9999394117645222,7.216893343912656e-05
-0.43718131666537374,-0.43718131666537374,1.0000788571150578,7.240986499505494e-05
-0.4359148070710944,-0.4359148070710944,0.9998658584804417,7.276371329586075e-05
-0.43524416021246,-0.43524416021246,0.9999596931624671,7.280287885535458e-05
-0.43503464962414,-0.43503464962414,0.9999505868537838,7.199978347194582e-05
-0.43462885708722754,-0.43462885708722754,1.0000510554825843,7.213852752463748e-05
-0.43408775091811547,-0.43408775091811547,1.0000717958764826,7.348188000235122e-05
-0.4334362311201403,-0.4334362311201403,1.0001188662707736,7.145888007225782e-05
-0.4325618789414875,-0.4325618789414875,0.9999393745180614,7.172134336611496e-05
-0.43161143972247373,-0.43161143972247373,0.9999869166293248,7.21406141057841e-05
-0.4308422709204024,-0.4308422709204024,1.000058826196447,7.209585399980389e-05
-0.43024589895212556,-0.43024589895212556,1.0000645624842412,7.241083944942946e-05
-0.4298740933969384,-0.4298740933969384,1.0001160645765976,7.240544943085059e-05
-0.42857498642697467,-0.42857498642697467,1.00011223521201,7.236652158516973e-05
-0.42776635942282154,-0.42776635942282154,1.000023806035158,7.259053202161385e-05
-0.4273990868008696,-0.4273990868008696,0.999909846876815,7.185651274361255e-05
-0.4269010124291526,-0.4269010124291526,1.0001184497937252,7.236498602011158e-05
-0.4261590695241466,-0.4261590695241466,1.0000305724522982,7.267298901750498e-05
-0.42540843749011403,-0.42540843749011403,0.9999507073069385,7.147840932301622e-05
-0.42436774804955346,-0.42436774804955346,0.9998790854035613,7.239744644656353e-05
-0.4237333315395517,-0.4237333315395517,1.0000071061919873,7.211023244717009e-05
-0.42275837922061327,-0.42275837922061327,0.9999066876478263,7.279477795510852e-05
-0.4222801838710438,-0.4222801838710438,0.9999095293839175,7.26632897405349e-05
-0.4210748092737049,-0.4210748092737049,0.9999191817881993,7.23778830497673e-05
-0.42003727398405316,-0.42003727398405316,1.000001157460325,7.23474645880638e-05
-0.41968420943594537,-0.41968420943594537,0.999999594299732,7.211047010811274e-05
-0.4190012650302378,-0.4190012650302378,1.0001513762256082,7.190515332264485e-05
-0.4179798976023449,-0.4179798976023449,1.000028776246404,7.147759674064643e-05
-0.4167953573341947,-0.4167953573341947,1.0000144596706704,7.350863287519173e-05
-0.41608013898949137,-0.41608013898949137,0.9999463857231031,7.210802690748296e-05
-0.4151716025313362,-0.4151716025313362,0.9999931253123056,7.279896737710624e-05
-0.41478641114372294,-0.41478641114372294,1.0000887321867418,7.244118846463349e-05
-0.4137285157747101,-0.4137285157747101,0.9999417874763298,7.261218806116986e-05
-0.41265634875162505,-0.41265634875162505,1.0000222815533433,7.25878816855343e-05
-0.4122045622469159,-0.4122045622469159,0.999949448354349,7.18350697437043e-05
-0.4119419109454611,-0.4119419109454611,0.99994857279142,7.211153568496308e-05
-0.4114022232533898,-0.4114022232533898,0.9998582874708182,7.402658123443332e-05
-0.4108519701578189,-0.4108519701578189,0.9998912208312328,7.193671486881064e-05
-0.4099243831005879,-0.4099243831005879,1.0000261349763355,7.149926778044623e-05
-0.4090501373866573,-0.4090501373866573,1.000115255714612,7.17162147481044e-05
-0.40823057552916,-0.40823057552916,1.0000712358993695,7.249735723072656e-05
-0.4075485640263651,-0.4075485640263651,0.9999261166631459,7.192364154325635e-05
-0.40713641190959604,-0.40713641190959604,0.9999250391142784,7.24301252587534e-05
-0.4063166058709612,-0.4063166058709612,0.999972308512221,7.236952815408458e-05
-0.4049969394196523,-0.4049969394196523,0.9999995530152365,7.258995345389295e-05
-0.404552824201528,-0.404552824201528,1.0000258880804958,7.186416553892988e-05
-0.40420889075030575,-0.40420889075030575,0.9999417964386378,7.260071051413244e-05
-0.403543707478093,-0.403543707478093,0.9999170822139283,7.166368243518485e-05
-0.4027555733016925,-0.4027555733016925,0.9999495795706398,7.276820162670121e-05
-0.4018232477654237,-0.4018232477654237,0.9999149686994381,7.250258097120236e-05
-0.40126428175426554,-0.40126428175426554,0.9999232541694155,7.190805726958315e-05
-0.40059500058705455,-0.40059500058705455,0.9999191211684891,7.214394779401755e-05
-0.3997790299268672,-0.3997790299268672,1.0001374314149705,7.250202623178022e-05
-0.39938755639595913,-0.39938755639595913,1.0000460628638972,7.266772883605083e-05
-0.39819198901532216,-0.39819198901532216,0.9999173809966739,7.237867516401723e-05
-0.39715407768962907,-0.39715407768962907,1.0000108306964324,7.23519528121127e-05
-0.3967938863148447,-0.3967938863148447,0.9999255576959346,7.210478246756165e-05
-0.3960993339191191,-0.3960993339191191,0.9998784110470412,7.189738407164548e-05
-0.3950580423581414,-0.3950580423581414,0.9999170544351653,7.146931950420996e-05
-0.3938709221140016,-0.3938709221140016,1.0000174284038834,7.350023078281947e-05
-0.39318136679939925,-0.39318136679939925,1.0000009466595343,7.211872831009766e-05
-0.39227738095796666,-0.39227738095796666,0.9999746857334537,7.295874763092462e-05
-0.391877854015911,-0.391877854015911,0.9999240368699673,7.243212102750628e-05
-0.3908414579316741,-0.3908414579316741,1.0000391091919465,7.269599283484969e-05
-0.38977724460419266,-0.38977724460419266,1.0000394895059461,7.258762518601007e-05
-0.3892992492328631,-0.3892992492328631,1.0001043970538208,7.188632458444302e-05
-0.3890513939462835,-0.3890513939462835,0.999959417100462,7.235025530168882e-05
-0.38851034149411134,-0.38851034149411134,1.0000063458758643,7.41631143100429e-05
-0.3879736584698549,-0.3879736584698549,1.0000947619037033,7.165683944146977e-05
-0.3870229616935831,-0.3870229616935831,0.9999348478538514,7.150356379819107e-05
-0.3862367161549628,-0.3862367161549628,0.9999369286263132,7.173996659470037e-05
-0.3853393305558711,-0.3853393305558711,0.999972285221773,7.245396631193924e-05
-0.38464109384512996,-0.38464109384512996,1.0000137145699843,7.170664174969742e-05
-0.3843632752017584,-0.3843632752017584,0.9998232381076309,7.242258547459915e-05
-0.3839061534119537,-0.3839061534119537,1.0000969069061172,7.215080989828063e-05
-0.3825117621279787,-0.3825117621279787,1.0000165551662608,7.259187133118003e-05
-0.3818287598551251,-0.3818287598551251,1.0000555095612647,7.234966122804664e-05
-0.38147969522105996,-0.38147969522105996,0.9999282203966864,7.21007958060357e-05
-0.380823945227894,-0.380823945227894,1.0000293845818387,7.190652872270985e-05
-0.37996954915579406,-0.37996954915579406,1.0000690663514333,7.282012844382757e-05
-0.37910489436471834,-0.37910489436471834,0.9999189735011667,7.17159307322892e-05
-0.37830475355440285,-0.37830475355440285,1.0001312408837237,7.301801854443672e-05
-0.37750576170219574,-0.37750576170219574,0.9999959266019239,7.190130057742675e-05
-0.3767641202401137,-0.3767641202401137,1.0001219436213458,7.264859400958571e-05
-0.37634964461030906,-0.37634964461030906,0.9998611617575899,7.265184013484973e-05
-0.375026743352646,-0.375026743352646,0.9999079884666333,7.236168842080442e-05
-0.3741792261978844,-0.3741792261978844,1.0000245532857737,7.235730777117229e-05
-0.3737898826104356,-0.3737898826104356,0.9999760675623406,7.210242900749822e-05
-0.3730572581291199,-0.3730572581291199,0.9999587980552637,7.166506862522063e-05
-0.3721362804353703,-0.3721362804353703,1.0000287413946611,7.146861123400871e-05
-0.37091784751974044,-0.37091784751974044,0.999922435951123,7.196853451997432e-05
-0.37014614332874773,-0.37014614332874773,0.9999882129879479,7.332588566684048e-05
-0.3692545596306445,-0.3692545596306445,1.000040443762543,7.216112431476623e-05
-0.3688904683163855,-0.3688904683163855,1.0000571091788886,7.220244399511874e-05
-0.3679544804093894,-0.3679544804093894,0.9999949849833886,7.279120865410237e-05
-0.3668982392089674,-0.3668982392089674,1.0000687815371547,7.258700932327268e-05
-0.366394027377828,-0.366394027377828,1.0000122121844675,7.191670825010869e-05
-0.36616705171763897,-0.36616705171763897,0.9999588869465589,7.235097329464529e-05
-0.36561240488663316,-0.36561240488663316,1.0000631675759668,7.460200241650316e-05
-0.36506691519753076,-0.36506691519753076,0.9999348036910533,7.16558174617105e-05
-0.36408794233866504,-0.36408794233866504,1.0000422831611167,7.150586489557656e-05
-0.3633301163179567,-0.3633301163179567,1.0000726055654456,7.327946841860565e-05
-0.36261196353589187,-0.36261196353589187,1.0000049115892413,7.213996630742157e-05
-0.3618591612612363,-0.3618591612612363,1.0000199134705245,7.202661590943201e-05
-0.3615113847772591,-0.3615113847772591,1.0001179706784455,7.24100202759257e-05
-0.36119816433347296,-0.36119816433347296,0.999987782704473,7.239619826244063e-05
-0.35987578649655916,-0.35987578649655916,1.000105929773023,7.237131569409561e-05
-0.35896543759154154,-0.35896543759154154,0.9999536758393678,7.234557217240272e-05
-0.35858991511922794,-0.35858991511922794,0.9999885424953557,7.211839828401596e-05
-0.35792486655700484,-0.35792486655700484,1.0000113707623817,7.189598133553338e-05
-0.356968614179641,-0.356968614179641,0.9999752535828164,7.143974228282011e-05
-0.35595661721599753,-0.35595661721599753,1.0000812168576096,7.194096453787317e-05
-0.3551089025393594,-0.3551089025393594,1.0000050551391524,7.214236386236888e-05
-0.3542396665230626,-0.3542396665230626,0.9999693064240919,7.232286445772542e-05
-0.353748253750382,-0.353748253750382,1.0000033777950534,7.243501781467098e-05
-0.3530219617387047,-0.3530219617387047,1.0000234766570224,7.239410582869968e-05
-0.3516908278950723,-0.3516908278950723,0.9999245422883849,7.258348651244496e-05
-0.35113428307813593,-0.35113428307813593,0.9999480583767083,7.210653665972195e-05
-0.3507668211212149,-0.3507668211212149,0.9999422295875785,7.210568646517446e-05
-0.35014465309504883,-0.35014465309504883,0.9999342928341252,7.167152864589393e-05
-0.34889590003876947,-0.34889590003876947,0.9999388409491894,7.148131296856505e-05
-0.3479982749966439,-0.3479982749966439,1.0000482552840562,7.22220419200719e-05
-0.3472389698639745,-0.3472389698639745,0.9999139217593529,7.190226940480791e-05
-0.34625203055329623,-0.34625203055329623,1.0000498044237518,7.216035505433785e-05
-0.34593644824053627,-0.34593644824053627,0.99982143287779,7.220415729827445e-05
-0.34491884243034293,-0.34491884243034293,0.9998753258584943,7.288876722207859e-05
-0.34401932822365777,-0.34401932822365777,0.9999316149967619,7.258139723593856e-05
-0.3434900865802774,-0.3434900865802774,1.0000593319586484,7.216474395994239e-05
-0.3432816172251478,-0.3432816172251478,1.0001401998836403,7.213506975935362e-05
-0.34271447153005286,-0.34271447153005286,1.0000549496113118,7.513307237947599e-05
-0.34216026579088066,-0.34216026579088066,1.0000243452161321,7.165921502897566e-05
-0.3410511544265319,-0.3410511544265319,0.9999616299708165,7.152041188419958e-05
-0.3402419414749602,-0.3402419414749602,1.0000949569356314,7.332665201865082e-05
-0.33955708041903565,-0.33955708041903565,0.9999072438122024,7.2393077838933e-05
-0.3388281996565638,-0.3388281996565638,0.99989128226999,7.20257736437176e-05
-0.33854706878773866,-0.33854706878773866,0.9999312555840316,7.241361588764724e-05
-0.3381113961571828,-0.3381113961571828,0.9999758103527967,7.21541840323258e-05
-0.33676785582210866,-0.33676785582210866,1.0000054302556258,7.259667922480995e-05
-0.3359730009367922,-0.3359730009367922,1.0000776587184392,7.211821265521178e-05
-0.3356427924067248,-0.3356427924067248,1.0001316315703739,7.235248452176025e-05
-0.3348258264915785,-0.3348258264915785,0.9999154906613367,7.166447418367363e-05
-0.33387878927460407,-0.33387878927460407,1.00003911187864,7.14516109048441e-05
-0.3327437698259018,-0.3327437698259018,1.0000332857384109,7.192900910765638e-05
-0.33188927560986486,-0.33188927560986486,1.0000920509815703,7.214343262357671e-05
-0.3310369969432941,-0.3310369969432941,1.0001297745520201,7.228856903148285e-05
-0.3307102691673208,-0.3307102691673208,1.000149853944556,7.266400189431728e-05
-0.32967558821837883,-0.32967558821837883,1.000107472052759,7.215315778032007e-05
-0.32864142113830896,-0.32864142113830896,1.000133218590102,7.258688507848976e-05
-0.3282402239419753,-0.3282402239419753,1.000145050725116,7.210859223418741e-05
-0.32784389015287163,-0.32784389015287163,0.9999969868784863,7.211354123705355e-05
-0.32711680355714634,-0.32711680355714634,0.9998954030026741,7.166557758685462e-05
-0.3261344978644047,-0.3261344978644047,1.0001454451461431,7.149927623440571e-05
-0.3250875996629475,-0.3250875996629475,0.9998507456725356,7.226133906918053e-05
-0.3243263298034435,-0.3243263298034435,1.000018409061191,7.189991136747615e-05
-0.3233815140731167,-0.3233815140731167,0.9999424185605538,7.214996314134945e-05
-0.32302050006692296,-0.32302050006692296,1.000093727417608,7.220887342985811e-05
-0.3219460961583536,-0.3219460961583536,1.00006376755955,7.322533986684209e-05
-0.32099449778324923,-0.32099449778324923,1.0000412261258753,7.258235378487892e-05
-0.3205511561682215,-0.3205511561682215,1.0000711925422838,7.22003438144983e-05
-0.3202733245008858,-0.3202733245008858,1.0000474487925008,7.189647801677302e-05
-0.3197196261957288,-0.3197196261957288,1.0000332470807964,7.595429401594668e-05
-0.31883716680458746,-0.31883716680458746,0.9999750731246067,7.148293529885478e-05
-0.31781444552761967,-0.31781444552761967,0.9998042578363922,7.315945883408971e-05
-0.31707531095307784,-0.31707531095307784,0.9999516747383798,7.214278937093053e-05
