time,time,flux,flux_err
-0.4994786701693859,-0.4994786701693859,0.9998548622179689,0.0002242116642446349
-0.49710545488778735,-0.49710545488778735,0.999622750734248,0.00022209561421797277
-0.494661091681337,-0.494661091681337,1.000179560510215,0.00022290334834359043
-0.4923623200011207,-0.4923623200011207,1.0001704753283949,0.00022259944314714807
-0.49139099432795774,-0.49139099432795774,0.9997573083446163,0.00020541097695545387
-0.489255604124628,-0.489255604124628,1.000329828084569,0.00020251077079316365
-0.4878025132755283,-0.4878025132755283,1.0000306723833903,0.0002052135193236449
-0.48588429620722307,-0.48588429620722307,1.0001692375506175,0.00020285044060281532
-0.4836435867502587,-0.4836435867502587,0.9998534829560357,0.0002023244645632976
-0.4820499994471902,-0.4820499994471902,0.999865043480012,0.00020375437113416382
-0.4804924255091464,-0.4804924255091464,0.9999880725514027,0.0002033754467830023
-0.4795181981928181,-0.4795181981928181,0.9999632594692758,0.0002055354946563909
-0.4772591122193262,-0.4772591122193262,0.9996827849512444,0.0002024799467570323
-0.47595798639813436,-0.47595798639813436,1.0001524149986931,0.00020530932905908015
-0.47367255863500757,-0.47367255863500757,1.0001707912488194,0.00020287241978807221
-0.4719059552735416,-0.4719059552735416,1.0000018337615573,0.00020358114926042687
-0.47004057715530506,-0.47004057715530506,0.9999871997679319,0.00020254857560865602
-0.4687332611094462,-0.4687332611094462,1.0001048136011288,0.0002033564346734342
-0.4675120443018386,-0.4675120443018386,0.9999110501450577,0.0002056336288309939
-0.46536250197677875,-0.46536250197677875,1.0001637052857644,0.00020247790636214507
-0.46423024353571235,-0.46423024353571235,0.9996035515578907,0.00020534790050434864
-0.46209063155110924,-0.46209063155110924,0.9999781127414554,0.00020290553902536278
-0.46032190160476605,-0.46032190160476605,0.9998631517825329,0.0002035423240443166
-0.45845332623575813,-0.45845332623575813,1.000081343803874,0.00020256023451234814
-0.45714843067980837,-0.45714843067980837,0.9997153740736465,0.00020333371763275434
-0.45615116679109635,-0.45615116679109635,1.0000639239588889,0.00020575957102906224
-0.4541083323099883,-0.4541083323099883,1.000081069888611,0.0002024958738487128
-0.4528251583717065,-0.4528251583717065,1.0001251850151607,0.00020533854786667212
-0.45114120592188556,-0.45114120592188556,1.0001016841028063,0.00020301242628276592
-0.4488862481608521,-0.4488862481608521,1.0000626937593258,0.00020236038023186542
-0.4473073200613726,-0.4473073200613726,1.0000124194821982,0.0002039045303537916
-0.4457348523166729,-0.4457348523166729,1.0000941093572506,0.00020344273740583553
-0.4447673972463235,-0.4447673972463235,1.0000415955919548,0.0002059509082257896
-0.4433413540245965,-0.4433413540245965,1.0002409884582404,0.00021723004917289468
-0.44171571712649893,-0.44171571712649893,0.9999503976329294,0.00020543021704381867
-0.44033885636890774,-0.44033885636890774,0.9995411924989268,0.0002029767177499257
-0.4379875094513409,-0.4379875094513409,0.9998835258565151,0.0002023652034922178
-0.4366216103750048,-0.4366216103750048,0.9996200464136555,0.00020388055501836827
-0.4345302943373099,-0.4345302943373099,1.0001910309800581,0.00020230531609729285
-0.43367274229822217,-0.43367274229822217,1.000221334540702,0.00020717446168876482
-0.43221092270105144,-0.43221092270105144,1.0000153319922274,0.0002023414051749676
-0.43029599903093185,-0.43029599903093185,0.9998859115214034,0.00020246428637280648
-0.42918284400366247,-0.42918284400366247,1.0002793949893005,0.00020621730963447517
-0.4268060933420202,-0.4268060933420202,0.999822654480121,0.00020232018691290955
-0.4254154044785537,-0.4254154044785537,1.0003247320696704,0.00020393868951153792
-0.42322592792334035,-0.42322592792334035,0.999834816283688,0.0002023067853611352
-0.4221581645135302,-0.4221581645135302,1.00008236334049,0.00020732327020697976
-0.42062604671518783,-0.42062604671518783,0.9999185134101435,0.00020234413995747906
-0.4187128873600159,-0.4187128873600159,0.9999868893653627,0.00020249487506628989
-0.4176014361466514,-0.4176014361466514,1.0001110563706723,0.00020628633834391874
-0.41522394222265574,-0.41522394222265574,1.000023920974121,0.00020235469050368057
-0.413828026788542,-0.413828026788542,0.9999714988610184,0.0002039517007190105
-0.4116373899189057,-0.4116373899189057,0.9997516423528989,0.00020231500290896344
-0.41057987518433947,-0.41057987518433947,1.0001199162652843,0.00020755411168392135
-0.4088763278705301,-0.4088763278705301,0.999892881623261,0.00020249083657326384
-0.4069560720876325,-0.4069560720876325,0.9999638587416435,0.00020565029865566298
-0.4055954373121494,-0.4055954373121494,0.9997130140943871,0.0002030031302382291
-0.4032384249730967,-0.4032384249730967,0.9998370387680626,0.00020239811581084245
-0.4018637813365785,-0.4018637813365785,0.9999939228942398,0.00020395006517458814
-0.39977217235718854,-0.39977217235718854,1.0001302629414863,0.00020232514314374628
-0.39876559884869495,-0.39876559884869495,0.9999516166475786,0.0002076199026733271
-0.396979937289143,-0.396979937289143,0.9999564008053567,0.00020250990491309096
-0.3953770411288133,-0.3953770411288133,1.000037799769829,0.00020574539089096875
-0.3944376432162244,-0.3944376432162244,0.9999072427426094,0.00020304109919687098
-0.39205975134682375,-0.39205975134682375,1.0001643140906284,0.0002023351556682072
-0.39065332979371303,-0.39065332979371303,1.000156538738997,0.0002040108150265385
-0.38846041200158654,-0.38846041200158654,1.000106694180922,0.00020232395543216445
-0.3874233416747302,-0.3874233416747302,0.9999019650583089,0.0002078186149927871
-0.3857079757290194,-0.3857079757290194,1.0000760047501482,0.00020249402593434593
-0.3837912085436983,-0.3837912085436983,0.999812144181013,0.00020575067090605804
-0.38285486871900504,-0.38285486871900504,1.0002255588884075,0.0002030512853555953
-0.3804777235229267,-0.3804777235229267,0.9999098318578883,0.00020232510476955208
-0.37906601176655386,-0.37906601176655386,0.9997058102155039,0.0002039980991675122
-0.37674164469062815,-0.37674164469062815,0.9998247361616096,0.00020229654415236976
-0.37560034146299587,-0.37560034146299587,0.9997481079681718,0.00020795984267747356
-0.3736444530572044,-0.3736444530572044,1.0002021626588484,0.00020255150427053175
-0.37208332427835555,-0.37208332427835555,1.000056742802117,0.00020586406450252772
-0.3708522714616265,-0.3708522714616265,0.9999682367217713,0.00020308389877135547
-0.3684895923768636,-0.3684895923768636,1.0003806605992438,0.00020237473198757937
-0.3671061537868809,-0.3671061537868809,1.000181513732843,0.00020398855515646079
-0.3648637645703275,-0.3648637645703275,0.999770837802531,0.0002023124260439348
-0.36373699388932434,-0.36373699388932434,1.0003313746743268,0.00020823791883107734
-0.3616358368075453,-0.3616358368075453,1.000259002059774,0.0002024888149095285
-0.36025738168100363,-0.36025738168100363,1.0000096197475534,0.00020588875574342391
-0.35892108899133746,-0.35892108899133746,1.0001814338816744,0.0002031108321789096
-0.35651315724826416,-0.35651315724826416,1.000222645190472,0.00020238862567738855
-0.35510841631912626,-0.35510841631912626,1.0001674089084691,0.0002040109709072439
-0.35304897666501345,-0.35304897666501345,1.000251354428622,0.0002035923881538856
-0.3518248424923513,-0.3518248424923513,1.000035779442728,0.00020717102929928302
-0.3495816524606198,-0.3495816524606198,1.000046836070602,0.00020251008336988943
-0.34852959448762705,-0.34852959448762705,1.0000554554373013,0.00020590280290722733
-0.347172848606715,-0.347172848606715,0.9997360673054198,0.00020915302711018024
-0.34493217706040014,-0.34493217706040014,1.0001951529902677,0.0002024110529870242
-0.34352650955552233,-0.34352650955552233,0.9999359285606501,0.00020402433649288626
-0.3414633482432691,-0.3414633482432691,0.9995894378863763,0.0002035435555805713
-0.34023931880365127,-0.34023931880365127,0.9998164639297361,0.00020731734688920225
-0.3380029159365222,-0.3380029159365222,0.9998591557647369,0.0002025342860630829
-0.3369412915519206,-0.3369412915519206,1.0000751410417688,0.00020592055767468275
-0.3355901796661783,-0.3355901796661783,1.000185301693516,0.00020926577244840394
-0.3333512127923314,-0.3333512127923314,0.9997975158530629,0.00020232410726776713
-0.3319446227280423,-0.3319446227280423,0.9997823794514638,0.00020399572671810198
-0.32987773704517165,-0.32987773704517165,0.9998579982103429,0.00020359860388014715
-0.32865382558084094,-0.32865382558084094,0.9999534685102643,0.00020749562853475054
-0.3264242099452531,-0.3264242099452531,0.9998082084950439,0.00020251540969593948
-0.3253530098765623,-0.3253530098765623,0.9999376938858138,0.00020599905994858584
-0.32400753992260434,-0.32400753992260434,1.0002874310378569,0.00020942972571600247
-0.32177026840508915,-0.32177026840508915,1.0000260766491806,0.00020238575550825854
-0.3203627570648678,-0.3203627570648678,1.0002694577956839,0.00020406212582876041
-0.3182921430998249,-0.3182921430998249,0.9996740659029587,0.00020361986052918748
-0.31706836420635226,-0.31706836420635226,0.9999217072566913,0.0002075941424782824
-0.31484552382898984,-0.31484552382898984,1.000228945123754,0.00020255773984776348
-0.3137647388095502,-0.3137647388095502,0.9996415232953272,0.00020601366760521282
-0.3124249346234137,-0.3124249346234137,0.9999031215176182,0.00020963780251766936
-0.31021962374506984,-0.31021962374506984,0.9999457712585624,0.00020281856614933987
-0.30917724953906145,-0.30917724953906145,1.0000519894880835,0.00020400898167151213
-0.3069493236776907,-0.3069493236776907,1.0001685594736196,0.0002023534548324086
-0.3058279292017687,-0.3058279292017687,1.0002705033830608,0.00020910308133462486
-0.3037273969763191,-0.3037273969763191,1.000050001133659,0.00020254121343412775
-0.3023046993621392,-0.3023046993621392,1.000062165784012,0.0002061249624797209
-0.30120385049667675,-0.30120385049667675,1.0001120034927244,0.0002098382524651411
-0.29899267077271363,-0.29899267077271363,1.0000347394093372,0.00020233607836134124
-0.2979464426578488,-0.2979464426578488,1.00007640386548,0.0002045179929431299
-0.29602608940913344,-0.29602608940913344,1.0002962381079041,0.00020698795527454241
-0.29478763898368926,-0.29478763898368926,1.00009270361114,0.00020928000857094907
-0.29303604637098035,-0.29303604637098035,0.9999615398190145,0.0002024850160537044
-0.29110525601718107,-0.29110525601718107,0.9999371068458032,0.00020615059858916383
-0.29019326127890965,-0.29019326127890965,1.0001813152908763,0.0002032000717565842
-0.2887141834391514,-0.2887141834391514,0.9999774655589819,0.0002092029112780105
-0.2867570106842322,-0.2867570106842322,1.000265508790771,0.00020286254627077056
-0.2857923411356751,-0.2857923411356751,0.9998637266926116,0.0002087402910024193
-0.28378371670842173,-0.28378371670842173,1.0002453040209902,0.00020239935348610275
-0.28266437782731374,-0.28266437782731374,0.9998387145818495,0.0002094549804804906
-0.280681638099486,-0.280681638099486,1.000028092235866,0.00020294145885811003
-0.27949261754984034,-0.27949261754984034,0.9996496907742433,0.0002120343735131917
-0.27861063261225355,-0.27861063261225355,1.0000502537448281,0.00020323843542156676
-0.2771324684261344,-0.2771324684261344,0.9999032498945306,0.00020943661844127862
-0.27517346473759974,-0.27517346473759974,1.0001439692701841,0.00020284838155748742
-0.27420785403228365,-0.27420785403228365,0.9999048467835282,0.00020897236669662449
-0.2722269635851262,-0.2722269635851262,0.9999858011415268,0.00020235514266133095
-0.2713572970562382,-0.2713572970562382,1.0000724885457724,0.0002096257344521141
-0.26952688192541246,-0.26952688192541246,0.9999536483612541,0.00020296174476035884
-0.26793403671181293,-0.26793403671181293,1.0001667082962142,0.00020630872377756343
-0.2670279452082468,-0.2670279452082468,1.0000197726979083,0.0002032351851794703
-0.2655507905437844,-0.2655507905437844,1.000165632711655,0.00020971797058779899
-0.2635899373301072,-0.2635899373301072,1.0001277178426977,0.0002028499210839512
-0.26262337620719334,-0.26262337620719334,0.9998987034921475,0.00020905172799765958
-0.26064365709316917,-0.26064365709316917,0.9999529308113736,0.0002023751540703869
-0.25955481659038926,-0.25955481659038926,1.0000969321151942,0.00020392322713559788
-0.25773793759872204,-0.25773793759872204,1.0000772927895891,0.000217257679345945
-0.25634934015979527,-0.25634934015979527,0.9998918296405096,0.00020638943477118907
-0.25544442706450354,-0.25544442706450354,1.0000475162410862,0.00020326918496417127
-0.25396913914592006,-0.25396913914592006,1.0001869486966513,0.0002100400022037265
-0.25220915717363823,-0.25220915717363823,0.9998127108599626,0.00020273151397087524
-0.25159949163207784,-0.25159949163207784,1.0001368598460538,0.00020461806710881506
-0.24969630048726685,-0.24969630048726685,0.9999886557332921,0.00020754840288052888
-0.24853284276905468,-0.24853284276905468,0.9997855321993268,0.00020393317578823073
-0.24672544092754833,-0.24672544092754833,1.0002135966861654,0.0002027383507205105
-0.24500567761715503,-0.24500567761715503,0.9999218613841598,0.00020663762250331137
-0.2440696005593054,-0.2440696005593054,0.9998690326858759,0.00020251615862443046
-0.24272140589600893,-0.24272140589600893,0.9995083777113148,0.00021100207663346057
-0.2409512402344262,-0.2409512402344262,1.0004979613006397,0.00020234484714927686
-0.24015806693641933,-0.24015806693641933,0.9996850300111347,0.0002043401160630977
-0.23856737671012523,-0.23856737671012523,1.000233973635908,0.00020789513980073483
-0.23717579001386185,-0.23717579001386185,0.9998027480805586,0.00020399403145814348
-0.2358777940273285,-0.2358777940273285,0.9998900478706011,0.00020234393155565137
-0.23404554280859885,-0.23404554280859885,1.0001941687435307,0.0002029759321340293
-0.23277594505634625,-0.23277594505634625,1.0001336557767633,0.00020654069802419905
-0.2317680821783142,-0.2317680821783142,1.0002266374866084,0.00021158285124951094
-0.22991480005439371,-0.22991480005439371,0.9998875268940832,0.00020238452287769915
-0.22867853259958792,-0.22867853259958792,1.0001931032879028,0.000204387022507092
-0.2274926006910391,-0.2274926006910391,0.9997644639456146,0.000207930922580891
-0.22567351259931456,-0.22567351259931456,1.0000790213488413,0.0002023938928662974
-0.2246605124499183,-0.2246605124499183,1.0001486049800543,0.00020407711257479345
-0.22276185127266218,-0.22276185127266218,1.0000732098464176,0.00020294190057232542
-0.2214277924387716,-0.2214277924387716,1.0002623505766668,0.00020662394857155902
-0.22046183122729418,-0.22046183122729418,1.0002804506478165,0.00021188063465119765
-0.2187282559782034,-0.2187282559782034,0.999915876342745,0.00020230341412000235
-0.21720704275066965,-0.21720704275066965,1.0000678006596746,0.00020446599279746476
-0.21627247401338537,-0.21627247401338537,1.0001584487081232,0.00020804019293747095
-0.21431538426841143,-0.21431538426841143,1.0000616567850775,0.00020241921355506227
-0.21334296943678055,-0.21334296943678055,0.9999975225624096,0.00020410368771298557
-0.21165439971955494,-0.21165439971955494,1.0001268508237706,0.00020249190020846854
-0.2098390361876227,-0.2098390361876227,0.9997993551292529,0.00020675687084456443
-0.20848485674068798,-0.20848485674068798,1.0002016291703149,0.00020337540480403946
-0.20635169142624363,-0.20635169142624363,0.9999021140503622,0.0002022928570333304
-0.20539690160076135,-0.20539690160076135,1.000061085060997,0.0002045048703417917
-0.20416529834910763,-0.20416529834910763,1.0003275844869277,0.00020818460585249815
-0.2026336297247326,-0.2026336297247326,1.0002723308078618,0.00020242273383802768
-0.2016307023674017,-0.2016307023674017,0.999713556846985,0.0002041902375661655
-0.1996345353050856,-0.1996345353050856,1.0001323911632742,0.0002024580435107058
-0.19784478495130314,-0.19784478495130314,1.000166269817044,0.00020255264653642755
-0.19609849184344058,-0.19609849184344058,1.000117541935607,0.00020311384600790494
-0.1942929400713183,-0.1942929400713183,1.0000678594424677,0.0002031374650799653
-0.19356006103625986,-0.19356006103625986,0.9997106810432108,0.00021008104205606288
-0.19143152523320167,-0.19143152523320167,0.9999989149401747,0.0002023836654546659
-0.19031645275244954,-0.19031645275244954,0.9997816400380003,0.00020423263102543372
-0.18868365920498037,-0.18868365920498037,0.9997508872592897,0.00020256335101058895
-0.18690105581772515,-0.18690105581772515,0.9998473036041832,0.00020251001970750525
-0.18532831295160576,-0.18532831295160576,0.9997893608242505,0.00020337201993046754
-0.18330158989701886,-0.18330158989701886,0.9999879991516594,0.00020318425485725073
-0.18233077432087158,-0.18233077432087158,0.9999485503263237,0.00020463877054547065
-0.18071564089332243,-0.18071564089332243,0.9999886400310262,0.0002080671071658474
-0.17924520616943482,-0.17924520616943482,0.9998878533513669,0.0002042274657590176
-0.1777968904847512,-0.1777968904847512,1.0001016965614018,0.0002026888180044956
-0.17670406230317895,-0.17670406230317895,0.9997950537694333,0.00020240662703831957
-0.17498697489791085,-0.17498697489791085,1.0006165116176642,0.00020239292271585066
-0.17313282512477599,-0.17313282512477599,0.9997601489198603,0.00020336198555282316
-0.1711247320024995,-0.1711247320024995,0.9997932133972764,0.00020317324905993198
-0.17038711642380805,-0.17038711642380805,1.0000954715628338,0.00021049771768096606
-0.16827034600137267,-0.16827034600137267,0.9998830345452177,0.00020234361866139304
-0.16714924283442087,-0.16714924283442087,1.000294611927543,0.0002043757832847421
-0.1657812593417475,-0.1657812593417475,1.0002669228637813,0.00020255306298009785
-0.16414472613832914,-0.16414472613832914,1.000135126324582,0.00020254847702603262
-0.16249844276171643,-0.16249844276171643,1.0001120744673142,0.0002034416540246698
-0.1601376014528796,-0.1601376014528796,1.000295785761525,0.00020319281558770064
-0.15915698531025554,-0.15915698531025554,1.0001377042594624,0.00020488471126449293
-0.15755224498279857,-0.15755224498279857,0.9999577659016093,0.00020831161057344974
-0.15607118421175983,-0.15607118421175983,1.0001010341407839,0.00020432278534946287
-0.15463637235225178,-0.15463637235225178,1.000062364742678,0.000202692030818106
-0.15340333733183797,-0.15340333733183797,1.000115098186365,0.00020250309428414276
-0.15149176821578295,-0.15149176821578295,1.0003191109830456,0.0002025847960205038
-0.14957197112962603,-0.14957197112962603,1.0000299479440586,0.0002032025040767574
-0.1479566021793289,-0.1479566021793289,0.9998967050771961,0.00020314795882678732
-0.14721421291760634,-0.14721421291760634,1.0000771330697917,0.00021089983906088538
-0.14510927810333668,-0.14510927810333668,1.0001149283605506,0.00020240065140709196
-0.14398209920327645,-0.14398209920327645,0.999657727299273,0.00020438703011776502
-0.14260505950660446,-0.14260505950660446,1.000002402616671,0.00020253117547352792
-0.14098155159445014,-0.14098155159445014,1.0000108288665273,0.000202568722388866
-0.13933440392429475,-0.13933440392429475,1.0000469868238016,0.00020349069031356596
-0.1369737084431108,-0.1369737084431108,1.0001067764652363,0.00020325894832722084
-0.13598325067432598,-0.13598325067432598,0.9999051860903592,0.00020511411096423715
-0.13438892990234308,-0.13438892990234308,1.0002365585345498,0.00020854592834353023
-0.13289724712667522,-0.13289724712667522,0.9999992588656879,0.0002043689535348448
-0.13147592180757783,-0.13147592180757783,0.9999547220689291,0.0002026995860099817
-0.1302336675609695,-0.1302336675609695,0.999966722845563,0.00020247639468116396
-0.12863514934142586,-0.12863514934142586,1.0001332748063054,0.00020229651135471302
-0.12679994499776512,-0.12679994499776512,1.0001499688262467,0.00020343975656083566
-0.12490907110332046,-0.12490907110332046,0.9999223630130775,0.00020321096088001808
-0.12413907881709747,-0.12413907881709747,0.9998456938094498,0.00021146765304810226
-0.1219536584801972,-0.1219536584801972,0.9995970188389359,0.00020236692174688901
-0.12080968890222721,-0.12080968890222721,1.000206595680686,0.00020452766975232454
