time,time,flux,flux_err
-0.499444079077269,-0.499444079077269,1.0000464806816598,0.00030788685492593815
-0.49877963326616737,-0.49877963326616737,1.0000756061726914,0.0002909482274926848
-0.4980120811366457,-0.4980120811366457,1.000368120789014,0.00029097325937792846
-0.4968901063281616,-0.4968901063281616,1.0002296080610982,0.0002995777497892504
-0.495940401511325,-0.495940401511325,0.9999349364379146,0.0002719267038399251
-0.49509744727693034,-0.49509744727693034,1.0001840505149662,0.00026728074671247116
-0.49419533203617905,-0.49419533203617905,1.0002791423478534,0.00029793756449397827
-0.4935743047404685,-0.4935743047404685,1.0001060680032325,0.00027355578487149606
-0.4928473979991395,-0.4928473979991395,0.9998973010954201,0.00029690795359728014
-0.4921373638222576,-0.4921373638222576,0.999690159212696,0.0002773433364605491
-0.4911945536907297,-0.4911945536907297,0.9997923769452,0.0002669928564231974
-0.4905790616452578,-0.4905790616452578,1.0003790217756492,0.00026256815693906794
-0.4900625473972468,-0.4900625473972468,1.0001541688474167,0.000267333521347581
-0.48907975126203385,-0.48907975126203385,0.9997340018658057,0.00027195694388730004
-0.488250186984078,-0.488250186984078,0.9999648882922705,0.0002718661936114506
-0.4873741455958225,-0.4873741455958225,1.0001201413540932,0.00027196430994887063
-0.48647306282873615,-0.48647306282873615,1.0003480088850805,0.000267448539782342
-0.4857156730060524,-0.4857156730060524,1.000512869073971,0.0002721397514395499
-0.48496799062631907,-0.48496799062631907,0.9998994777633279,0.0002728790667540002
-0.48425125362409743,-0.48425125362409743,0.9998315096565044,0.00028433757574586305
-0.483329722747294,-0.483329722747294,1.0001357795971522,0.00027355924151420625
-0.48280922328849557,-0.48280922328849557,0.9997916522784486,0.00026746882794787344
-0.4824817965098191,-0.4824817965098191,1.0000686617550063,0.00026720829125412716
-0.48162893948319835,-0.48162893948319835,1.0002904040400948,0.00027194318963322305
-0.4805234118080989,-0.4805234118080989,0.9999692045294903,0.0002673247258388085
-0.47968216129665964,-0.47968216129665964,1.000370442240922,0.0002718951206764239
-0.47889325538562844,-0.47889325538562844,1.000145639802374,0.00027206948446647686
-0.47816867882866065,-0.47816867882866065,0.999830160828101,0.0002720294735829465
-0.4774423807139101,-0.4774423807139101,1.0000029978179683,0.0002764947884942708
-0.47696856874026705,-0.47696856874026705,1.0002502379263134,0.00027212286427252043
-0.4760702659870731,-0.4760702659870731,1.0002612133558337,0.0002764674953194172
-0.47524819629397824,-0.47524819629397824,0.9999147122131535,0.0002643783192221152
-0.4749502308339288,-0.4749502308339288,1.0001067783575488,0.000265399536645758
-0.47447163247634305,-0.47447163247634305,1.0001762587093472,0.00027204104096471105
-0.4735266457500984,-0.4735266457500984,1.000291568452108,0.00026734764154607253
-0.4725263405467558,-0.4725263405467558,1.0001037619344129,0.000271917714531354
-0.47161807856100496,-0.47161807856100496,1.000360609097316,0.0002720038030750244
-0.47095665407541676,-0.47095665407541676,0.9999311893596673,0.000267414589517068
-0.47037293711982786,-0.47037293711982786,1.0002073085863858,0.00027738125031172924
-0.46975778396517853,-0.46975778396517853,0.9998297059536704,0.0002960957392197592
-0.4690082892375358,-0.4690082892375358,1.0000530745308336,0.0002767102987648348
-0.46804052647057687,-0.46804052647057687,1.0003281433773892,0.00027185434173434365
-0.467464962957456,-0.467464962957456,0.9994942779561464,0.0002646992907422352
-0.46703618144456416,-0.46703618144456416,0.9995548311805112,0.0002684018435340174
-0.46619344046339395,-0.46619344046339395,0.999785954622117,0.0002672379979992035
-0.4654279859707458,-0.4654279859707458,0.9995390848018456,0.0002719667265653436
-0.46441642478603173,-0.46441642478603173,0.9999322679073798,0.00026724735049158505
-0.4636091859167209,-0.4636091859167209,0.9999702878270252,0.00027198277925234975
-0.462941078410222,-0.462941078410222,0.9999110722006085,0.0002674845898823062
-0.46217429039097624,-0.46217429039097624,0.9999630947370208,0.0002922167668264469
-0.4615645793972362,-0.4615645793972362,1.0000925871093853,0.0002825503871058245
-0.4607383406924782,-0.4607383406924782,1.0002918641365546,0.0002817381146485297
-0.4600407691701548,-0.4600407691701548,0.9999306617492151,0.00025753044543912873
-0.45957147629524114,-0.45957147629524114,1.0001730279440009,0.000262314133288088
-0.4590463681743131,-0.4590463681743131,0.9999559119109565,0.00026746368821257207
-0.4580935957506881,-0.4580935957506881,0.999844819496851,0.0002719978105320832
-0.4572609092472703,-0.4572609092472703,1.000294693681626,0.0002719124115017686
-0.4564517162536504,-0.4564517162536504,1.000133985983409,0.00026728424086455677
-0.45573292982953717,-0.45573292982953717,1.000100802940139,0.0002719807678592254
-0.4550751612456224,-0.4550751612456224,1.0001126306511332,0.00026742689426347476
-0.4542756755479786,-0.4542756755479786,0.9996129199707721,0.00028268992168094834
-0.4536564861926308,-0.4536564861926308,1.000078251664247,0.00027214564703935656
-0.4530476139378152,-0.4530476139378152,0.9995173615756702,0.00027644912900255116
-0.4523058728402248,-0.4523058728402248,0.9999472059227685,0.00026515870829774184
-0.45158580130373593,-0.45158580130373593,0.9999309463539667,0.0002575556391816079
-0.4509956371461158,-0.4509956371461158,1.0000455335310168,0.00027183211224683136
-0.4500607524321822,-0.4500607524321822,0.9998805857813663,0.0002719689788050236
-0.4491724234139838,-0.4491724234139838,1.0000291620683754,0.00027189562892285826
-0.4483139937983651,-0.4483139937983651,0.9998601169995025,0.00026734171942504714
-0.4475174446029996,-0.4475174446029996,1.000110653143353,0.00033317182223280826
-0.4470148607673764,-0.4470148607673764,0.9996104399143212,0.0002812630672713007
-0.44643572230052087,-0.44643572230052087,0.9999439509328635,0.0002948147552098236
-0.4457881661386637,-0.4457881661386637,1.0002457534038676,0.00027583567934053586
-0.4450096088279679,-0.4450096088279679,0.9999343148907526,0.00027658331956489907
-0.44440967423579425,-0.44440967423579425,0.9999079311438555,0.0002690670301775589
-0.4436580825204146,-0.4436580825204146,1.000473293421044,0.0002625603611922252
-0.4429237835815002,-0.4429237835815002,1.0000825302136682,0.000276556185789674
-0.4419839289839729,-0.4419839289839729,1.0003022522323495,0.00026741117469920996
-0.44112389124493345,-0.44112389124493345,1.0004774081666081,0.0002720049172744617
-0.44027590261466687,-0.44027590261466687,0.9999032594519687,0.0002719547418506792
-0.43936960424762217,-0.43936960424762217,0.9999322985682607,0.0003100594374986247
-0.4387921908950375,-0.4387921908950375,0.9999475758396397,0.0002911388333606138
-0.43807234727282773,-0.43807234727282773,0.9998759050112008,0.0002746442944569881
-0.43729008409864034,-0.43729008409864034,0.9998319262886879,0.0002765482449124174
-0.4364941615356656,-0.4364941615356656,1.000109377079232,0.0002837900070974317
-0.4359073627318139,-0.4359073627318139,1.000126776134054,0.0002625065225359516
-0.43520776660225235,-0.43520776660225235,1.0001008487913905,0.000271889983938196
-0.43428733372638817,-0.43428733372638817,1.000184227487464,0.0002719597226287147
-0.433407622793311,-0.433407622793311,1.0002208320159587,0.0002719360667576509
-0.4325694295723224,-0.4325694295723224,0.9996587836190305,0.000267225119156524
-0.43166320252857987,-0.43166320252857987,1.0002834896821757,0.00029094988152867025
-0.43117709068901605,-0.43117709068901605,1.000225497198418,0.0002677389852412313
-0.4306301247495867,-0.4306301247495867,0.9998150731872462,0.00029573520476392867
-0.4298992723655829,-0.4298992723655829,1.0001903968006105,0.00027665846965381003
-0.4290523580908484,-0.4290523580908484,0.9998770729907067,0.0002733251856045037
-0.4282385925653216,-0.4282385925653216,0.9996774525431726,0.00028084028455934535
-0.4278190575016197,-0.4278190575016197,0.9996595556716856,0.00026235746459224863
-0.4269817468521069,-0.4269817468521069,1.000095326473669,0.0002720240769690798
-0.42593921462539586,-0.42593921462539586,1.000261963028296,0.0002719237300455213
-0.4251874636080174,-0.4251874636080174,1.0002456127193633,0.00027191499886352905
-0.42440001016802853,-0.42440001016802853,1.0001248042903288,0.000271962643167265
-0.4236392037229962,-0.4236392037229962,1.000253670885689,0.0002720542967921256
-0.42291236848104746,-0.42291236848104746,0.999831296350807,0.00027657177260019756
-0.42216271143988704,-0.42216271143988704,0.9999678524781762,0.0002724914991547747
-0.421224581842398,-0.421224581842398,1.0001206209241895,0.000271836459388325
-0.4204004327286384,-0.4204004327286384,0.9997919502753227,0.0002712442892947655
-0.4200940502298181,-0.4200940502298181,1.0002401984672578,0.00026657041445236657
-0.4192407261536573,-0.4192407261536573,1.0001741324886149,0.00027191867063943646
-0.4182408753702475,-0.4182408753702475,1.000446037185752,0.00027202654863357767
-0.4173043517796032,-0.4173043517796032,1.000214150392789,0.00027184304558522545
-0.4165241952141514,-0.4165241952141514,0.9999977706920324,0.000272029656758375
-0.41576471472217236,-0.41576471472217236,1.0002660792488658,0.00027205071008195995
-0.41519429789914286,-0.41519429789914286,1.0000043864893198,0.000276656655708115
-0.4144378797063837,-0.4144378797063837,0.9998793021219331,0.0002720549298827786
-0.41368786956591064,-0.41368786956591064,0.999674103595436,0.0002719239500797456
-0.412869446210243,-0.412869446210243,1.0001715249190157,0.00027098783272816213
-0.4123822178502451,-0.4123822178502451,1.0001908075470731,0.0002646328939399655
-0.41193618150864497,-0.41193618150864497,1.0000803953180126,0.00027209760465960717
-0.41107693396843387,-0.41107693396843387,1.000079027845714,0.0002672956988028465
-0.41016357175758456,-0.41016357175758456,1.0005425320823966,0.0002673582396185329
-0.4092677274275047,-0.4092677274275047,0.9998163782575512,0.0002718888885065709
-0.4085479486268014,-0.4085479486268014,0.9999101829179702,0.00027205867093910293
-0.40783416463964384,-0.40783416463964384,0.9999402589524783,0.0002721001191754005
-0.4071314152148261,-0.4071314152148261,1.0003685520499772,0.000301998200486664
-0.4064759136279463,-0.4064759136279463,0.9996346399906291,0.00027667739994318184
-0.40551233593869257,-0.40551233593869257,0.9998427389325816,0.0002672059002500671
-0.4049029053989216,-0.4049029053989216,1.0000050279030483,0.0002623097032547365
-0.4043933268651017,-0.4043933268651017,0.9998457006543828,0.0002679484927155217
-0.40346422649818126,-0.40346422649818126,1.0003559111389573,0.0002673315458603079
-0.4027730123641959,-0.4027730123641959,0.9997145548837778,0.0002764435518347512
-0.4018868801620556,-0.4018868801620556,1.0000504788304816,0.00026723564835557306
-0.401079142645176,-0.401079142645176,1.0000380934511142,0.000272021862560328
-0.400415898461506,-0.400415898461506,1.0001061710989714,0.00026746114206583965
-0.39962709790561346,-0.39962709790561346,1.0001468933243227,0.00028473549071113366
-0.3990049992564309,-0.3990049992564309,0.9999826537319156,0.0002766491240833082
-0.39820498019689693,-0.39820498019689693,0.9999533456181101,0.0002822501922204664
-0.3973719449691998,-0.3973719449691998,0.999988207363377,0.00026236880944921194
-0.3969128738841391,-0.3969128738841391,0.9998569651051206,0.00025758923711311735
-0.39637578508627486,-0.39637578508627486,1.0000255234561597,0.0002719377128444467
-0.39555817022264816,-0.39555817022264816,1.0002608764624656,0.00027203463242829093
-0.39472591684461805,-0.39472591684461805,1.0005491916380342,0.0002718999733401747
-0.3939225917070871,-0.3939225917070871,0.9999422476620513,0.0002672413149509891
-0.3931565476152173,-0.3931565476152173,0.9998587845666718,0.0002673275558450259
-0.39255731642406316,-0.39255731642406316,0.999886124510294,0.00035875690205620784
-0.39191376099843184,-0.39191376099843184,0.9998406087462112,0.0002764836898027312
-0.391271588345262,-0.391271588345262,1.000318919871481,0.00029389316007600414
-0.39051782264286883,-0.39051782264286883,0.99961782217261,0.00028102082356868654
-0.389790673006064,-0.389790673006064,0.999761824654601,0.0002669701775917161
-0.3890843932698772,-0.3890843932698772,1.000221520186187,0.0002625671767221551
-0.3884571899936418,-0.3884571899936418,1.000121944386752,0.0002718790736602068
-0.38752570737706266,-0.38752570737706266,1.0004979678232224,0.0002720031194689755
-0.38663941367485677,-0.38663941367485677,0.9997627247454821,0.00027183834324437205
-0.3857857460207015,-0.3857857460207015,1.000054157613605,0.000267253137374232
-0.38504801801536814,-0.38504801801536814,1.0003438049882145,0.0002673371744966068
-0.3845769224259129,-0.3845769224259129,0.9997538171715268,0.0003249624358407619
-0.3839175416971557,-0.3839175416971557,0.9999691839897185,0.00029936892004893276
-0.38325717929765235,-0.38325717929765235,1.0000384750284483,0.00027514757433591986
-0.38259728865668874,-0.38259728865668874,1.00073922090816,0.00027211026129361727
-0.38200057851790914,-0.38200057851790914,1.0004758238161229,0.0002760847770362388
-0.38128613706867326,-0.38128613706867326,0.9996196731118353,0.0002624649748976915
-0.3805632435651205,-0.3805632435651205,1.0002422066712282,0.0002718830255359083
-0.3796389882023504,-0.3796389882023504,0.9996163191755982,0.00027191581440305776
-0.378757003544888,-0.378757003544888,1.0002325023830108,0.000271902346033768
-0.37791345416626426,-0.37791345416626426,1.0001417480340538,0.000267325895720492
-0.3770118506217841,-0.3770118506217841,0.9998065817002033,0.00029888280670420587
-0.37639063882452317,-0.37639063882452317,1.0002687457913002,0.00027368936421544245
-0.37566380029020363,-0.37566380029020363,0.9999945595461464,0.00029701862644804916
-0.3749538264601142,-0.3749538264601142,1.000099934538002,0.00027725264314092145
-0.37401036916780867,-0.37401036916780867,0.9996918722945161,0.0002669924537872271
-0.37339331295588635,-0.37339331295588635,0.9995009187105186,0.00026246257781554284
-0.3728787941035989,-0.3728787941035989,0.9999460520004542,0.0002672762127658054
-0.3718966135464143,-0.3718966135464143,1.000012172690323,0.00027202582740097403
-0.37106700039003043,-0.37106700039003043,1.000304889556277,0.00027189239917217386
-0.37019052022587856,-0.37019052022587856,1.000210797147508,0.00027196491594035603
-0.3692887640463596,-0.3692887640463596,0.9998658049422344,0.000267439846176802
-0.3685314644339087,-0.3685314644339087,1.0000584452760604,0.0002720698163581613
-0.36778438647306755,-0.36778438647306755,1.0000646431229798,0.00027284666998576986
-0.36706818002421643,-0.36706818002421643,0.9997171018384083,0.00028406135376190486
-0.366145096305263,-0.366145096305263,1.0001389892041543,0.00027388395062551824
-0.36559512199019084,-0.36559512199019084,0.9997242249058796,0.0002671155478031306
-0.3651680642295105,-0.3651680642295105,0.9999955809291112,0.00026723240618887264
-0.36422561251165464,-0.36422561251165464,1.0000157201591602,0.00026729331219978294
-0.36318133148888593,-0.36318133148888593,1.0000138094453699,0.00027186327771701205
-0.3623123077071796,-0.3623123077071796,1.0004210943020422,0.0002719947213380426
-0.3615400534778018,-0.3615400534778018,0.9996421175431335,0.000272027350847348
-0.3608837036124896,-0.3608837036124896,0.9998332663623855,0.00027211091234788967
-0.3601034065562999,-0.3601034065562999,1.0001508502663676,0.0002767672554220219
-0.3594860944758693,-0.3594860944758693,1.000343450905682,0.0002766205588634401
-0.35848073607776315,-0.35848073607776315,0.9996570783711697,0.0002670915992061918
-0.3578984257743286,-0.3578984257743286,1.0001426690753834,0.00026932341101733336
-0.3576738843104977,-0.3576738843104977,1.0003249154888065,0.0002657260945321631
-0.35689491494413234,-0.35689491494413234,0.9999707754392023,0.00026726433703289884
-0.35596773760553335,-0.35596773760553335,1.0002720570705648,0.0002719744081822247
-0.35494939042109763,-0.35494939042109763,1.0002464250823797,0.0002719320281265442
-0.3541293088121165,-0.3541293088121165,1.0001140994213376,0.0002673436601030589
-0.3535170776958694,-0.3535170776958694,1.0005721629181012,0.0002721837291995325
-0.3528547587993671,-0.3528547587993671,1.000097458263602,0.000296253245930732
-0.3521456882386701,-0.3521456882386701,0.9998927044717627,0.0002767396670024213
-0.3512434314958227,-0.3512434314958227,0.9997563063627254,0.00027652609193075134
-0.3505253638992144,-0.3505253638992144,0.9999817174195851,0.0002622670357183087
-0.35009638384508435,-0.35009638384508435,1.0002157905284146,0.000269560179790716
-0.3495907132644788,-0.3495907132644788,1.0003548942577989,0.0002685926356013744
-0.3487340950196085,-0.3487340950196085,1.0001304599452907,0.00027198631474606287
-0.3480814914611983,-0.3480814914611983,0.9999414934162862,0.00026723722855559603
-0.3470693167138961,-0.3470693167138961,1.0001134067216602,0.00027191907188161993
-0.346259576700686,-0.346259576700686,1.0003240962325042,0.00026740269975894374
-0.34564519477135036,-0.34564519477135036,1.0005081304623282,0.00027213021728131147
-0.3448208261936088,-0.3448208261936088,1.0000585524402295,0.0002981293481259022
-0.3442626897172886,-0.3442626897172886,0.9997628832741995,0.0002766433527601046
-0.34336615311040075,-0.34336615311040075,0.9999624889971697,0.000277032478043453
-0.3427678345622553,-0.3427678345622553,0.9998950653162384,0.0002623231126010294
-0.3422701870273158,-0.3422701870273158,0.999960246299483,0.00025752550482730175
-0.34170742195128695,-0.34170742195128695,0.9999902046056199,0.0002721153837316797
-0.3407648814172717,-0.3407648814172717,1.0003175199795193,0.0002719866089352996
-0.3399263964594866,-0.3399263964594866,1.0003066902677364,0.00026719568189113407
-0.3392678622236417,-0.3392678622236417,0.9998896138747412,0.0002672706933522923
-0.3385491713488591,-0.3385491713488591,0.9997149164440462,0.00027198768285078016
-0.3378907942591468,-0.3378907942591468,0.9997646264798687,0.00026745182259215106
-0.3370924960319826,-0.3370924960319826,1.0003488878922018,0.00028297490216992147
-0.3363612187669787,-0.3363612187669787,1.0003664280714484,0.000276718505313269
-0.33553287752874894,-0.33553287752874894,0.9998510369421727,0.00027885873853247323
-0.3347970934410114,-0.3347970934410114,0.9996343546429433,0.0002575394027890921
-0.3341155269117735,-0.3341155269117735,1.000257477430825,0.0002672005355087208
-0.33322494892709076,-0.33322494892709076,0.9998560030490531,0.00026727195583995723
-0.33234241665631997,-0.33234241665631997,1.0002613248131884,0.0002764457278513997
-0.331468039072206,-0.331468039072206,1.0005107361014145,0.00026734064145502774
-0.33062973607738966,-0.33062973607738966,1.0001574977372325,0.00026741194567240573
-0.3300186335451144,-0.3300186335451144,0.9998962705671822,0.00034613396319644045
-0.3293834371041157,-0.3293834371041157,0.9994224682316417,0.0002947057559871952
-0.32876759857754223,-0.32876759857754223,1.0004151215645058,0.00027591005347329
-0.32798475453528225,-0.32798475453528225,1.0005526988458855,0.00027664153283558484
-0.32733837302730534,-0.32733837302730534,1.0001078168403854,0.0002735016821203484
-0.3266150133458723,-0.3266150133458723,0.9993702671972826,0.0002624812591574061
-0.3259188190633722,-0.3259188190633722,1.0000586551646837,0.00027189478782459165
-0.32502924120854004,-0.32502924120854004,0.9995224785736283,0.00026738042707651354
-0.3243045203664224,-0.3243045203664224,0.9995809822021812,0.0002718557973972159
-0.32341663859115216,-0.32341663859115216,1.0001915934014565,0.0002719374668032483
-0.32258919847299694,-0.32258919847299694,1.0004516124599512,0.00026746633819001544
-0.32204155206054563,-0.32204155206054563,0.9997451387002535,0.0003113190430184368
-0.3213270627980819,-0.3213270627980819,0.9997413728905725,0.00029779855577470983
-0.32059725060535127,-0.32059725060535127,1.0003276413621354,0.0002766459674740711
-0.319778629575012,-0.319778629575012,0.9998394213571702,0.0002880016485144723
-0.31902026262541766,-0.31902026262541766,0.9997411687863579,0.00026237369545039914
-0.3185107282974059,-0.3185107282974059,1.0002061910019788,0.00026720551881599165
