time,time,flux,flux_err
-0.2867991067138724,-0.2867991067138724,0.9998555001751188,2.1059427918996058e-05
-0.2860351496878953,-0.2860351496878953,0.9996338364012455,2.070963049427492e-05
-0.2852747132732822,-0.2852747132732822,0.9998428847318458,2.0711435187027577e-05
-0.2845776466217451,-0.2845776466217451,0.9999002651466389,1.8908928145036396e-05
-0.28394394971756043,-0.28394394971756043,0.9998750041381477,1.8911162693545694e-05
-0.2833102528613047,-0.2833102528613047,0.9997213227018615,1.891065181967838e-05
-0.28267655605162006,-0.28267655605162006,0.9998953302361103,1.891410486778549e-05
-0.2820428592885058,-0.2820428592885058,0.9996996165832268,1.8913763602055004e-05
-0.28140916257060694,-0.28140916257060694,0.9999526215921826,1.8918937105970033e-05
-0.2807754658977458,-0.2807754658977458,1.0000125371713093,1.8920915290983466e-05
-0.28014176926907836,-0.28014176926907836,0.999794492682485,1.891887717232584e-05
-0.27950807268375044,-0.27950807268375044,0.9999928649062685,1.8921057674753446e-05
-0.27887437614108707,-0.27887437614108707,1.0000124852632426,1.892194015374203e-05
-0.2782406796405745,-0.2782406796405745,0.9999840678577762,1.892410842171905e-05
-0.2776069831811959,-0.2776069831811959,0.999870979115944,1.892477987971967e-05
-0.2769732867629429,-0.2769732867629429,1.0000470196612914,1.8928117662994683e-05
-0.2763395903848071,-0.2763395903848071,1.0000061681881633,1.8928080175010015e-05
-0.2757058940461022,-0.2757058940461022,0.9998900275847971,1.89273196881375e-05
-0.2750721977464927,-0.2750721977464927,1.0001111922703805,1.892846580481486e-05
-0.2744385014854657,-0.2744385014854657,0.9999217487794813,1.8926431869709338e-05
-0.2738048052621679,-0.2738048052621679,1.000043569870655,1.8929977570111592e-05
-0.2731711090759248,-0.2731711090759248,0.9999183042968702,1.8933549884099168e-05
-0.2725374129265667,-0.2725374129265667,1.0000902925252297,1.8939623674640127e-05
-0.2718793828847289,-0.2718793828847289,0.9999798519251112,1.894066949672333e-05
-0.2712446728956891,-0.2712446728956891,0.999942043656155,1.8941626552715005e-05
-0.2706109768564673,-0.2706109768564673,0.9999992608690762,1.89388546423157e-05
-0.2699772808519185,-0.2699772808519185,0.9999885486504704,1.8937536675227945e-05
-0.26934358488255655,-0.26934358488255655,1.0000541982902038,1.893861281720412e-05
-0.2687098889482037,-0.2687098889482037,0.999945927038491,1.8937706523729026e-05
-0.26807619304682573,-0.26807619304682573,1.0000030736261265,1.8937513535443002e-05
-0.2674424971796121,-0.2674424971796121,1.000048975883194,1.8936802609308428e-05
-0.266808801345708,-0.266808801345708,0.9999537331886396,1.8936266671576304e-05
-0.2661751055446153,-0.2661751055446153,1.0000454400260979,1.8940195143509575e-05
-0.26554140977699986,-0.26554140977699986,0.9999412245155888,1.894036517029497e-05
-0.2648955470840534,-0.2648955470840534,1.0000107072293338,1.8941101458058115e-05
-0.26424867051029394,-0.26424867051029394,1.0000445062897887,1.8937803085390572e-05
-0.2635967244056765,-0.2635967244056765,1.0000632524687862,1.893784160877936e-05
-0.2629559313771878,-0.2629559313771878,0.9998340903406314,1.8935023906683003e-05
-0.2623222357713814,-0.2623222357713814,1.0000809099498433,1.893714143035071e-05
-0.26168854019685384,-0.26168854019685384,0.9999861100956677,1.8937083835956493e-05
-0.26105484465291723,-0.26105484465291723,1.0000416240518502,1.89403299626367e-05
-0.26042114914008535,-0.26042114914008535,0.9999406133804196,1.8943068099618157e-05
-0.25978745365734,-0.25978745365734,1.0000825728196674,1.8945011489904455e-05
-0.2591537582053526,-0.2591537582053526,0.9998223293118853,1.8941101563054293e-05
-0.25852006278345313,-0.25852006278345313,1.0000739124280122,1.8945120883573668e-05
-0.2578863673911286,-0.2578863673911286,0.9998842454959043,1.8942112681307477e-05
-0.2572334076907289,-0.2572334076907289,1.0000350001935163,1.8943617834122016e-05
-0.2565936288838387,-0.2565936288838387,0.9999455477596018,1.894372295066812e-05
-0.2559599335814255,-0.2559599335814255,0.9999911005565186,1.8944601916486556e-05
-0.2553262383082469,-0.2553262383082469,0.9999067223228971,1.894396036460326e-05
-0.25469254306498357,-0.25469254306498357,1.000019112544184,1.8943010571382648e-05
-0.2540588478506159,-0.2540588478506159,1.0000492509372818,1.8941582800162487e-05
-0.25342515266428906,-0.25342515266428906,0.9998510249808744,1.893904523008219e-05
-0.2527914575070277,-0.2527914575070277,1.0000638442911627,1.894009301767361e-05
-0.25215776237866266,-0.25215776237866266,0.9999205919243748,1.8938159322270973e-05
-0.25152406727799886,-0.25152406727799886,1.0000773421776485,1.8939220050723492e-05
-0.2508700939644868,-0.2508700939644868,1.0000064736654193,1.8935385266347116e-05
-0.25020598156018253,-0.25020598156018253,0.9999424970935096,1.8931653958658735e-05
-0.2495621474268596,-0.2495621474268596,1.00008266051814,1.8933360847799978e-05
-0.248864575989451,-0.248864575989451,0.9998196311726428,1.8932926605841997e-05
-0.2481325315808455,-0.2481325315808455,1.0000599401574486,1.8941558684461257e-05
-0.2474684193019762,-0.2474684193019762,0.9999116971052965,1.8940476190956714e-05
-0.2468103905257159,-0.2468103905257159,0.9999614537330588,1.8937251698561114e-05
-0.2461503339548557,-0.2461503339548557,1.0000492231587625,1.893882140969764e-05
-0.2455166391184953,-0.2455166391184953,0.9999255386580147,1.8941217492281956e-05
-0.24488294430966775,-0.24488294430966775,1.0001092399167808,1.8946196695514448e-05
-0.24424924952820248,-0.24424924952820248,0.9998697132556768,1.894477237708163e-05
-0.24361555477308486,-0.24361555477308486,1.0001028457090466,1.894726012252511e-05
-0.24298186004618144,-0.24298186004618144,0.9998733190478595,1.894193763535758e-05
-0.24234816534630568,-0.24234816534630568,1.0001178955488335,1.894060658526436e-05
-0.24171447067277113,-0.24171447067277113,1.0000721315710668,1.893816615835381e-05
-0.2408303399108192,-0.2408303399108192,0.9998434151665903,1.8938980961723436e-05
-0.24011756021446756,-0.24011756021446756,0.9999518659513178,1.894371169174135e-05
-0.2394838656354402,-0.2394838656354402,0.9999085107678445,1.8942954380115165e-05
-0.23885017108292175,-0.23885017108292175,1.0000318074793118,1.8943198219687454e-05
-0.2382164765569179,-0.2382164765569179,1.0000335804566098,1.8945449426568276e-05
-0.23758278205777045,-0.23758278205777045,0.9999521377269538,1.8948167452800773e-05
-0.236949087584631,-0.236949087584631,1.0000175348921625,1.8948238938117632e-05
-0.2363153931381717,-0.2363153931381717,0.9999690601445936,1.89438779942245e-05
-0.23566243440777512,-0.23566243440777512,1.0000623309654961,1.8939024739017193e-05
-0.23502265654879081,-0.23502265654879081,0.9999490452166476,1.8936506872060315e-05
-0.23438896218221855,-0.23438896218221855,1.000000039649474,1.8937400283617184e-05
-0.23375526784148307,-0.23375526784148307,1.0000297653006964,1.8937410832060058e-05
-0.23312157352657933,-0.23312157352657933,0.9999956993672698,1.8936256113836688e-05
-0.23248787923869968,-0.23248787923869968,1.0000026839517644,1.893745580443217e-05
-0.2318541849764877,-0.2318541849764877,1.0000012186604434,1.8938209732805468e-05
-0.23122049073993978,-0.23122049073993978,0.9999780414818626,1.894040535392068e-05
-0.23058679653041664,-0.23058679653041664,1.0000168354372376,1.8939987340651413e-05
-0.22995310234536817,-0.22995310234536817,0.9999798895267986,1.8939874347871322e-05
-0.22931940818632626,-0.22931940818632626,0.9999972870401033,1.8937749830819948e-05
-0.22866543584145377,-0.22866543584145377,0.9999588935770074,1.893549411806179e-05
-0.2280266721814641,-0.2280266721814641,0.9999903107384986,1.893542038369798e-05
-0.22739297810145587,-0.22739297810145587,1.0000187118268296,1.8935399323776452e-05
-0.2267592840467721,-0.2267592840467721,0.9999711618304218,1.8933901848451505e-05
-0.2261255900177545,-0.2261255900177545,1.0000767819347611,1.8934902726952677e-05
-0.22549189601474282,-0.22549189601474282,0.9998564997482076,1.893085956433225e-05
-0.22485820203671453,-0.22485820203671453,1.000097853441274,1.8930890125371635e-05
-0.2242001742369169,-0.2242001742369169,0.9999560037167674,1.8925808588151773e-05
-0.22354011864404627,-0.22354011864404627,1.0000768528533128,1.8925690623351817e-05
-0.2229064247443752,-0.2229064247443752,0.9999012948532553,1.8925056312868017e-05
-0.2222686752303467,-0.2222686752303467,1.0000190986653155,1.8926998712057235e-05
-0.2216136892691324,-0.2216136892691324,0.999815900352309,1.8928370518625542e-05
-0.2209799954469645,-0.2209799954469645,0.9999507477184713,1.892998928706681e-05
-0.22034630164943964,-0.22034630164943964,1.0000999214453359,1.8929225366984383e-05
-0.21971260787860486,-0.21971260787860486,0.9999034811873575,1.892711723007108e-05
-0.21907891413275352,-0.21907891413275352,1.000024562816801,1.8931757454514806e-05
-0.2184452204115459,-0.2184452204115459,0.9999521494569663,1.8933443673320044e-05
-0.2178115267156649,-0.2178115267156649,1.000036000393282,1.8933509303284343e-05
-0.21717783304561564,-0.21717783304561564,0.9999253233028786,1.8928037037106518e-05
-0.2165441394000453,-0.2165441394000453,1.0000006305454896,1.892317112732227e-05
-0.21583136081765913,-0.21583136081765913,0.9999203180622473,1.8919643639675943e-05
-0.21517536121154562,-0.21517536121154562,1.0000107554490802,1.8919458034697284e-05
-0.21454166764551558,-0.21454166764551558,0.9999830491998296,1.8922099582622136e-05
-0.21390797410464657,-0.21390797410464657,0.9999605796069995,1.892476509459122e-05
-0.21327428058875952,-0.21327428058875952,1.000004875887634,1.892608586159269e-05
-0.21264058709785516,-0.21264058709785516,0.9999870381555747,1.8928321892155535e-05
-0.2120068936319413,-0.2120068936319413,0.999963271224529,1.8929645982065407e-05
-0.21137320019083816,-0.21137320019083816,0.9999859483808559,1.8929640502146537e-05
-0.2107395067752343,-0.2107395067752343,0.9999656856940218,1.8930117354811893e-05
-0.21010581338393308,-0.21010581338393308,0.9999674148315947,1.8931512675882604e-05
-0.2094721200186349,-0.2094721200186349,1.0000030809161589,1.8932328220362667e-05
-0.20883842667662122,-0.20883842667662122,1.000007911526217,1.8932065316979074e-05
-0.20820473336011247,-0.20820473336011247,0.9999926867961015,1.8928237320702612e-05
-0.20757104006841018,-0.20757104006841018,1.000066454638699,1.8927743450005707e-05
-0.20693734680101628,-0.20693734680101628,0.9998828946141065,1.8924150490489825e-05
-0.20630365355996433,-0.20630365355996433,1.000084084211499,1.89260954187267e-05
-0.20566996034236878,-0.20566996034236878,0.9999798650365147,1.8925979165441232e-05
-0.20503626714959466,-0.20503626714959466,1.0000308992770743,1.8929996880646e-05
-0.20440257398264663,-0.20440257398264663,0.9999827477544253,1.8932889750683393e-05
-0.2037688808394975,-0.2037688808394975,0.9999879760263519,1.8934557142394213e-05
-0.20312504863122385,-0.20312504863122385,1.0000060531565385,1.8933372299414848e-05
-0.20244775745426366,-0.20244775745426366,0.9998906981185487,1.8928847274979095e-05
-0.20175525767247676,-0.20175525767247676,1.0000414511252518,1.8925851817231337e-05
-0.20102321547463403,-0.20102321547463403,0.9998814378776902,1.8921242945990098e-05
-0.2003540356545365,-0.2003540356545365,0.9998866047088718,1.892232648821255e-05
-0.19971324530796294,-0.19971324530796294,1.0001728103376355,1.89279167696818e-05
-0.19907955234701974,-0.19907955234701974,0.9999515736510556,1.8928386964105736e-05
-0.198445859411909,-0.198445859411909,0.9999001444601078,1.8928693635722623e-05
-0.19781216649957473,-0.19781216649957473,0.9999654080579857,1.8931286281479316e-05
-0.1971784736113804,-0.1971784736113804,0.9997263219330945,1.893028150541809e-05
-0.19654478074935824,-0.19654478074935824,0.9998772060773865,1.8932693601276495e-05
-0.19589790710056504,-0.19589790710056504,1.0000565810922837,1.893742638984625e-05
-0.19494787484413933,-0.19494787484413933,1.0000378138923955,1.8947194445306756e-05
-0.194314182068117,-0.194314182068117,0.9999021451263962,1.8940999221523156e-05
-0.19368048931589216,-0.19368048931589216,0.9998238990022148,1.8936214591947296e-05
-0.19304679659154403,-0.19304679659154403,0.9999675853664849,1.8935345078361947e-05
-0.192410062160166,-0.192410062160166,1.0000204859188115,1.8935973361027562e-05
-0.19175406350009325,-0.19175406350009325,0.9999572059662265,1.893670152183104e-05
-0.19112037084644343,-0.19112037084644343,1.0000557695236842,1.8940153352337446e-05
-0.1904866782165989,-0.1904866782165989,0.9998342111509141,1.8940061719171337e-05
-0.18985298561258473,-0.18985298561258473,1.0000038461704284,1.8942288338467268e-05
-0.18921929303236668,-0.18921929303236668,0.9998972271887971,1.8938333764482568e-05
-0.18858560047662393,-0.18858560047662393,1.0000366204545181,1.8937371108900702e-05
-0.18795190794433977,-0.18795190794433977,1.0000477158519379,1.8937721758553208e-05
-0.1873182154375442,-0.1873182154375442,0.999749103350414,1.8937527757062693e-05
-0.1866845229538697,-0.1866845229538697,1.0000060718396677,1.8941309352908606e-05
-0.18603055233654758,-0.18603055233654758,0.9999201000335342,1.8937498262447908e-05
-0.1853917903628009,-0.1853917903628009,1.0000058550091289,1.89351157578079e-05
-0.18475809795289067,-0.18475809795289067,0.9998923135553193,1.8933166700715884e-05
-0.18412440556813364,-0.18412440556813364,0.999970452813615,1.893575603775757e-05
-0.18349071320649557,-0.18349071320649557,0.9999752745866631,1.8938453483320804e-05
-0.18285702086966893,-0.18285702086966893,0.9999598207484965,1.893922018189758e-05
-0.18222332855630158,-0.18222332855630158,0.9999907000244219,1.8938993113782522e-05
-0.181589636268086,-0.181589636268086,1.0000013388802156,1.8941340101817094e-05
-0.18095594400400755,-0.18095594400400755,0.9999725040814503,1.894513282490228e-05
-0.18032225176304592,-0.18032225176304592,0.9999320521090993,1.894578175031903e-05
-0.17968855954757784,-0.17968855954757784,0.9999649628137097,1.894773468247236e-05
-0.1790548673545466,-0.1790548673545466,0.9999914785645527,1.8951693071138795e-05
-0.17842117518700604,-0.17842117518700604,0.9999551066297139,1.8952407643231004e-05
-0.1777874830429255,-0.1777874830429255,0.9999820763236326,1.8952022665059497e-05
-0.1771537909223035,-0.1771537909223035,0.9999986545045632,1.8949600067667367e-05
-0.1765200988292122,-0.1765200988292122,1.0000898344423228,1.8948800852509477e-05
-0.17588640675481315,-0.17588640675481315,0.9998642776427747,1.8946337943718393e-05
-0.17525271470659334,-0.17525271470659334,0.9999912599216711,1.8947421921999143e-05
-0.174619022682851,-0.174619022682851,0.9999000845111956,1.89460508336189e-05
-0.17398533068256014,-0.17398533068256014,0.9999564330607503,1.8943044772277186e-05
-0.1733516387064043,-0.1733516387064043,1.0000279532385703,1.8942481219522058e-05
-0.17269766861257949,-0.17269766861257949,1.000049498340212,1.8944864073097507e-05
-0.17203862900862604,-0.17203862900862604,0.9998430315305809,1.894756765816151e-05
-0.17139986757027897,-0.17139986757027897,1.0000335470442914,1.8952312010230434e-05
-0.17076617569304559,-0.17076617569304559,1.0000018132642314,1.8951874111894393e-05
-0.17013248383756618,-0.17013248383756618,1.0000240862905394,1.895204577484013e-05
-0.16949879200656498,-0.16949879200656498,0.9999309705340707,1.8950501852292016e-05
-0.16886510020004125,-0.16886510020004125,1.0000605475083622,1.8952245267661664e-05
-0.1682314084173065,-0.1682314084173065,0.9999796205858565,1.8951382464126974e-05
-0.16759771665769135,-0.16759771665769135,0.9999880479816621,1.8950962071056098e-05
-0.16696402492254875,-0.16696402492254875,1.0000258957430428,1.8953265456381414e-05
-0.16633033321086543,-0.16633033321086543,1.000026582868514,1.8956436565780345e-05
-0.1656966415226364,-0.1656966415226364,0.9999527221998192,1.895605591250972e-05
-0.16506294986092057,-0.16506294986092057,1.0000008051619445,1.895849455102897e-05
-0.16442925821857912,-0.16442925821857912,0.9999554867344237,1.8960009009990543e-05
-0.1637955666017369,-0.1637955666017369,1.0000645354207736,1.8958272786595982e-05
-0.16316187500902757,-0.16316187500902757,0.9999786599795535,1.8956897841170476e-05
-0.1625281834397761,-0.1625281834397761,1.0000798615204154,1.8953953458491335e-05
-0.16189449189431784,-0.16189449189431784,0.9998993605182666,1.8951750418181156e-05
-0.16125370302781689,-0.16125370302781689,1.0000564166827464,1.8954828104900945e-05
-0.16059162215161393,-0.16059162215161393,0.9999202586139144,1.895381571848492e-05
-0.159923457862714,-0.159923457862714,1.000068178399249,1.8956838016392275e-05
-0.1592340015685295,-0.1592340015685295,0.9999204522682934,1.8955891900045922e-05
-0.1584563354584823,-0.1584563354584823,0.9999566865072482,1.8956933726142608e-05
-0.15769691969394514,-0.15769691969394514,0.9999518558292702,1.8959931418492978e-05
-0.15705308926658787,-0.15705308926658787,0.999841136314382,1.8959146402929137e-05
-0.15641939792576948,-0.15641939792576948,0.999566012177521,1.895431225682114e-05
-0.15578570660704968,-0.15578570660704968,0.9999026531606894,1.89543983944637e-05
-0.15515201531280526,-0.15515201531280526,1.000103441130859,1.8952705973586e-05
-0.15451832404167476,-0.15451832404167476,1.00005542937352,1.895417957602931e-05
-0.1538846327936568,-0.1538846327936568,0.9996766012754795,1.8950772626585045e-05
-0.15325094156943492,-0.15325094156943492,1.0000201709784255,1.8958233997966403e-05
-0.15261725036867232,-0.15261725036867232,0.9998251623369614,1.8957537467513253e-05
-0.15198051747379965,-0.15198051747379965,1.0000937440395379,1.8957656132299712e-05
-0.15130018665252934,-0.15130018665252934,1.0000148657609294,1.895398360145356e-05
-0.15057321619206404,-0.15057321619206404,0.9999166232453731,1.895717837293269e-05
-0.14973268832125014,-0.14973268832125014,1.0000170256589065,1.896538918581478e-05
-0.1489671895080839,-0.1489671895080839,0.9999833192522469,1.8966786062579463e-05
-0.1483334984664097,-0.1483334984664097,1.000006935484501,1.8964028361501136e-05
-0.1476998074461484,-0.1476998074461484,1.0000070438601245,1.8961986565630063e-05
-0.1470661164493464,-0.1470661164493464,0.9999870852954892,1.8961346648530522e-05
-0.1464324254770169,-0.1464324254770169,0.9998466008232304,1.8960072120475256e-05
-0.1457987345264428,-0.1457987345264428,1.0000424810913353,1.8963519900811002e-05
-0.14516504359966476,-0.14516504359966476,0.9999758347729614,1.8965906572568296e-05
-0.14453135269702672,-0.14453135269702672,1.0000139210491479,1.896816071911969e-05
-0.14389766181681835,-0.14389766181681835,0.9999876597336812,1.8967927543384862e-05
-0.14326397095938645,-0.14326397095938645,0.9999232117854472,1.8964474206137275e-05
-0.14263028012541384,-0.14263028012541384,0.9999194937967857,1.8961785982467716e-05
-0.1419965893148955,-0.1419965893148955,1.000010579318213,1.896277626635586e-05
-0.1413628985271508,-0.1413628985271508,0.9999737429982147,1.8966286747759578e-05
-0.1407292077615004,-0.1407292077615004,0.9999271478150297,1.897007119605203e-05
-0.14009551702067213,-0.14009551702067213,0.9999411670489279,1.8971576158982935e-05
-0.1394618263012532,-0.1394618263012532,0.9999363520380612,1.897176319529355e-05
-0.1388281356052886,-0.1388281356052886,1.0000289484055067,1.89711876948419e-05
-0.13819444493278396,-0.13819444493278396,0.9999997923480665,1.8968561348013173e-05
-0.13756075428271047,-0.13756075428271047,0.9998933878096716,1.8964926750645744e-05
-0.13692706365575802,-0.13692706365575802,1.0000369752788802,1.8962603350675742e-05
-0.13629337305157846,-0.13629337305157846,0.999991904437325,1.8962157294358994e-05
-0.13565968247017252,-0.13565968247017252,1.0000278769736548,1.896529721134896e-05
-0.1350259919115473,-0.1350259919115473,0.9999555713414772,1.896743165204144e-05
-0.13439230137569638,-0.13439230137569638,1.00001478522783,1.8971028180794946e-05
-0.13375861086329977,-0.13375861086329977,1.0000127442597062,1.8973930854359515e-05
-0.13312492037265783,-0.13312492037265783,0.9999912512412872,1.8974656461368126e-05
-0.13249122990580986,-0.13249122990580986,1.0000105696832877,1.89730584671841e-05
-0.1318575394614001,-0.1318575394614001,0.9999619260647863,1.8968153279287014e-05
-0.1312238490397654,-0.1312238490397654,1.0000397099878096,1.8964105315237156e-05
