time,time,flux,flux_err
-0.49824211143519886,-0.49824211143519886,0.9913314175668405,0.03538923344155244
-0.495848680412261,-0.495848680412261,1.0163956892882322,0.0354846902447324
-0.49292197452450637,-0.49292197452450637,1.04423700168981,0.03556757354496964
-0.4898761404620018,-0.4898761404620018,1.0005454505305724,0.036954909440235675
-0.48735713795758784,-0.48735713795758784,1.0036537050101555,0.041388924783663496
-0.48521439700271,-0.48521439700271,1.036948113482898,0.03344905034023556
-0.4829231468582293,-0.4829231468582293,1.0109429193608501,0.039075575282635396
-0.48073096332664134,-0.48073096332664134,1.0248400308523284,0.032513277262595966
-0.47817794682923703,-0.47817794682923703,1.000358949702581,0.032583608094746454
-0.47570397607632914,-0.47570397607632914,0.9975974550658504,0.03316462951578294
-0.4736495871271472,-0.4736495871271472,0.9922384376021727,0.032443622238179134
-0.47191445186326747,-0.47191445186326747,0.996309192153138,0.03333381735070965
-0.47054759856255257,-0.47054759856255257,0.9832987435119348,0.03238157429108144
-0.4690925884002354,-0.4690925884002354,1.0282052374797288,0.03346373787221925
-0.4680037473270204,-0.4680037473270204,1.0211349339696398,0.03438486788291149
-0.46669354267651214,-0.46669354267651214,0.9731794086137715,0.033748662764102405
-0.4657784367824206,-0.4657784367824206,1.0095582744379734,0.033414877126416984
-0.46439910714398136,-0.46439910714398136,0.9814221588060595,0.032337214118693225
-0.46345145823434,-0.46345145823434,1.031921184813363,0.03286749740320584
-0.46138186179159674,-0.46138186179159674,1.0302831714941256,0.03230442930417179
-0.45936619672283996,-0.45936619672283996,0.9795428638047564,0.0323203870769674
-0.4573454304394545,-0.4573454304394545,1.0137681262163187,0.03288393495098087
-0.4552173731761286,-0.4552173731761286,1.0001033652546434,0.03233839041481483
-0.4532891305338126,-0.4532891305338126,1.0217366978668558,0.03318708403999279
-0.4509208460804075,-0.4509208460804075,0.9956928592174353,0.03359971298729682
-0.4485603936453117,-0.4485603936453117,0.9921634865903208,0.03310033494055656
-0.44649316947325135,-0.44649316947325135,1.0322371444610015,0.03345851404725924
-0.4445331305003492,-0.4445331305003492,0.9335803632570441,0.03721846493301459
-0.44198939549678473,-0.44198939549678473,0.9743866038619309,0.03267393297077447
-0.4394458560273051,-0.4394458560273051,1.0172330045483482,0.03220678644036585
-0.4374122404609807,-0.4374122404609807,1.0200979626831157,0.033286957105844554
-0.43536484419892074,-0.43536484419892074,0.9989335028157823,0.032813258114248886
-0.4335588186921086,-0.4335588186921086,1.0406568836653007,0.032851378797169886
-0.4318372492562048,-0.4318372492562048,0.9979829495412407,0.03318832416010774
-0.4306674844352528,-0.4306674844352528,0.966875495987072,0.03372956776143039
-0.4294452397472924,-0.4294452397472924,0.9788273650618586,0.034232324046817406
-0.4283199567173142,-0.4283199567173142,1.0331642633484954,0.032590952708980665
-0.42725514724152164,-0.42725514724152164,1.013421213763209,0.032818595487920835
-0.4258432545379037,-0.4258432545379037,1.0008913381140268,0.03264949265601672
-0.4237141711724689,-0.4237141711724689,0.9753785767790211,0.03250875393533837
-0.42148272827325856,-0.42148272827325856,1.0158329195153146,0.03259542565246345
-0.4191767899697879,-0.4191767899697879,0.9791403896351933,0.03260687332753389
-0.41685826852044555,-0.41685826852044555,0.9728558100398276,0.03225474021019176
-0.4142712500470225,-0.4142712500470225,0.9596290875713157,0.0338857160316394
-0.4115281154983677,-0.4115281154983677,0.9655641991049617,0.03245766500185344
-0.40944345327443443,-0.40944345327443443,0.9637252321272424,0.03761853778078636
-0.40702989070559853,-0.40702989070559853,0.9839324770676792,0.03241851677815412
-0.4043644888093695,-0.4043644888093695,1.0325166162659412,0.032461193708044775
-0.40198944572475737,-0.40198944572475737,1.003043980267242,0.03245785426568243
-0.39993446023145224,-0.39993446023145224,1.0138224564388858,0.03344557964939245
-0.3978825606580358,-0.3978825606580358,0.9896952792824922,0.03237149437295192
-0.39618448473047463,-0.39618448473047463,0.9900290251645117,0.03299120632338145
-0.3950070775812492,-0.3950070775812492,1.0109472606459853,0.03379953334620004
-0.3937968209007522,-0.3937968209007522,1.0227935150363927,0.032555062568990975
-0.3927854338748148,-0.3927854338748148,1.0159201929309767,0.03422037668472393
-0.39175762835366185,-0.39175762835366185,0.9945547353843782,0.03257196090721612
-0.39074937235563995,-0.39074937235563995,0.996695845270982,0.03334607749739342
-0.38952221581421326,-0.38952221581421326,1.0219840704136132,0.03283155414025347
-0.3876621768256882,-0.3876621768256882,1.0420293886409733,0.032499809819574774
-0.3856328007910633,-0.3856328007910633,1.0065367571457955,0.03266702175049233
-0.38361162479268385,-0.38361162479268385,1.0114591969722493,0.03251106154865684
-0.3810946596990107,-0.3810946596990107,0.998188824284316,0.03154260235042139
-0.37866976937511937,-0.37866976937511937,0.9758288311922121,0.034172386914002637
-0.37594080200069585,-0.37594080200069585,1.015560864581744,0.03278350631577655
-0.3735938758443808,-0.3735938758443808,1.0016624254464717,0.033440075784759674
-0.37152751260146033,-0.37152751260146033,0.984312323764118,0.03577707996237059
-0.3691734842344886,-0.3691734842344886,0.9798036441885796,0.03932429437754865
-0.3665592250938062,-0.3665592250938062,0.9871892193731593,0.03250928281804635
-0.3645019927906105,-0.3645019927906105,1.0240637964427388,0.03260321737707984
-0.3624478851794265,-0.3624478851794265,0.9710041382535277,0.03357862608393483
-0.3606063716928475,-0.3606063716928475,0.996028593692372,0.032569848939261604
-0.358937611116562,-0.358937611116562,1.0196263163773367,0.0326319711144524
-0.3582090417476138,-0.3582090417476138,1.0236131479261092,0.03337894429760659
-0.35685280288162174,-0.35685280288162174,0.9536934906881269,0.0328845648229721
-0.35598286828317216,-0.35598286828317216,0.9683560220140539,0.03427573790863226
-0.3546836678258842,-0.3546836678258842,0.9619770778269101,0.033466907430685484
-0.3537565045262454,-0.3537565045262454,1.0272305437318683,0.03257233472529732
-0.35222892556048463,-0.35222892556048463,0.9957392317709723,0.03254035628936531
-0.3508504801633535,-0.3508504801633535,0.9789187562738085,0.03259931213575715
-0.3485495115950471,-0.3485495115950471,0.9881189012421437,0.032245542441727684
-0.3464153001201339,-0.3464153001201339,0.9922812105547354,0.03215545571153107
-0.34400420982274227,-0.34400420982274227,0.9970679506262148,0.03229833693964041
-0.34138924509461505,-0.34138924509461505,0.9894435093889399,0.03366046412882376
-0.33888047438522334,-0.33888047438522334,0.9740893960351608,0.032820730019196984
-0.3365301717160037,-0.3365301717160037,0.992210909661311,0.03335303153548532
-0.3342447513947263,-0.3342447513947263,0.9501880003895469,0.040935538427127195
-0.3320540974353207,-0.3320540974353207,1.004836261176146,0.032246948191489364
-0.3299035053438274,-0.3299035053438274,0.9828540170518825,0.03251551261616954
-0.32784568635397593,-0.32784568635397593,0.9807414213023444,0.03276828524281253
-0.3257910056912806,-0.3257910056912806,1.0224614687046958,0.03376371119523107
-0.3239536040142411,-0.3239536040142411,0.9850682247393527,0.032633633910824765
-0.32225430343241895,-0.32225430343241895,1.0033961892126189,0.03234725370498058
-0.32102234030899124,-0.32102234030899124,0.9858079044656254,0.032877594647717
-0.31981459047819955,-0.31981459047819955,0.9787131671338847,0.033569925851452964
-0.31886862955288964,-0.31886862955288964,0.9983033851803544,0.03389729571399886
-0.31760372571297923,-0.31760372571297923,1.0573697870197236,0.03444144401959184
-0.3165820312395226,-0.3165820312395226,1.0271258416805655,0.0329060885798403
-0.31539458241895774,-0.31539458241895774,0.9689709081085317,0.03284936972866523
-0.31371914481569546,-0.31371914481569546,0.9851814475160545,0.03251790768898695
-0.3114949406066444,-0.3114949406066444,0.9866711598732761,0.03254550361442145
-0.30916863937454764,-0.30916863937454764,0.9876611407125274,0.03250244334499043
-0.3068867619818775,-0.3068867619818775,0.9581332168855636,0.03220212823900791
-0.30432334583601917,-0.30432334583601917,0.9826388318791844,0.033828474885332395
-0.302018247768865,-0.302018247768865,0.9452187382851074,0.04231653671019665
-0.2998760268645128,-0.2998760268645128,0.9887825933463062,0.03337254899730183
-0.2975864674343029,-0.2975864674343029,0.99662242960783,0.03955173045732674
-0.29539470016316044,-0.29539470016316044,1.0091759963805003,0.032312097286275925
-0.2928380580386147,-0.2928380580386147,1.0080324121673852,0.03242910566689395
-0.29038184879755136,-0.29038184879755136,0.9723843051940033,0.03362934073090651
-0.2887367455376079,-0.2887367455376079,0.9968958076660034,0.032358979881165886
-0.28694583600736223,-0.28694583600736223,1.003553086699735,0.033112330092212865
-0.28539348173944745,-0.28539348173944745,1.004335322507766,0.03225604537980542
-0.28404763505677694,-0.28404763505677694,0.9835881391657229,0.03395142530369333
-0.2828248622623505,-0.2828248622623505,0.9827416117832917,0.03322329684245936
-0.28168284280691297,-0.28168284280691297,0.9875627530419002,0.03460710357683796
-0.28062086481950244,-0.28062086481950244,0.9989426605081884,0.03328150660088476
-0.27933746756752953,-0.27933746756752953,0.9881535319878733,0.03252010890585811
-0.27817957976367325,-0.27817957976367325,0.9906812814027678,0.03277488458768398
-0.2760482639161637,-0.2760482639161637,0.9907864200838679,0.03217501895152104
-0.2740312216745224,-0.2740312216745224,1.0021758775904113,0.03231400060988735
-0.2720106766442768,-0.2720106766442768,1.0351033969469257,0.03286537640871152
-0.26988207638205497,-0.26988207638205497,1.0063798244131446,0.03245509848198736
-0.2679498175217304,-0.2679498175217304,1.0334474057117027,0.03337933729440577
-0.26558072513144,-0.26558072513144,0.9629003118286725,0.03334719526248436
-0.2632219825289212,-0.2632219825289212,1.0070217318268058,0.03325793373644343
-0.26115495993872173,-0.26115495993872173,0.9566390559903029,0.03361565998316026
-0.2591966919833794,-0.2591966919833794,0.9872419363240592,0.037542793021718604
-0.25679836033668835,-0.25679836033668835,1.0005800177266464,0.032450743374256935
-0.25453339629166294,-0.25453339629166294,0.9748403947830273,0.032502538390101296
-0.2524775651865639,-0.2524775651865639,0.983004298758674,0.03278748146395326
-0.25042481887794565,-0.25042481887794565,0.9860873323977992,0.033181784717473926
-0.24873834868194536,-0.24873834868194536,1.0059403730992322,0.03209905567638853
-0.24711542420263868,-0.24711542420263868,1.0488158985374771,0.033887978241488925
-0.2460090516222408,-0.2460090516222408,1.0065657428402897,0.03441590305500162
-0.24469611395616084,-0.24469611395616084,0.9962388579497039,0.03334543362052074
-0.24378400328860153,-0.24378400328860153,0.988300032105885,0.03368654530112956
-0.2426025053311605,-0.2426025053311605,1.0170053999969861,0.032420343985720336
-0.2417351016018074,-0.2417351016018074,1.0338018888533815,0.033049001368002276
-0.24011653200432193,-0.24011653200432193,0.9962539748612844,0.032384644732258556
-0.23779423190280796,-0.23779423190280796,0.9640852566350642,0.03268951317389467
-0.23576109647401608,-0.23576109647401608,0.9612753340778859,0.032644073392526396
-0.2333982924988959,-0.2333982924988959,0.9804174090270565,0.03226973816814603
-0.23160116446670145,-0.23160116446670145,0.981256247772401,0.043186522862757135
-0.2299446080607595,-0.2299446080607595,1.0189071743986209,0.03450464427423621
-0.22725096101348755,-0.22725096101348755,0.9803388539983366,0.03252291503037501
-0.22490977291890885,-0.22490977291890885,0.9911437561944967,0.033528711551692694
-0.2229350372130284,-0.2229350372130284,0.9810516999722093,0.03691920029962662
-0.22071824049344285,-0.22071824049344285,1.0575694690841817,0.03262820077267573
-0.21787741487205495,-0.21787741487205495,1.0084739858775016,0.03228843127038138
-0.21582100143714342,-0.21582100143714342,0.988476650050506,0.03237662302054019
-0.21376769029593562,-0.21376769029593562,0.966991523919015,0.033362828638905835
-0.21192041851463728,-0.21192041851463728,1.0023497028555357,0.03275553488023967
-0.21006490466243122,-0.21006490466243122,0.9537137183306612,0.03300441870925566
-0.20896132154448424,-0.20896132154448424,1.0045148828566357,0.03394441045368196
-0.20761650631029624,-0.20761650631029624,0.9541963779405475,0.03265841635776264
-0.2066118465794716,-0.2066118465794716,0.9814437673673545,0.03371348980357112
-0.20541346482350492,-0.20541346482350492,1.009767696259687,0.033223831057455286
-0.20418522226682398,-0.20418522226682398,0.963162465146943,0.032778617620759086
-0.20233100222831127,-0.20233100222831127,0.9986509951127228,0.03239226001307006
-0.20029779460164718,-0.20029779460164718,1.0011985623968012,0.03265769268420942
-0.1982768414862221,-0.1982768414862221,0.9749559710772735,0.03269277480348864
-0.19576225159980823,-0.19576225159980823,0.9917701725179151,0.03168097693342153
-0.1933276889467379,-0.1933276889467379,0.9612942945971978,0.034273665648051656
-0.19060081815696323,-0.19060081815696323,0.9793995313216289,0.03263055106030261
-0.1883734661299968,-0.1883734661299968,1.0449596312286706,0.03337220115449972
-0.1865932821528986,-0.1865932821528986,0.9871751709200474,0.03621161133457403
-0.18424040206009523,-0.18424040206009523,0.9942907789569861,0.03975630497792331
-0.1819355613202788,-0.1819355613202788,0.9846234336427193,0.03231181108900308
-0.1795604799845023,-0.1795604799845023,1.0120359589947854,0.03282895562220635
-0.17750610632647296,-0.17750610632647296,0.9787170422300907,0.033625138628425706
-0.17547490978322458,-0.17547490978322458,1.0088726967085904,0.032749567843317555
-0.17387609420402442,-0.17387609420402442,0.9822654962852206,0.032402726199111505
-0.1728696697304258,-0.1728696697304258,0.9852122700103558,0.03345015031457424
-0.17151781964930707,-0.17151781964930707,1.0014109433169662,0.03286391901661013
-0.17064610745874234,-0.17064610745874234,0.99839067974575,0.03415638480842175
-0.16934875396545976,-0.16934875396545976,0.9990018350977545,0.03329732012551003
-0.16841956779826434,-0.16841956779826434,0.9952627154009022,0.03255478113096918
-0.16685816930548752,-0.16685816930548752,0.9664179401644402,0.0327227343396083
-0.165316397472634,-0.165316397472634,0.9780674097358043,0.032475845652014335
-0.1632145005016355,-0.1632145005016355,1.0210478941084105,0.03222354238146626
-0.16137568696867674,-0.16137568696867674,0.9973753970533876,0.03281263657078107
-0.1590933032508474,-0.1590933032508474,0.9780741563483394,0.03192480548807072
-0.15668293399794492,-0.15668293399794492,1.0417060411146493,0.03390663820132069
-0.15395092025282792,-0.15395092025282792,0.9777616508331647,0.03269808878661372
-0.1518431442178553,-0.1518431442178553,0.9801105826301931,0.03314324990539555
-0.1499388188298326,-0.1499388188298326,1.0033096175556826,0.03560633182849981
-0.14758157346805093,-0.14758157346805093,1.019668543452802,0.038519627310545666
-0.1452810734132072,-0.1452810734132072,1.0074970047093625,0.03232709393851809
-0.14290422270132694,-0.14290422270132694,0.9880599987747527,0.03292185944932943
-0.1408492754562758,-0.1408492754562758,1.0102861024305152,0.03363022147600712
-0.13881509788916446,-0.13881509788916446,0.9927415754516801,0.03250172107176323
-0.13721976755186915,-0.13721976755186915,0.9805494223667758,0.03228397900837279
-0.13621624269289895,-0.13621624269289895,0.9894739006807611,0.033150095493320215
-0.13485530750767794,-0.13485530750767794,0.9966771496012214,0.03299044925008457
-0.13398803711170332,-0.13398803711170332,0.99805023272616,0.034336405888621135
-0.1326860746688908,-0.1326860746688908,1.0111335570173692,0.033652568312273645
-0.13176193554827478,-0.13176193554827478,1.005050949162157,0.03287487537914559
-0.13023266969248654,-0.13023266969248654,0.9483306693140928,0.03241134692365914
-0.1288541636633454,-0.1288541636633454,0.9791453972870838,0.032952584090025314
-0.12655205828486943,-0.12655205828486943,1.014244220680483,0.032448479731738034
-0.1244143151474418,-0.1244143151474418,1.0201073135880616,0.032295327818279165
-0.12200716458901298,-0.12200716458901298,1.0028907663595252,0.03245864146526589
-0.11940040597692132,-0.11940040597692132,0.9934911345241864,0.03338104006341526
-0.11689048919361085,-0.11689048919361085,0.9646732589479494,0.03319027477740248
-0.11453767311177217,-0.11453767311177217,1.0018910738265183,0.033368844309690046
-0.11224978419195394,-0.11224978419195394,0.9906018681942251,0.04028085975760391
-0.11005844902538228,-0.11005844902538228,1.0120122577171238,0.03209353922272996
-0.107910129436641,-0.107910129436641,1.0213126067459402,0.03261333368427974
-0.10585195425956044,-0.10585195425956044,1.0687492645879644,0.032718469067078086
-0.1041684652591357,-0.1041684652591357,1.00093142040128,0.03377468101968034
-0.10215537776239217,-0.10215537776239217,1.0348372091661628,0.0324735484384665
-0.1005659542774083,-0.1005659542774083,0.9939417741206655,0.03259697367589842
-0.09939090699190274,-0.09939090699190274,0.9980102754813496,0.03280067923457854
-0.09797351266315672,-0.09797351266315672,0.9677953508660782,0.03358238753147664
-0.09715530540852342,-0.09715530540852342,0.9767426561771974,0.0339787809265836
-0.09577135588333477,-0.09577135588333477,0.9809182464024075,0.03421824761292676
-0.09484050142928027,-0.09484050142928027,0.9815477330042326,0.03317105445737534
-0.09357232737820595,-0.09357232737820595,0.9981763608625254,0.03247968623244803
-0.0921937197301304,-0.0921937197301304,0.9398717165861639,0.03277334943731892
-0.08988972096412909,-0.08988972096412909,0.9923992331073226,0.032287190987539
-0.087867602656479,-0.087867602656479,0.992414223296306,0.03248525937258194
-0.0857556912000291,-0.0857556912000291,1.0182412200131985,0.03272357384219194
-0.08339388135063927,-0.08339388135063927,0.9844094427166212,0.032760919501082286
-0.08065320805762895,-0.08065320805762895,0.9815752793583592,0.033541265366093725
-0.0782914638199145,-0.0782914638199145,0.9639175080627254,0.033285388521358976
-0.07622584042837843,-0.07622584042837843,0.9847114686645562,0.03361288685377504
-0.07386025838495698,-0.07386025838495698,0.9868586390308455,0.03775576433651852
-0.07131134688388556,-0.07131134688388556,0.9870851955834606,0.03243407554902639
-0.06877077315293718,-0.06877077315293718,1.0039686176644276,0.032644926937535144
-0.06674160205875523,-0.06674160205875523,0.9709969886191969,0.033090144968980176
-0.06469066320569254,-0.06469066320569254,1.0079105648457523,0.03330042549951643
-0.06321789885987528,-0.06321789885987528,0.9955475692737726,0.03236702505272322
-0.061761307227425274,-0.061761307227425274,0.9794108233010472,0.033554652956687955
-0.06067217553209048,-0.06067217553209048,0.9945204854483511,0.034457174993386484
-0.05936106243170798,-0.05936106243170798,1.0040271358369928,0.033679329523656196
-0.058446956222178416,-0.058446956222178416,1.0073355146843572,0.03343624224966261
-0.05706741626781877,-0.05706741626781877,0.9759354968655171,0.0322816607820054
-0.05611980121757369,-0.05611980121757369,0.9870718269542719,0.03293733231225271
-0.05404866538592614,-0.05404866538592614,0.9977959907337823,0.032366459376393555
-0.052033690258394924,-0.052033690258394924,1.0059943530393638,0.03221063057744798
-0.05001281361328438,-0.05001281361328438,0.9952528461393324,0.03280736994714768
-0.047638320285477674,-0.047638320285477674,0.9978908702932496,0.03239952199461087
-0.04555254500010051,-0.04555254500010051,0.9416459765564408,0.03463205945491414
-0.04295698881323915,-0.04295698881323915,1.0109184018070794,0.032058834219189744
-0.040801981691038235,-0.040801981691038235,0.9926921132577968,0.03313128560254215
-0.03877282853645738,-0.03877282853645738,0.9899243193904388,0.038044747846500006
-0.03673981946194545,-0.03673981946194545,0.9767271330908842,0.03263629816937547
-0.03419772407796699,-0.03419772407796699,0.9559364149107973,0.03275371874701056
-0.03171648568531964,-0.03171648568531964,1.003779584863088,0.032362906570898374
