time,time,flux,flux_err
-0.49953265791777807,-0.49953265791777807,1.0000149312417976,0.00012121452001896003
-0.49857089866707155,-0.49857089866707155,1.0001316643151628,0.00010958942241435458
-0.4979787172096849,-0.4979787172096849,0.9999726789170538,0.00011140716603369183
-0.49710715091831614,-0.49710715091831614,0.9999579860106177,0.00010737558889394277
-0.496290152428719,-0.496290152428719,1.0001014814263747,0.00010961296188646736
-0.4956403226382804,-0.4956403226382804,0.9999126122732113,0.00011135467251467727
-0.49471099590244877,-0.49471099590244877,0.9999390493087578,0.0001073884866285506
-0.4940357397558614,-0.4940357397558614,1.0002150689318814,0.00010957985293469588
-0.49331612051346385,-0.49331612051346385,1.0001170950644855,0.00011135972757222944
-0.49232076795969987,-0.49232076795969987,1.0000146834386159,0.00010958761339828664
-0.49176099457750977,-0.49176099457750977,1.0000818627234564,0.00011097744228610186
-0.4909601817886028,-0.4909601817886028,1.0001228594977998,0.00010997600647679091
-0.4899765470763441,-0.4899765470763441,0.999916595191905,0.00010958708074911157
-0.4894375417028186,-0.4894375417028186,1.0000014402948416,0.00011129140475110908
-0.48859594660758604,-0.48859594660758604,1.0000276521216003,0.0001096149376007596
-0.48770102160008266,-0.48770102160008266,1.000053370798782,0.00010960148777043812
-0.48710880008568436,-0.48710880008568436,1.0000126184406741,0.0001112745972528792
-0.48623719904568363,-0.48623719904568363,0.9999242127914935,0.00010739240099463781
-0.48542029259568836,-0.48542029259568836,1.000072796774861,0.00010959880910801471
-0.48477039638855784,-0.48477039638855784,1.00004695369021,0.00011126218337580246
-0.48384108875164883,-0.48384108875164883,0.9999916880066426,0.0001073867241574846
-0.4831658665404689,-0.4831658665404689,0.9999999910488121,0.0001095928109292339
-0.4824461865927674,-0.4824461865927674,0.9999822342096666,0.00011125429408744751
-0.4814508813266798,-0.4814508813266798,0.9998920732956226,0.00010958736434479211
-0.48089113587286647,-0.48089113587286647,0.9999923250907694,0.00011087143974286486
-0.48009026203475286,-0.48009026203475286,0.9999468869532789,0.00010994162189697273
-0.47910665232925564,-0.47910665232925564,0.9999687636928478,0.00010960196024369158
-0.47856765551008495,-0.47856765551008495,1.0001181413685596,0.00011117302837238791
-0.4777260557848422,-0.4777260557848422,1.0001677142951846,0.00010963737189430448
-0.47683114514840097,-0.47683114514840097,1.0000844770647397,0.000109591947402878
-0.4762388833144655,-0.4762388833144655,0.9999227436759343,0.00011114244823578986
-0.47536724789891877,-0.47536724789891877,1.000055627195925,0.00010739068403917838
-0.47455043346240017,-0.47455043346240017,0.9999386238319337,0.00010960736899014467
-0.4739004704711647,-0.4739004704711647,0.999968822539417,0.00011110389626976106
-0.47297118242889835,-0.47297118242889835,0.9999659322462626,0.00010738337703465229
-0.47229599389639815,-0.47229599389639815,0.9999392375390472,0.00010959648031843972
-0.47157625313276413,-0.47157625313276413,1.0000682001568824,0.00011109888563287258
-0.47058099537889575,-0.47058099537889575,0.9999593828336655,0.00010959493378685328
-0.4700212776347598,-0.4700212776347598,0.9999577894708086,0.00011072323630093161
-0.4692203428668563,-0.4692203428668563,1.0001085036266175,0.00010993317192973516
-0.46823675827039324,-0.46823675827039324,0.9999820843868713,0.00010960639616071745
-0.46769776972846555,-0.46769776972846555,0.9999917713610846,0.0001110434496316487
-0.4668561656939005,-0.4668561656939005,0.9999105682098126,0.00010961879500136492
-0.46596126936127574,-0.46596126936127574,0.9999357473405868,0.00010959076390325421
-0.4653689668959828,-0.4653689668959828,1.0000499146570019,0.00011100983778464578
-0.4644972974548523,-0.4644972974548523,1.0001361783789364,0.000107405218165139
-0.46368057499971654,-0.46368057499971654,1.0000870402064663,0.0001096246997407394
-0.4630305448804052,-0.4630305448804052,0.9998639921681217,0.00011095046742561719
-0.46210127695743497,-0.46210127695743497,1.0000273863417322,0.00010739298407475963
-0.46142612181785125,-0.46142612181785125,0.9999675978401517,0.00010959572847568579
-0.46070632016840135,-0.46070632016840135,1.0000055879441767,0.000110955560083609
-0.45971111012197524,-0.45971111012197524,0.9999117600294467,0.00010959687542417448
-0.4591514198601658,-0.4591514198601658,1.0000432004908335,0.00011062273671254353
-0.45835042428506084,-0.45835042428506084,0.9999594097888569,0.0001099076329444876
-0.45736686487318823,-0.45736686487318823,1.0000011669065416,0.00010958499345759825
-0.4568278843929761,-0.4568278843929761,1.0000247240491593,0.00011085732440196956
-0.45610928869691636,-0.45610928869691636,0.9999525994262267,0.00010721305736589982
-0.45519288627840526,-0.45519288627840526,1.0000845786166175,0.00010962344242315474
-0.4546539073842382,-0.4546539073842382,1.0000472639947993,0.00011085195758501807
-0.45393530222221445,-0.45393530222221445,1.0000100906243494,0.0001072200266201743
-0.4530189077067689,-0.4530189077067689,1.0000198348178426,0.00010960539492554296
-0.4524799303783311,-0.4524799303783311,0.9999556355524624,0.00011081063752972335
-0.45176131577385376,-0.45176131577385376,1.0001161465700354,0.0001072251074606872
-0.45084492916439556,-0.45084492916439556,0.999928821426683,0.00010958563722583284
-0.45030595339862883,-0.45030595339862883,1.0000809829627682,0.0001107937791419219
-0.4495873293486966,-0.4495873293486966,1.00003113611386,0.00010723122633807483
-0.44867095065401374,-0.44867095065401374,0.9999141381122965,0.00010959117675051725
-0.44813197643949254,-0.44813197643949254,1.000017824034681,0.00011076476612328735
-0.4474133429410472,-0.4474133429410472,0.999949167114352,0.00010722267567312862
-0.44649697216709683,-0.44649697216709683,1.0000325260110776,0.00010962390223983137
-0.44595799949184994,-0.44595799949184994,0.9999679280364129,0.00011074135204154232
-0.44523935656853836,-0.44523935656853836,1.000029609630176,0.00010723684210684616
-0.4443229937092156,-0.4443229937092156,1.0000090900947094,0.00010959681844776822
-0.4437723230875122,-0.4437723230875122,1.0000992485060582,0.00011045223728027901
-0.44305967782083827,-0.44305967782083827,0.9999630160186184,0.00010749359959071945
-0.4421490152747879,-0.4421490152747879,0.9999731000541198,0.00010960337978817411
-0.441598349484093,-0.441598349484093,1.0000364827665413,0.0001104378428026858
-0.4408161206867021,-0.4408161206867021,0.9999696716863997,0.00010749582760698112
-0.43997503686937306,-0.43997503686937306,1.0000330664867407,0.0001095942563197586
-0.43942437590985717,-0.43942437590985717,0.9998625444104666,0.00011042918868385218
-0.4386421310835999,-0.4386421310835999,0.999986629407014,0.00010749208120103405
-0.4378010584990534,-0.4378010584990534,1.0000247048799047,0.00010961158080306755
-0.43725040234729706,-0.43725040234729706,1.00006884574281,0.00011041363391596859
-0.4364681415038604,-0.4364681415038604,0.9999380021018063,0.00010750412781045422
-0.4356270801636242,-0.4356270801636242,1.0000893679349472,0.00010960695521079254
-0.4350764288021992,-0.4350764288021992,1.0000716601463122,0.0001103952644323647
-0.43429415195328147,-0.43429415195328147,0.9999828457245036,0.00010750650640207937
-0.43345310183990476,-0.43345310183990476,0.9999732403733379,0.00010957788634951833
-0.4329024552833175,-0.4329024552833175,0.9999400101644962,0.00011038471899552351
-0.4321201624142873,-0.4321201624142873,1.00009547320186,0.00010750267980061208
-0.43127912354825637,-0.43127912354825637,0.9999387885064046,0.00010959440752366227
-0.43072848177907874,-0.43072848177907874,0.9999719672046818,0.00011037032713135948
-0.4299461729103882,-0.4299461729103882,1.000188779652307,0.00010751011147076229
-0.4291051452857687,-0.4291051452857687,1.0001805825488055,0.00010960207198866592
-0.4285545083068655,-0.4285545083068655,1.0000051200870668,0.00011036599484034285
-0.4277721834268391,-0.4277721834268391,0.9998789595808499,0.00010748850116804336
-0.42693116705237344,-0.42693116705237344,0.9998853038978439,0.0001095966369329673
-0.42638053484341754,-0.42638053484341754,0.9999633337826113,0.00011034019223074367
-0.4255981939666299,-0.4255981939666299,1.0000857996964432,0.00010749110581353598
-0.42475718885406194,-0.42475718885406194,0.9999335198696361,0.00010957558023979043
-0.4242065614060948,-0.4242065614060948,1.0000138587190188,0.00011033368853608492
-0.4234242045297151,-0.4234242045297151,1.0000947578635273,0.00010746834220754569
-0.4225832106818984,-0.4225832106818984,0.9999990724865769,0.00010960091658752183
-0.42203258799814874,-0.42203258799814874,1.000078853369617,0.00011032251668436288
-0.4212502151190961,-0.4212502151190961,0.9999099501473723,0.00010747265752569306
-0.42040923253016443,-0.42040923253016443,1.0000842237342404,0.00010960194752609561
-0.4198586145988088,-0.4198586145988088,1.000143336730042,0.00011033178304565199
-0.4190762257318056,-0.4190762257318056,1.000032299065511,0.00010748867634696102
-0.4182352544077048,-0.4182352544077048,1.0001417446928973,0.00010959831415738137
-0.41768464122277466,-0.41768464122277466,1.0000413596868758,0.00011030975459676122
-0.4169022363765066,-0.4169022363765066,0.9999791216744578,0.00010746773999249936
-0.41606127632006745,-0.41606127632006745,0.9999200457095107,0.00010960338181940552
-0.4155106678672496,-0.4155106678672496,0.9999977219087018,0.00011030041027442325
-0.4147282470387722,-0.4147282470387722,0.9999147964451834,0.0001074716895660116
-0.41388729825292786,-0.41388729825292786,0.9999839374153157,0.00010960204213490853
-0.41333669453787253,-0.41333669453787253,0.9999179926567601,0.00011028876175683082
-0.4125542577272313,-0.4125542577272313,1.0001037804971913,0.00010747406908394295
-0.41171332022368007,-0.41171332022368007,0.999898407584585,0.00010958578492354359
-0.4111627212288795,-0.4111627212288795,1.0000802926981842,0.00011027764259285236
-0.41038026844483966,-0.41038026844483966,0.9998273807905823,0.00010745606429164632
-0.4095393422178063,-0.4095393422178063,1.0001517446398032,0.0001095973640415604
-0.40898874794040696,-0.40898874794040696,1.000029669323312,0.00011026314513242906
-0.4082062791741805,-0.4082062791741805,1.0001310472144513,0.00010748615972211794
-0.40736536424095676,-0.40736536424095676,1.0001602420880487,0.00010960244188499063
-0.40681477466935123,-0.40681477466935123,0.9999582091812812,0.00011026934497888286
-0.40603228994719986,-0.40603228994719986,1.000080937877463,0.00010747143049003963
-0.40519138629924784,-0.40519138629924784,0.9999404419539506,0.00010958583371016197
-0.4046408014187364,-0.4046408014187364,0.9999859828984636,0.00011024171919482998
-0.40385830072898443,-0.40385830072898443,1.0000159149752315,0.00010747162396819931
-0.4030174083865973,-0.4030174083865973,1.000122270091801,0.00010959973784869354
-0.4024668282031712,-0.4024668282031712,0.9999078423463951,0.00011024276863546296
-0.4016843115399638,-0.4016843115399638,1.0002237605512843,0.00010747173560463671
-0.4008434304914431,-0.4008434304914431,0.9999576070989813,0.00010958784979611604
-0.40029285499329037,-0.40029285499329037,0.9999635610845903,0.00011023400393015503
-0.3995103223800129,-0.3995103223800129,0.9999097272707843,0.00010747307685283869
-0.3986694526400356,-0.3986694526400356,0.9998836029263958,0.00010959803426165355
-0.39811888181268384,-0.39811888181268384,1.0000630537752586,0.00011023713244700566
-0.397336333231749,-0.397336333231749,1.0001470264688002,0.00010748100218089317
-0.3964954748148443,-0.3964954748148443,0.9998558221058074,0.0001095917349821357
-0.3959449086494601,-0.3959449086494601,1.0000489339171916,0.00011022036572155907
-0.39516234412727724,-0.39516234412727724,0.999848191776455,0.00010749609005273112
-0.3943214970071381,-0.3943214970071381,0.9998935976069422,0.00010958759461418438
-0.39377093551258896,-0.39377093551258896,0.9999781411681464,0.00011021657787027403
-0.39298835504311,-0.39298835504311,0.9999513374091744,0.00010747394032424522
-0.39214751922868346,-0.39214751922868346,1.0001071698645752,0.00010959335887084849
-0.3915969624048671,-0.3915969624048671,0.999979935032437,0.00011020905041017682
-0.39081436598243047,-0.39081436598243047,1.0000962859160774,0.0001074820221972631
-0.38997354149090596,-0.38997354149090596,1.0001934020651764,0.0001096019890395931
-0.38942298930868446,-0.38942298930868446,1.0000084156973987,0.00011020427926623926
-0.3886403769419985,-0.3886403769419985,0.9997515502288714,0.00010746272837309358
-0.387799563785336,-0.387799563785336,1.0000458285281006,0.00010961699091609942
-0.3872490162213694,-0.3872490162213694,1.000049344664861,0.00011020348868256452
-0.38646638793372856,-0.38646638793372856,1.0003048801401344,0.0001074879295338344
-0.38562558610010456,-0.38562558610010456,0.9999076846423381,0.00010960527848222856
-0.38507504317489066,-0.38507504317489066,1.0000399980749966,0.00011019725148792773
-0.3842923989429778,-0.3842923989429778,0.9999076902222634,0.00010748672053268504
-0.38345160844409065,-0.38345160844409065,1.000064998944153,0.0001096229252622418
-0.3829010701486709,-0.3829010701486709,1.0000830889440189,0.00011018327609518984
-0.3821184099783295,-0.3821184099783295,0.9998984042370977,0.00010748515151996668
-0.3812776308229786,-0.3812776308229786,1.0000030456158426,0.00010959948899168161
-0.38072709713716224,-0.38072709713716224,1.0000544886326461,0.00011018513971136417
-0.37994442104586595,-0.37994442104586595,1.0001210601080976,0.00010747520462577494
-0.3791036532340172,-0.3791036532340172,0.9998991660731846,0.00010961937270706032
-0.37855312415189246,-0.37855312415189246,0.9998189235621318,0.00011016666726993019
-0.3777704321395845,-0.3777704321395845,0.9999834762155189,0.0001074853177600997
-0.3769296756624726,-0.3769296756624726,1.0000805401376998,0.00010960866768300524
-0.37637915119277066,-0.37637915119277066,1.0000344919716675,0.0001101756383882706
-0.37559644325373254,-0.37559644325373254,1.0000426511882694,0.0001074897614772432
-0.3747556981347088,-0.3747556981347088,0.9999489262166671,0.000109598752567275
-0.3742051782511794,-0.3742051782511794,0.9998070828695724,0.00011015625732387672
-0.3734224543970527,-0.3734224543970527,1.0001333035018594,0.0001074994479814034
-0.3725817206302395,-0.3725817206302395,0.999969044529524,0.000109608102620704
-0.3720312053300859,-0.3720312053300859,1.0000451486686184,0.00011016022035450078
-0.37124846556658897,-0.37124846556658897,1.0000352660769047,0.00010748056200003055
-0.37040774316076297,-0.37040774316076297,0.999963568931501,0.00010961384712824007
-0.3698572324380393,-0.3698572324380393,1.0000860748273543,0.00011017342718508372
-0.36907447675362165,-0.36907447675362165,0.9999406849429135,0.00010746866831455712
-0.36823376570590655,-0.36823376570590655,1.0001143398567383,0.00010961805233786164
-0.3676832595605788,-0.3676832595605788,1.000053159598265,0.0001101566595976964
-0.36690048796689323,-0.36690048796689323,0.9999287832863606,0.00010746122909245965
-0.3660597883005948,-0.3660597883005948,0.9999811693941616,0.00010960831491637108
-0.365509286709414,-0.365509286709414,0.9999972168552654,0.00011014906881563652
-0.3647264992180908,-0.3647264992180908,1.000036569995323,0.00010746639980368918
-0.36388581091858896,-0.36388581091858896,0.9998420680278501,0.00010959970933073413
-0.3633353138815892,-0.3633353138815892,1.0001061825917765,0.00011015947393195188
-0.36255251048675063,-0.36255251048675063,0.9999113875623952,0.00010745643380256254
-0.36171183356277653,-0.36171183356277653,0.9999627044061674,0.00010959957272774866
-0.36116134107409154,-0.36116134107409154,0.9998929245515871,0.00011015311247181357
-0.36037852179049423,-0.36037852179049423,1.000064617730581,0.00010745319956983841
-0.35953785625082446,-0.35953785625082446,1.000008352723235,0.00010959276691204462
-0.35898736828120265,-0.35898736828120265,1.0000759274752973,0.00011015472818725525
-0.35820453310868744,-0.35820453310868744,0.9999980374453573,0.00010745045924323863
-0.3573638789562438,-0.3573638789562438,1.0000400076315712,0.0001096207393355996
-0.3568133955204303,-0.3568133955204303,0.9998610640351752,0.00011016141803491283
-0.35603054445612087,-0.35603054445612087,1.0000465049430989,0.00010745567530719346
-0.355189901690926,-0.355189901690926,1.000077330058963,0.00010960169726541588
-0.3546394227887504,-0.3546394227887504,0.999972733024497,0.00011014685460320657
-0.3538565558326468,-0.3538565558326468,1.000138612194287,0.00010745100659244522
-0.3530159244692186,-0.3530159244692186,1.0000666872988884,0.00010959514877246766
-0.3524654500687234,-0.3524654500687234,0.9999209164594987,0.00011015673242377893
-0.35168256723841296,-0.35168256723841296,1.0002054695312244,0.00010745337915867102
-0.3508419472563446,-0.3508419472563446,1.0001077499950557,0.00010960102821462555
-0.3502914773749808,-0.3502914773749808,1.000144659043434,0.00011014392586155677
-0.3495085786586628,-0.3495085786586628,0.9999648767516278,0.00010743502718162817
-0.3486679701017351,-0.3486679701017351,0.999879133175366,0.00010959257649681352
-0.34811750470753394,-0.34811750470753394,1.0000941215332464,0.00011014206116912316
-0.34733459011980583,-0.34733459011980583,0.9998997472721328,0.00010743818705940973
-0.34649399295592503,-0.34649399295592503,0.9999450333487123,0.00010960230851369361
-0.3459435320603802,-0.3459435320603802,1.0000831035539015,0.00011011876866727124
-0.34516060159540984,-0.34516060159540984,0.9999874628946526,0.000107459352090187
-0.34432001585383887,-0.34432001585383887,1.0001186026286881,0.00010959593894695602
-0.343769559430757,-0.343769559430757,0.9997904853068601,0.00011012425260642493
-0.3429866131032327,-0.3429866131032327,1.000009351082314,0.0001074408989638937
-0.34214603878383515,-0.34214603878383515,0.9999238578012314,0.00010958502630717274
-0.3415955868332503,-0.3415955868332503,1.0000670539458159,0.00011011237589013799
-0.34081262463138273,-0.34081262463138273,1.0000559498998254,0.00010745624339411576
-0.3399720617429239,-0.3399720617429239,1.0000161928965527,0.0001096034820860375
-0.3394216142473397,-0.3394216142473397,1.000046144724712,0.0001101155533201191
-0.33863863619156975,-0.33863863619156975,1.0000243517713359,0.00010744359438647786
-0.3377980847253298,-0.3377980847253298,1.00012349358833,0.00010960311450129174
-0.3372476416993436,-0.3372476416993436,1.0001091517580836,0.00011011376789782242
-0.3364646477780752,-0.3364646477780752,0.9998610862427217,0.00010742856648454334
-0.33562410773987494,-0.33562410773987494,1.0000521323816458,0.0001095960029772701
-0.33507366917187936,-0.33507366917187936,0.9999189998202167,0.0001100804788042231
-0.3342906593878979,-0.3342906593878979,0.9998884904767993,0.00010743572363293747
-0.3334501307922892,-0.3334501307922892,0.9997971189384802,0.00010959725604774717
-0.3328996966442901,-0.3328996966442901,1.000000743847941,0.00011006645339953021
-0.3321166710239595,-0.3321166710239595,1.0001114943967768,0.00010744171098571461
-0.3312761538767518,-0.3312761538767518,0.9999325204896902,0.00010961926181271713
-0.3307257241662683,-0.3307257241662683,0.9998746572325906,0.00011007356637059119
-0.32994268268919313,-0.32994268268919313,1.0001735605477489,0.00010743107931628854
-0.32910217698170074,-0.32910217698170074,1.000299980720299,0.00010961167550123822
-0.32855175170576556,-0.32855175170576556,1.0000373224547379,0.00011008033595060257
-0.32776869438635003,-0.32776869438635003,0.999981413764156,0.00010743210537910941
-0.3269282001273609,-0.3269282001273609,0.9999519797250345,0.00010961225286033791
-0.3263777792715473,-0.3263777792715473,1.0001369060347884,0.00011007049656086069
-0.3255947061041525,-0.3255947061041525,0.9998870552258822,0.00010743520244830803
-0.32475422330815035,-0.32475422330815035,0.9999110704920392,0.0001095958876946879
-0.32420380685180133,-0.32420380685180133,0.9999454741874576,0.0001100526979198576
-0.32342071785670895,-0.32342071785670895,1.0000609027083502,0.00010743129543371777
-0.32258024650918743,-0.32258024650918743,0.9999638827344842,0.00010959379070670857
-0.32202983445545214,-0.32202983445545214,0.9998960370678782,0.00011004497166112513
