time,time,flux,flux_err
-0.4995153732003625,-0.4995153732003625,1.0003656580166116,0.0003556975760929869
-0.4972849912019228,-0.4972849912019228,0.9997892023042935,0.0003544052044209286
-0.4955209510183825,-0.4955209510183825,1.0001295490811608,0.0003567964663421605
-0.49349147772700236,-0.49349147772700236,1.0001580681023992,0.00032335778333301296
-0.4923576698245597,-0.4923576698245597,1.0006022536578953,0.000325302685648978
-0.49088104502807256,-0.49088104502807256,0.9997052005512483,0.00032810736614754377
-0.48953601238354166,-0.48953601238354166,0.9999546194677281,0.00032771308048189956
-0.48760727886328825,-0.48760727886328825,1.000416824556302,0.00032551945063469603
-0.48634252159718017,-0.48634252159718017,1.0001024404521308,0.00032351174812035203
-0.4846578088145179,-0.4846578088145179,0.9999067104872192,0.0003262531946058334
-0.4831611795292702,-0.4831611795292702,1.0009823826439712,0.0003264494258893106
-0.48150136463227683,-0.48150136463227683,1.0003345472388587,0.000323963603998915
-0.48023807097815735,-0.48023807097815735,0.999767861217116,0.000324779837888463
-0.47882606818238854,-0.47882606818238854,1.0006724583619124,0.00032567669416339306
-0.4775873261292872,-0.4775873261292872,1.0000498012731962,0.0003223412839747584
-0.4758515636003722,-0.4758515636003722,0.9993314833880238,0.00032310817221607225
-0.4750567482733459,-0.4750567482733459,0.9995223276693619,0.00033098125413508125
-0.4738544189123786,-0.4738544189123786,1.0004064270037027,0.00032420225316412903
-0.47216420909280715,-0.47216420909280715,0.9999417534306329,0.0003263120386627203
-0.4701565458744881,-0.4701565458744881,0.9999464140494908,0.0003245960835957917
-0.46863429226323206,-0.46863429226323206,1.0003887609321103,0.0003201977142580932
-0.467250731857348,-0.467250731857348,1.00005452356982,0.00032465222614829956
-0.46617876840609823,-0.46617876840609823,0.9994306475908725,0.00032440807405380805
-0.46443813140976997,-0.46443813140976997,1.0005707735007205,0.0003242484075250761
-0.4626609873790585,-0.4626609873790585,1.0001971964383585,0.00032808169445378867
-0.46136176992476974,-0.46136176992476974,1.0000452639288195,0.0003248863330233932
-0.45947550533855974,-0.45947550533855974,1.000071381435236,0.0003269216972313411
-0.45788760961877417,-0.45788760961877417,0.999848018824341,0.0003258445208456091
-0.45673590390179014,-0.45673590390179014,0.999859746186695,0.0003273861612209543
-0.45491314014288947,-0.45491314014288947,0.9995873707129587,0.00032353483461657935
-0.454068888801703,-0.454068888801703,1.000116406263536,0.0003264622237163912
-0.45288537202286533,-0.45288537202286533,1.000463105280603,0.0003240703526036416
-0.45117046368904995,-0.45117046368904995,1.0002142125976219,0.00032416051375242584
-0.4500160631923791,-0.4500160631923791,1.0000064615396407,0.0003235081880484224
-0.44831562555336857,-0.44831562555336857,0.9999183084198302,0.0003259939640342047
-0.4477179208461166,-0.4477179208461166,1.0005003695236563,0.00033702842651755035
-0.4463929412795551,-0.4463929412795551,0.9995468642049851,0.0003244836656368022
-0.4450838356857275,-0.4450838356857275,0.999942420903708,0.0003282370250953932
-0.44423422693507747,-0.44423422693507747,0.9995049225408561,0.0003193420640300158
-0.4426167577956221,-0.4426167577956221,1.0002875848833066,0.0003273819302421912
-0.4411428795057873,-0.4411428795057873,0.9997414036121206,0.0003224557987391347
-0.43973472348843645,-0.43973472348843645,0.9998839418955722,0.00032641009986965195
-0.4384144389150606,-0.4384144389150606,1.0001947270736111,0.00033416130762404335
-0.4369928486536082,-0.4369928486536082,1.000396331999275,0.00032397032616378525
-0.43608087539469126,-0.43608087539469126,0.9996362923054012,0.0003247605542764829
-0.434825326014834,-0.434825326014834,0.9997214911796746,0.00032476714076909387
-0.4335950802862499,-0.4335950802862499,1.0004100120311403,0.00032736327223771577
-0.4323751056483161,-0.4323751056483161,1.000455636766471,0.00032408456090551917
-0.43096236889105055,-0.43096236889105055,0.9993051151084706,0.0003241149765013622
-0.4301690156513359,-0.4301690156513359,1.001496787503304,0.0003231542250564317
-0.4284789263831044,-0.4284789263831044,1.0003622418863596,0.00032615859950767495
-0.42687841641018165,-0.42687841641018165,0.9995338866691588,0.00032419916445337556
-0.4258597330404882,-0.4258597330404882,0.9994529956272074,0.0003250049526679278
-0.42461622425144013,-0.42461622425144013,1.0000183694653582,0.00032366555498229964
-0.42348362585726135,-0.42348362585726135,1.0005539462595507,0.0003247823816350124
-0.4226683854652947,-0.4226683854652947,0.9999533099399411,0.00032611141366831783
-0.42083291959024793,-0.42083291959024793,1.0002851683327987,0.0003255960411479702
-0.41947627517474756,-0.41947627517474756,1.0007355389582024,0.0003257396119987648
-0.4182221192939323,-0.4182221192939323,1.0001562213150723,0.00032023205075094684
-0.4167383824176795,-0.4167383824176795,0.9997189869391082,0.00032554689367961264
-0.41509553220930684,-0.41509553220930684,1.0000586879251725,0.00032512627130868636
-0.4139056223240914,-0.4139056223240914,0.9998960088573314,0.0003248573090375897
-0.41260466954190633,-0.41260466954190633,0.9998743273809065,0.0003258812616096933
-0.4113065248053317,-0.4113065248053317,0.9997640297966978,0.00032479101302345314
-0.41026366496662375,-0.41026366496662375,1.0004598912848135,0.0003275874732945225
-0.40872770407768255,-0.40872770407768255,1.0002310219842199,0.00032599433668331276
-0.40767735293120494,-0.40767735293120494,1.0000598033944104,0.00032382736753761807
-0.4058138657044765,-0.4058138657044765,1.000067414364533,0.00032505969223221604
-0.4037033527762105,-0.4037033527762105,1.0004981954402303,0.00032578064355648394
-0.40223058460469474,-0.40223058460469474,1.0001269323952078,0.0003240918260040648
-0.40058216826691934,-0.40058216826691934,1.0000366675630632,0.00032571452426974833
-0.3993017548837088,-0.3993017548837088,1.0002062940338292,0.0003238981039871916
-0.3981319375285238,-0.3981319375285238,0.9998375590838204,0.00032340947193077753
-0.3965767718058487,-0.3965767718058487,1.0003479511770401,0.000324865956249638
-0.3959201140074583,-0.3959201140074583,0.999805653141847,0.0003310421538393403
-0.394461057526496,-0.394461057526496,1.0001018433943651,0.000323937039020377
-0.39308140414068476,-0.39308140414068476,0.9998329327337141,0.00032492230974380873
-0.390990635909111,-0.390990635909111,1.0006850013961712,0.0003267620695878985
-0.38962764093084845,-0.38962764093084845,1.0002844041214736,0.0003210607205314568
-0.38847777411574497,-0.38847777411574497,0.9996643149464305,0.0003241661379378641
-0.38743022905946417,-0.38743022905946417,1.0001620910107079,0.00032237932725716573
-0.3865369346076477,-0.3865369346076477,1.0000953011533897,0.00032457131327555535
-0.3846016984247399,-0.3846016984247399,1.000099810221032,0.0003249500486827795
-0.38272111560581834,-0.38272111560581834,1.0002231502341274,0.0003250733047084981
-0.3812666501449712,-0.3812666501449712,0.9998766992505568,0.00032507186039526585
-0.3789124232633185,-0.3789124232633185,1.0003295312259177,0.00032513573729657443
-0.3773188123115688,-0.3773188123115688,1.0000258700222469,0.00032539589161831685
-0.37564710211045166,-0.37564710211045166,0.999670213550776,0.00032374341877160705
-0.3747143220516591,-0.3747143220516591,1.0002497932802874,0.0003252579292425476
-0.3733570286822214,-0.3733570286822214,1.0000019370006545,0.0003261763968883307
-0.37216268851298084,-0.37216268851298084,0.9997673505196486,0.0003262502278133598
-0.37130740041247917,-0.37130740041247917,1.0000749508033435,0.00032363968821845566
-0.3695625040192681,-0.3695625040192681,0.9998915245045044,0.0003241465721468425
-0.3688053606532776,-0.3688053606532776,1.0001656724340173,0.00033683514920761557
-0.3678395068913233,-0.3678395068913233,0.9998757689466862,0.00032917675140211927
-0.36608343093357687,-0.36608343093357687,1.000013495911292,0.00032591294141524945
-0.3650520250623231,-0.3650520250623231,0.9993574663468461,0.00033012249737545936
-0.3636007929871994,-0.3636007929871994,0.9995930765233803,0.0003272846779974007
-0.3622357687469048,-0.3622357687469048,0.9999495898585277,0.00032297923071765005
-0.36096273477196517,-0.36096273477196517,0.9998940234107865,0.0003239610904221633
-0.3600393498556514,-0.3600393498556514,0.9999443819415562,0.0003284690945420828
-0.358780975695845,-0.358780975695845,0.9998100155759666,0.0003263247613996672
-0.3574698461939988,-0.3574698461939988,0.9998876954671644,0.00032541908718131384
-0.35637267442652953,-0.35637267442652953,1.000128249615985,0.000324440472771944
-0.3550393330937368,-0.3550393330937368,0.9993616562567181,0.00032657857426863623
-0.3540895333975641,-0.3540895333975641,0.9999146230471533,0.0003246031734488764
-0.35266906959877814,-0.35266906959877814,0.9997684823550566,0.00032472944890124604
-0.3517672886384389,-0.3517672886384389,0.9995984264368273,0.00032394761075366476
-0.3504963846706232,-0.3504963846706232,0.9994250586210554,0.00032642812458886583
-0.3486844972816471,-0.3486844972816471,0.9999236677129882,0.0003250842635357312
-0.3474531537900475,-0.3474531537900475,1.0003257995234283,0.00032427770810100636
-0.34633526411307686,-0.34633526411307686,0.9996954142314234,0.00032417346673477385
-0.3451346594378265,-0.3451346594378265,1.0001525351041436,0.00032199462266034655
-0.3442661370791029,-0.3442661370791029,0.9998311692452008,0.0003289664604643027
-0.34235491510189603,-0.34235491510189603,1.0000670310224404,0.0003240079666285935
-0.34077717181244227,-0.34077717181244227,0.9995684566769277,0.0003257918536040992
-0.3388596594795672,-0.3388596594795672,1.0000770902868286,0.00032632298004662874
-0.3373918654560839,-0.3373918654560839,1.0000362615208216,0.0003248760435001112
-0.33546159490906574,-0.33546159490906574,1.0001047309610596,0.00032443981509708156
-0.33445480888622114,-0.33445480888622114,0.9998451925193169,0.0003266829105259418
-0.33317275212539244,-0.33317275212539244,0.9997758686249656,0.00032405446642247584
-0.3315049989068939,-0.3315049989068939,0.9995705460634634,0.0003277040500375241
-0.3299311168328131,-0.3299311168328131,0.9994602881446335,0.00032534099279845805
-0.32851681806532723,-0.32851681806532723,0.9996053049735212,0.00032484763490776516
-0.32635378051927544,-0.32635378051927544,0.9999907704703592,0.0003241398800060284
-0.32493506540267847,-0.32493506540267847,1.0002241423972134,0.000326237141208735
-0.32347320393782864,-0.32347320393782864,1.0001590856219078,0.0003239991306834118
-0.3222971639737807,-0.3222971639737807,1.0000163898942542,0.00032780587564998825
-0.32096673313935753,-0.32096673313935753,0.9996264350612117,0.0003228242897511126
-0.319785886716636,-0.319785886716636,0.9999539798844616,0.0003237067515964271
-0.31847179788601354,-0.31847179788601354,0.9998359620388453,0.00032346536746245965
-0.3171591789363447,-0.3171591789363447,0.9998984157738885,0.0003272870252360567
-0.31649310536558917,-0.31649310536558917,1.0006029471622246,0.00033053266450627783
-0.3148357746129477,-0.3148357746129477,1.0000766259010023,0.0003266266375145263
-0.313528269539529,-0.313528269539529,1.0000801450406451,0.0003235034502781059
-0.31136792775541833,-0.31136792775541833,1.0000139094749945,0.0003264459661667839
-0.3102276968296792,-0.3102276968296792,0.9995838983623248,0.00032406955435650874
-0.30879083194267876,-0.30879083194267876,0.9996092261054222,0.0003226811410686391
-0.30780285604159874,-0.30780285604159874,1.0002500610930458,0.00032575410265846835
-0.305978418180166,-0.305978418180166,0.9997175853050754,0.0003246196128223977
-0.3037063517302158,-0.3037063517302158,1.0002105808921609,0.000325032714325978
-0.30255992066304316,-0.30255992066304316,0.99992127914426,0.00032523989467474266
-0.3001879621057014,-0.3001879621057014,0.9994331611267668,0.0003238893149927192
-0.298393290124659,-0.298393290124659,0.9998254828832668,0.00032762657980104157
-0.296632374989349,-0.296632374989349,0.9999308808720908,0.000323804033446469
-0.29585479402012427,-0.29585479402012427,1.0001219672776378,0.00032467041283065925
-0.2946468283240392,-0.2946468283240392,0.9997030010697129,0.00032613971134943175
-0.2933302894110966,-0.2933302894110966,1.0003970063432939,0.00032391321010606644
-0.29240933541113917,-0.29240933541113917,1.0000667657000446,0.0003250762087816057
-0.29093187915532326,-0.29093187915532326,0.9997287620676099,0.0003230512031907846
-0.28986939317474025,-0.28986939317474025,1.0003773654637538,0.00033646913797642276
-0.28882417969471136,-0.28882417969471136,1.0004236784362344,0.00032922772305044696
-0.28708709792117587,-0.28708709792117587,1.000387190651341,0.00032467559285670033
-0.28603709547060135,-0.28603709547060135,0.998977291033903,0.000319380480268439
-0.28458482817877667,-0.28458482817877667,0.9998192033250994,0.0003273283267910234
-0.2831931689164776,-0.2831931689164776,1.0007705638379327,0.0003200948266028812
-0.2817030645092018,-0.2817030645092018,1.0003322797021297,0.00032649075958200317
-0.2806000168522587,-0.2806000168522587,1.0001885067762522,0.0003281751958582798
-0.2794671589312202,-0.2794671589312202,0.9995272793009251,0.0003255423743153491
-0.2781315578820795,-0.2781315578820795,0.9995533166516134,0.00032516218900447547
-0.27679604506665784,-0.27679604506665784,0.9998170517477754,0.0003248153405651721
-0.27551016173783865,-0.27551016173783865,0.9997084129040484,0.0003264196271056599
-0.2744595653297438,-0.2744595653297438,0.9999326253163,0.0003273979000843481
-0.27334959585641627,-0.27334959585641627,0.9999972524395438,0.0003241968349572856
-0.272326090516799,-0.272326090516799,1.000149078178276,0.0003248549754793097
-0.2708567779023724,-0.2708567779023724,0.9994673750656696,0.00032748779033124067
-0.26949489392245596,-0.26949489392245596,0.9994526045662546,0.0003236406142798886
-0.2684385214070062,-0.2684385214070062,1.0001051477266523,0.00032427274227292337
-0.2673206296407443,-0.2673206296407443,1.0001118001222515,0.0003241539228600305
-0.266419763540398,-0.266419763540398,0.9998145905010162,0.0003217303536113753
-0.2655917153115297,-0.2655917153115297,1.0001262919313016,0.00032511084754874715
-0.2651363113414845,-0.2651363113414845,0.9996939919526968,0.00032639782848366673
-0.2633398897753068,-0.2633398897753068,1.0003012892255145,0.00032404010086641244
-0.26207119202808826,-0.26207119202808826,1.000237951079227,0.0003245181151458379
-0.2604264126621274,-0.2604264126621274,0.999638876296799,0.0003260822348987472
-0.2587375243274437,-0.2587375243274437,0.9989080907951878,0.00032306206978594475
-0.25671514105088133,-0.25671514105088133,0.9993110043017233,0.0003248706894101611
-0.25587200291265616,-0.25587200291265616,0.9994731814063467,0.00032420645632291777
-0.2546441239141132,-0.2546441239141132,0.9999272866360387,0.0003253708378210405
-0.25284721691386947,-0.25284721691386947,0.9995352757437544,0.0003277283906782954
-0.25110867165822126,-0.25110867165822126,1.000328940770895,0.0003251442019759689
-0.2492277129938884,-0.2492277129938884,0.9999152547830269,0.00032408934777879963
-0.24733928902023763,-0.24733928902023763,0.9997166883248155,0.0003241691652539977
-0.2456733218925365,-0.2456733218925365,0.9997117211956097,0.00032568868424357844
-0.244082961247841,-0.244082961247841,0.9994892078378779,0.00032589288195071715
-0.2426974841622723,-0.2426974841622723,1.0003737475724408,0.00032626339751240746
-0.2414452737706597,-0.2414452737706597,0.9997689567937373,0.00032366645938506933
-0.24020883785779007,-0.24020883785779007,0.9999515672395649,0.0003227726843774253
-0.2386139750273287,-0.2386139750273287,1.0000808801909837,0.0003253626199158031
-0.23800008738362521,-0.23800008738362521,0.9998710015848801,0.0003330518648262638
-0.23696156869518745,-0.23696156869518745,1.0003626647040536,0.00032437256083801466
-0.235560718810666,-0.235560718810666,1.0002511564854288,0.00032615941090201426
-0.23376798646568203,-0.23376798646568203,0.9996704531695044,0.00032554107016477324
-0.23195656795614922,-0.23195656795614922,0.9993220084502596,0.0003229947295233152
-0.23035135173522575,-0.23035135173522575,0.9999886768007512,0.0003253270329776712
-0.22909434935936587,-0.22909434935936587,1.0002136363818395,0.00031859747114171765
-0.22766275025278446,-0.22766275025278446,0.9996223150090195,0.00032475500003163813
-0.22551319478880033,-0.22551319478880033,0.9994912596181681,0.0003255335033126153
-0.22402641649641736,-0.22402641649641736,0.9998109294307784,0.00032526675659255667
-0.22250636991775535,-0.22250636991775535,0.9997225772504011,0.0003250489095394615
-0.2204687699679198,-0.2204687699679198,1.0000275562632266,0.00032357960731964477
-0.21888311316724868,-0.21888311316724868,1.0002820328287345,0.0003256975853416354
-0.21739801235344203,-0.21739801235344203,0.9999187901468545,0.0003249278150901861
-0.21666186460606696,-0.21666186460606696,0.9997893954033173,0.00032353814798290697
-0.2158058109736885,-0.2158058109736885,1.0000288116266618,0.0003274757455750871
-0.2147966997388721,-0.2147966997388721,0.9995074073188288,0.00032543965971388873
-0.2136184248363861,-0.2136184248363861,0.9997464288350649,0.0003250994209117605
-0.21229303289401286,-0.21229303289401286,1.0002747821496736,0.00032341638453527556
-0.21100495876416972,-0.21100495876416972,1.000443707204371,0.000341238205083737
-0.2103626729167445,-0.2103626729167445,1.0000291017106622,0.00032650169137770035
-0.20862750487904122,-0.20862750487904122,0.9996714856531895,0.0003260298362417949
-0.20702216609497553,-0.20702216609497553,0.9993552840223939,0.00032371092759060497
-0.20556886421691162,-0.20556886421691162,0.9999228555352749,0.000327282053150469
-0.2042282595026336,-0.2042282595026336,1.0000841011295623,0.00032406269800779643
-0.2029634504004207,-0.2029634504004207,0.9998116109560022,0.00032516168768140935
-0.20177320984803374,-0.20177320984803374,1.0001308726812599,0.0003274956730410717
-0.20073658570145197,-0.20073658570145197,1.0000652293376162,0.0003270671143611456
-0.1993460227313335,-0.1993460227313335,0.9997582317551357,0.00032581547315256056
-0.19864904339374334,-0.19864904339374334,1.000029641384899,0.00032455226510956877
-0.1975343599133339,-0.1975343599133339,1.000118992557376,0.0003250181920906027
-0.19641813605703645,-0.19641813605703645,0.9993809468209944,0.0003247041745001743
-0.19509080400021048,-0.19509080400021048,1.0001955361424166,0.0003257932679274271
-0.1940848089521751,-0.1940848089521751,1.0000957114418267,0.0003245504338389794
-0.192896226141238,-0.192896226141238,0.9999767568248494,0.000324781152473769
-0.19121188740609796,-0.19121188740609796,1.0001930297217192,0.0003275383350209947
-0.18994422103678515,-0.18994422103678515,1.000271973452766,0.0003248182808923387
-0.18886068294377764,-0.18886068294377764,1.000120303803192,0.0003226043652756469
-0.1873835453279753,-0.1873835453279753,0.9994715656939354,0.00032242467037673034
-0.18633140114106936,-0.18633140114106936,1.0000206816666668,0.00032912475090487406
-0.1847909831893048,-0.1847909831893048,0.9992183057520082,0.0003229306733261921
-0.18340746946523723,-0.18340746946523723,1.0003404835062617,0.00032722364349747717
-0.18190647629198792,-0.18190647629198792,1.0000737953852041,0.0003245947941275096
-0.18070902879044298,-0.18070902879044298,0.999109113424316,0.00032353203218616765
-0.179662835518684,-0.179662835518684,0.9996083430665914,0.00032458888666929517
-0.17769975217961473,-0.17769975217961473,0.9999949667595341,0.000326445165957713
-0.17674590917667957,-0.17674590917667957,0.9997477437408614,0.00032654622323556663
-0.17568162591451256,-0.17568162591451256,1.000299979166773,0.0003261502508429577
-0.17402907206451346,-0.17402907206451346,1.0005274522256857,0.00032732312480657656
-0.1720941386967752,-0.1720941386967752,0.9997477336137004,0.00032513767544663615
-0.17011196661478606,-0.17011196661478606,0.9994293254228728,0.00032471644085434
-0.1682965898016846,-0.1682965898016846,0.9995464850522101,0.0003231101996589962
-0.16634817009908148,-0.16634817009908148,1.0000009987697855,0.0003266004109351898
-0.16462984483405307,-0.16462984483405307,0.9999825917806249,0.00032443580918508795
