time,time,flux,flux_err
-0.49903605892056174,-0.49903605892056174,1.0000375393873415,7.476227888745514e-05
-0.4975708305850276,-0.4975708305850276,1.0000434875036714,7.067077066951482e-05
-0.4954042244455195,-0.4954042244455195,1.0000373886608318,6.82021675066645e-05
-0.49414839354576545,-0.49414839354576545,1.0000832728551523,6.824384980978285e-05
-0.4928456492751138,-0.4928456492751138,1.000003000968133,6.868723101551343e-05
-0.49146063185908134,-0.49146063185908134,1.0000629616378327,6.82161284033623e-05
-0.4904946227281471,-0.4904946227281471,1.000129976094706,6.82653473350064e-05
-0.4883943620661739,-0.4883943620661739,1.0000317677087645,6.823643954348299e-05
-0.4870762400358217,-0.4870762400358217,1.0000782840481768,6.940240085285582e-05
-0.48583097352529875,-0.48583097352529875,1.0000225987344473,7.322799640774614e-05
-0.4843071603841963,-0.4843071603841963,1.0000333499455742,6.975379546304338e-05
-0.48343508924153866,-0.48343508924153866,1.0000818600632433,6.842474417100472e-05
-0.4812115255714161,-0.4812115255714161,0.999926975632994,6.820418983660755e-05
-0.4800301955663599,-0.4800301955663599,1.0000477663153524,6.822422334244797e-05
-0.47830181791068754,-0.47830181791068754,0.999980379308575,6.826057053268944e-05
-0.47705366625305035,-0.47705366625305035,1.0000239567230111,6.823160687294586e-05
-0.475510188350745,-0.475510188350745,1.0000469727635048,6.876298093947967e-05
-0.47367330419365317,-0.47367330419365317,1.0000373599386143,6.822582420067409e-05
-0.472126042637683,-0.472126042637683,1.0000809092998675,6.831774621494036e-05
-0.4703522261726903,-0.4703522261726903,1.0000865596972088,7.06682008627173e-05
-0.46890740465023556,-0.46890740465023556,0.9999244161953866,6.82645743358244e-05
-0.46677501935773763,-0.46677501935773763,0.999948969551161,6.821963105068075e-05
-0.46502809509402143,-0.46502809509402143,0.9999026871002833,6.822671314064819e-05
-0.46316432337334845,-0.46316432337334845,1.0000375397293062,6.82357807147529e-05
-0.4618775464317878,-0.4618775464317878,0.999865724533118,6.824417597404765e-05
-0.45991899993969126,-0.45991899993969126,1.000078873467801,6.828113182836075e-05
-0.45827023770252706,-0.45827023770252706,1.0000703871701269,6.827816682873529e-05
-0.4563501037831884,-0.4563501037831884,1.000048269158004,6.823097465245029e-05
-0.45493952285469275,-0.45493952285469275,1.0001103575886776,6.890685247447356e-05
-0.4533308078578557,-0.4533308078578557,1.0000418188618805,6.820610647502069e-05
-0.452064049175533,-0.452064049175533,1.0001244729843126,6.824227793362092e-05
-0.4504800010356121,-0.4504800010356121,0.9999086843732583,6.823720799087484e-05
-0.44907815685728564,-0.44907815685728564,0.9999916200638668,6.823727068427697e-05
-0.44754890532640274,-0.44754890532640274,0.9999816680124324,7.111896045908553e-05
-0.44569134933553867,-0.44569134933553867,0.9998390373988068,6.821864464525779e-05
-0.44436078209109836,-0.44436078209109836,0.9999936811620586,6.851247146190657e-05
-0.44232362719776575,-0.44232362719776575,0.9999087902430238,6.82078081268758e-05
-0.4413414433598518,-0.4413414433598518,1.0001003184746413,6.822565874101853e-05
-0.4398356857287581,-0.4398356857287581,0.9999156875807269,6.823751877769633e-05
-0.43840904267999575,-0.43840904267999575,0.9999607253956896,6.82431737770162e-05
-0.4372630447294796,-0.4372630447294796,1.0000390289555858,6.898331033608406e-05
-0.43560769344767325,-0.43560769344767325,1.0000283346991288,7.086801043590842e-05
-0.4343904863620992,-0.4343904863620992,1.000082032760039,6.824731948678434e-05
-0.43236722963047214,-0.43236722963047214,0.9998978114026486,6.857739488760358e-05
-0.4307796177294222,-0.4307796177294222,1.0000716961306693,6.823509861172739e-05
-0.4286803163413424,-0.4286803163413424,0.999885955317198,6.825228272457508e-05
-0.426987312467827,-0.426987312467827,0.9999986231559588,6.824327341369269e-05
-0.42468400942452716,-0.42468400942452716,1.0001111418187938,6.820993592525318e-05
-0.4235449005267583,-0.4235449005267583,1.0000437802772566,6.830657864216921e-05
-0.4214574951853137,-0.4214574951853137,1.0000322695038775,6.82943352398256e-05
-0.42012442032573744,-0.42012442032573744,0.9999664030138481,7.010196844057509e-05
-0.41807801198447125,-0.41807801198447125,1.0000926883390646,6.825431023437466e-05
-0.41667179268115434,-0.41667179268115434,1.000122831531059,6.824244694628249e-05
-0.41523507235106083,-0.41523507235106083,0.99990697248562,6.915319657453594e-05
-0.4136960553238168,-0.4136960553238168,1.0001058141548043,6.822805107237343e-05
-0.4124222161291982,-0.4124222161291982,0.9999311650564817,6.824802440070677e-05
-0.41066943161422387,-0.41066943161422387,0.9999979925071845,6.824854623941445e-05
-0.4093343937158352,-0.4093343937158352,0.9999618301380462,6.829133300964425e-05
-0.40706220636930085,-0.40706220636930085,0.9999973880491158,6.820902620672013e-05
-0.40574409901018954,-0.40574409901018954,1.000077214236531,6.867072449702915e-05
-0.403761645227496,-0.403761645227496,1.0000775815738456,6.820377106307873e-05
-0.40253608998464185,-0.40253608998464185,0.9999924933631329,6.823263996500165e-05
-0.4008237871094025,-0.4008237871094025,1.0001029829493382,6.825526392493222e-05
-0.39933828527864534,-0.39933828527864534,1.0000226447704248,6.82299627790255e-05
-0.39807092704577374,-0.39807092704577374,0.9999830704627376,7.429492220933456e-05
-0.39644119131407934,-0.39644119131407934,0.999980484025073,6.820072380068922e-05
-0.39531807415332876,-0.39531807415332876,1.0000694627449012,6.824303075246538e-05
-0.3935008947199094,-0.3935008947199094,1.0001188034227464,6.876906802146593e-05
-0.3920339769232669,-0.3920339769232669,1.0001631796775234,6.824219319041306e-05
-0.3907324779822375,-0.3907324779822375,1.0000936842093275,6.824003179215631e-05
-0.38907753814128226,-0.38907753814128226,1.0001428620804202,6.823151340389167e-05
-0.3874165829838603,-0.3874165829838603,1.0000768146164465,6.872167517764161e-05
-0.38555282097222515,-0.38555282097222515,1.0001152294273534,6.821496809476236e-05
-0.38428894779935946,-0.38428894779935946,1.0000858347814958,6.832528309414797e-05
-0.38224118903744964,-0.38224118903744964,1.0000294373198386,7.056203167076945e-05
-0.3809836879372597,-0.3809836879372597,1.000074548762292,6.827788648079705e-05
-0.37882618037983773,-0.37882618037983773,1.0000971996133585,6.820388379111478e-05
-0.3775052446391783,-0.3775052446391783,1.000100979562099,6.94707153293555e-05
-0.37589135772141163,-0.37589135772141163,1.000085330683545,6.82151241649985e-05
-0.37432188890816176,-0.37432188890816176,0.9999977199984823,6.823488263025989e-05
-0.37267169830738567,-0.37267169830738567,1.0001033769834198,6.826189910461581e-05
-0.37100269120855955,-0.37100269120855955,1.0000029793018732,6.825591693483972e-05
-0.3690623565198621,-0.3690623565198621,0.9997688785735661,6.826991425605592e-05
-0.36741786495404083,-0.36741786495404083,1.0002448428094741,6.82398977931857e-05
-0.3657408964951173,-0.3657408964951173,1.0000634500740038,6.882527317791354e-05
-0.3643956320855068,-0.3643956320855068,1.0000378974519368,6.822755219986362e-05
-0.3634800039755646,-0.3634800039755646,1.0000178780132116,6.822205093847872e-05
-0.36155489862867396,-0.36155489862867396,1.0000345331608202,6.82490169406552e-05
-0.36018905178498245,-0.36018905178498245,1.0000903964058534,6.824887748737347e-05
-0.3585959955031285,-0.3585959955031285,0.9999017666933845,7.356090462449803e-05
-0.35702358292764985,-0.35702358292764985,1.0000522336884263,6.822211922886429e-05
-0.3554139927655342,-0.3554139927655342,1.0000561109094672,6.848234540670768e-05
-0.35349666163965593,-0.35349666163965593,0.9999919296340487,6.822571801654674e-05
-0.3526288754059351,-0.3526288754059351,0.9999675342811255,6.825334061750694e-05
-0.350729544639762,-0.350729544639762,1.0000232885206708,6.821754608216584e-05
-0.3496149270155001,-0.3496149270155001,0.9999469864221023,6.82263525626074e-05
-0.3480613350999192,-0.3480613350999192,0.9999904598841651,7.160970116305952e-05
-0.34647166940412716,-0.34647166940412716,0.9999638661407009,6.823100849401255e-05
-0.34490910314634676,-0.34490910314634676,1.0000413439412288,6.853550100782314e-05
-0.34300070756144124,-0.34300070756144124,1.0000474117644926,6.821959890932919e-05
-0.34130131573183464,-0.34130131573183464,1.0001120275330788,6.826686967150163e-05
-0.33925228290318044,-0.33925228290318044,1.000022004953914,6.822992065301251e-05
-0.337264782236889,-0.337264782236889,0.9999254179712509,6.821270804701825e-05
-0.33563775292714126,-0.33563775292714126,0.9999474730415165,6.824552703662274e-05
-0.334209810574248,-0.334209810574248,1.0000503513643255,6.82744135935589e-05
-0.33233653705392496,-0.33233653705392496,0.9999756750834378,7.005171346904006e-05
-0.33067585192184196,-0.33067585192184196,1.0000273247458993,6.827667903417529e-05
-0.3288242725553573,-0.3288242725553573,1.000036408919221,6.822152299026196e-05
-0.3274461765002343,-0.3274461765002343,0.9999802448697963,6.908245459279685e-05
-0.32568431149265964,-0.32568431149265964,0.9999258318469204,6.821212135931929e-05
-0.3244046222374891,-0.3244046222374891,0.9999150529688345,6.825336613428467e-05
-0.3224883287577541,-0.3224883287577541,0.9998973911895364,6.823930831101232e-05
-0.320989826056757,-0.320989826056757,1.000018228985407,6.829140766926177e-05
-0.31872022579336773,-0.31872022579336773,1.0000479952393284,6.820457191773817e-05
-0.31740233525342776,-0.31740233525342776,1.0001005748737228,6.863224991010249e-05
-0.3150976181481383,-0.3150976181481383,0.999976746782707,6.821745102568743e-05
-0.31402958262333414,-0.31402958262333414,1.0001299568087731,6.823267170430347e-05
-0.31222781923570436,-0.31222781923570436,1.0000502748273647,6.825150841765149e-05
-0.31113173721096243,-0.31113173721096243,0.9998930820583659,6.821996609496144e-05
-0.30984837794094344,-0.30984837794094344,0.9999514393258281,7.175770009966375e-05
-0.30809946260123977,-0.30809946260123977,1.0000009923522466,6.820331274101588e-05
-0.3071148717484903,-0.3071148717484903,1.0000534585023355,6.957552246303057e-05
-0.3057120571815176,-0.3057120571815176,1.0000431096537086,6.870079785894408e-05
-0.3041277247859398,-0.3041277247859398,1.0001637705289332,6.821502440791358e-05
-0.3024434392151306,-0.3024434392151306,1.0001297231794193,6.826643442940516e-05
-0.3004150003893301,-0.3004150003893301,1.0000259087849592,6.823043100809444e-05
-0.2986644869975862,-0.2986644869975862,1.0002976365365317,6.86763440486717e-05
-0.29698913845495556,-0.29698913845495556,0.9999885180727954,6.823391958776356e-05
-0.2954618115021731,-0.2954618115021731,1.0000527560609649,6.830244262644786e-05
-0.2936657293015742,-0.2936657293015742,1.0000248708659503,7.045553452917795e-05
-0.2922181071306113,-0.2922181071306113,1.000011327623723,6.826800956150098e-05
-0.2903027803535224,-0.2903027803535224,1.0000124916826856,6.822257023523755e-05
-0.2888743197749136,-0.2888743197749136,1.0000010572744285,6.93681830572177e-05
-0.28709501848643415,-0.28709501848643415,0.999921992490768,6.820807858974004e-05
-0.28576234972424575,-0.28576234972424575,1.0001197609143904,6.823509090665075e-05
-0.2839784394556773,-0.2839784394556773,1.0001025472699254,6.829897722953785e-05
-0.2824357338671689,-0.2824357338671689,0.9999752215762285,7.069144520880803e-05
-0.28072086744505215,-0.28072086744505215,1.000094263524447,6.828082341661404e-05
-0.2790694810581044,-0.2790694810581044,1.000079310516536,6.823450427648821e-05
-0.27772416257212174,-0.27772416257212174,1.0000214303606638,6.875057997696193e-05
-0.2763741183603997,-0.2763741183603997,0.9999685054171079,6.821077436607579e-05
-0.2753272326925071,-0.2753272326925071,1.0000111610840097,6.822949230084094e-05
-0.2736081026610918,-0.2736081026610918,1.0000692283659183,6.824944481367067e-05
-0.2721458389569307,-0.2721458389569307,0.9999770429163511,6.823481796920386e-05
-0.27077656356268565,-0.27077656356268565,1.000042824245189,7.235111148874825e-05
-0.2689980660346919,-0.2689980660346919,0.9999721380374721,6.822531474644315e-05
-0.2675120819214499,-0.2675120819214499,0.999982085084428,6.845121260223935e-05
-0.26535194565803977,-0.26535194565803977,1.0000140751430255,6.821526781658663e-05
-0.2644878354331013,-0.2644878354331013,0.9999642550607968,6.821922574576489e-05
-0.26275490388070466,-0.26275490388070466,1.0001462817784326,6.825987039141477e-05
-0.26149314474168933,-0.26149314474168933,0.9999646779964358,6.823351604541657e-05
-0.2601177946635289,-0.2601177946635289,0.9999802658980945,7.158687083156233e-05
-0.2583473291902919,-0.2583473291902919,1.000121503486484,6.821423542543398e-05
-0.25707690839335556,-0.25707690839335556,1.0000468745650235,6.834084131685528e-05
-0.2549950849424931,-0.2549950849424931,1.0000212725886164,6.839835626352076e-05
-0.25378901887743266,-0.25378901887743266,1.0000252110647203,6.827185151550914e-05
-0.25157931865833233,-0.25157931865833233,1.0000010401787907,6.823052728956817e-05
-0.24982574616151396,-0.24982574616151396,0.9999675208443459,6.822910323672394e-05
-0.24800131981901358,-0.24800131981901358,1.0000563850475044,6.820372803248679e-05
-0.24688275413791416,-0.24688275413791416,0.9999840253746699,6.823275141446583e-05
-0.2450814307827386,-0.2450814307827386,0.9999065081480598,6.833540789781289e-05
-0.24343444383994212,-0.24343444383994212,0.9998542049826449,6.988816789686386e-05
-0.24139861368457788,-0.24139861368457788,0.999875422115579,6.825097592569619e-05
-0.23998305105633336,-0.23998305105633336,1.0000305449395412,6.824133204323123e-05
-0.23842875923292012,-0.23842875923292012,0.9999327853868778,6.899066816526447e-05
-0.2367816642537946,-0.2367816642537946,1.0000573854013919,6.823845012439169e-05
-0.23532209482073085,-0.23532209482073085,1.0000863508218532,6.824066406079288e-05
-0.23354254238220165,-0.23354254238220165,0.9999798245165499,6.823793937946704e-05
-0.23208357948460617,-0.23208357948460617,0.9999677326879471,6.829455782925705e-05
-0.23015360912540928,-0.23015360912540928,1.0000284401071646,6.82281613025571e-05
-0.22863427406991832,-0.22863427406991832,1.0000325752248496,6.857060055777905e-05
-0.22645515196491034,-0.22645515196491034,1.0000176250220816,6.821622658240269e-05
-0.22571776708500693,-0.22571776708500693,1.0001126733639336,6.823322864214616e-05
-0.2242826055531623,-0.2242826055531623,1.0000174366338954,6.82493778642683e-05
-0.22301020336308283,-0.22301020336308283,1.0000742957599777,6.823765399929839e-05
-0.22177136349637294,-0.22177136349637294,1.00006862974026,6.916189297959143e-05
-0.22050386201153743,-0.22050386201153743,1.000013489581143,7.082593023439101e-05
-0.21927022125018994,-0.21927022125018994,1.0000926307807678,6.823814339389922e-05
-0.21769775494321947,-0.21769775494321947,1.000135736253751,6.865479987469534e-05
-0.21607915440108627,-0.21607915440108627,0.9999028854178491,6.821448224327699e-05
-0.21493981326639186,-0.21493981326639186,1.0000447385170417,6.826852375076307e-05
-0.21273477372160415,-0.21273477372160415,1.0001106710405174,6.82317877657804e-05
-0.21111196966521675,-0.21111196966521675,0.9999536771229834,6.82249587963215e-05
-0.20939068093866808,-0.20939068093866808,1.0001015508022675,6.81943523013009e-05
-0.2082424584776163,-0.2082424584776163,0.9999457827587367,6.823946885311505e-05
-0.20621422234398779,-0.20621422234398779,0.9998430842090416,6.83923438576846e-05
-0.20481557591701857,-0.20481557591701857,1.0001048176754481,7.023504353242142e-05
-0.20299801258224762,-0.20299801258224762,0.9999406008192928,6.826690470419161e-05
-0.2013926753483247,-0.2013926753483247,1.0000560981304887,6.823319036923517e-05
-0.19995476091135062,-0.19995476091135062,0.9999291252429737,6.927270489756702e-05
-0.1987586874005501,-0.1987586874005501,1.0000659127307405,6.819919017415365e-05
-0.19742287637200207,-0.19742287637200207,1.0000720701462957,6.823608752563084e-05
-0.19563728945504408,-0.19563728945504408,1.000086750088572,6.829087357267906e-05
-0.1942371510376688,-0.1942371510376688,1.000051179828178,7.062553528962894e-05
-0.19237941341707482,-0.19237941341707482,0.9999557401551762,6.8275844541065e-05
-0.19072196230699773,-0.19072196230699773,1.0001644816151631,6.824097503135802e-05
-0.18921223910001572,-0.18921223910001572,1.0000667438794477,6.870399402967411e-05
-0.18774061296717265,-0.18774061296717265,1.0000180648109336,6.821959739691757e-05
-0.1868104837369174,-0.1868104837369174,1.0000543249832008,6.822591301330601e-05
-0.18487601874367102,-0.18487601874367102,1.0000470424702035,6.825039950085582e-05
-0.18349343081208644,-0.18349343081208644,0.9999671849146854,6.824636364134642e-05
-0.18211831009684828,-0.18211831009684828,0.999910214846022,7.216639166700035e-05
-0.1804113169244374,-0.1804113169244374,0.9998914196718299,6.822823574950256e-05
-0.1791754899037187,-0.1791754899037187,0.9999337964040418,6.841657100189686e-05
-0.1770210698392475,-0.1770210698392475,0.9997621647591867,6.820742755215262e-05
-0.17614459962642287,-0.17614459962642287,1.0000129169201704,6.821979198969083e-05
-0.17441508491610874,-0.17441508491610874,0.9999856029546409,6.825855616041905e-05
-0.17314729006320703,-0.17314729006320703,1.0000751484074424,6.824035832313088e-05
-0.17162491925409995,-0.17162491925409995,1.0000281083477014,6.878244497460274e-05
-0.16978734471776988,-0.16978734471776988,0.9999745622832688,6.822711133006655e-05
-0.16823676167841767,-0.16823676167841767,0.9999655921805021,6.831793488857857e-05
-0.1665399229284958,-0.1665399229284958,0.9999293538025112,7.06906416043267e-05
-0.1654438529483741,-0.1654438529483741,1.000067537383568,6.827294697313982e-05
-0.16323274587775813,-0.16323274587775813,0.9998879825232487,6.822858561501794e-05
-0.16163818423374324,-0.16163818423374324,1.0000568073126952,6.823339399562654e-05
-0.15987860556924716,-0.15987860556924716,0.999995767914051,6.820879175302005e-05
-0.15854821043612902,-0.15854821043612902,0.999969651114071,6.822980794879508e-05
-0.15677455094846665,-0.15677455094846665,1.0001497466005493,6.833413197684163e-05
-0.15537739813007648,-0.15537739813007648,0.9999624730429476,6.97668646147483e-05
-0.1535190245762351,-0.1535190245762351,1.0000052417002667,6.973895424626617e-05
-0.1521329381270334,-0.1521329381270334,0.9999842767268413,6.821974542402438e-05
-0.15076474457455333,-0.15076474457455333,0.9998863312647609,6.892856773913178e-05
-0.14915957530756713,-0.14915957530756713,0.9999735164168791,6.82140672102123e-05
-0.14795226853748317,-0.14795226853748317,0.9999641346044511,6.823028533394205e-05
-0.14644502489099978,-0.14644502489099978,0.9999933914627632,6.824452151197979e-05
-0.14519424733734923,-0.14519424733734923,1.0000625400962628,6.824538175007083e-05
-0.14366260840615724,-0.14366260840615724,0.9998711452933072,7.111242368006166e-05
-0.1418069091887446,-0.1418069091887446,0.999947767864293,6.822183334330756e-05
-0.1404731606686255,-0.1404731606686255,1.0000050401867617,6.852464678952988e-05
-0.13843409030523618,-0.13843409030523618,0.999972782707872,6.821030571560333e-05
-0.13745585801079868,-0.13745585801079868,1.0000233779802357,6.822790225889793e-05
-0.13594740977714537,-0.13594740977714537,1.0000475124115487,6.824397175492887e-05
-0.13452504920132924,-0.13452504920132924,1.0000109845216936,6.824514237838269e-05
-0.1333767795935273,-0.1333767795935273,1.0000352639547372,6.901148443351363e-05
-0.13185122058930573,-0.13185122058930573,0.9998247300422234,7.084752407176909e-05
-0.13069592386746082,-0.13069592386746082,0.9999321807817768,6.824417493360178e-05
-0.12892502204049378,-0.12892502204049378,1.0000423872370328,6.859412909776782e-05
-0.127163376226963,-0.127163376226963,1.0000209761435894,6.821429164182767e-05
-0.12527501657168613,-0.12527501657168613,1.0000659249038515,6.826788629976907e-05
-0.12342815954471006,-0.12342815954471006,0.9999764862060978,6.823474697018254e-05
-0.12126346341829049,-0.12126346341829049,1.0000483143838217,6.821518578235872e-05
-0.11990344155929052,-0.11990344155929052,1.0000626309689085,6.824430785270332e-05
-0.1179130372882355,-0.1179130372882355,1.000040802910748,6.837282974060668e-05
-0.11652179814554983,-0.11652179814554983,1.000156581054877,7.01233247126608e-05
