time,time,flux,flux_err
-0.4987015334384826,-0.4987015334384826,1.0002614356562989,0.00017739438193920164
-0.49680447460802196,-0.49680447460802196,1.0001343708013055,0.00017768215777148993
-0.4949816073913098,-0.4949816073913098,0.9998902705316971,0.00017653716053706598
-0.4933617917544325,-0.4933617917544325,0.9998322037284793,0.0001617704454346803
-0.4915569700897322,-0.4915569700897322,1.0002647187146383,0.00016670577858961144
-0.4897990978468442,-0.4897990978468442,1.0001726913195252,0.00016189097658185356
-0.487991038250766,-0.487991038250766,1.000017010938229,0.00016170262398829805
-0.48657927529347944,-0.48657927529347944,1.000181508910116,0.00016333403319972778
-0.4855716551610385,-0.4855716551610385,1.0000229679601247,0.00016157389115544626
-0.4836040211870568,-0.4836040211870568,1.0000091798387432,0.0001640987156521613
-0.48169940470106665,-0.48169940470106665,1.0005464680743237,0.00016176205156994937
-0.47988058923147037,-0.47988058923147037,0.9999203721892395,0.00016237320415603447
-0.47854413806198864,-0.47854413806198864,0.9998162836892203,0.0001617820180384506
-0.47687059795644016,-0.47687059795644016,0.9998108017743897,0.00016184284819303421
-0.47482170577641225,-0.47482170577641225,1.0004061098308268,0.00016103702528146556
-0.473412378118519,-0.473412378118519,0.999885787943688,0.00016169250092599283
-0.4721481826978561,-0.4721481826978561,1.0000136778722915,0.0001661603857039667
-0.4703159491036786,-0.4703159491036786,0.9997486091951903,0.00016172578408469053
-0.46823003418103326,-0.46823003418103326,0.9994828521890717,0.0001618438034002676
-0.46678689764230513,-0.46678689764230513,1.0005597627176912,0.00016756116234314564
-0.46558680980378997,-0.46558680980378997,1.000112974624512,0.00016177988664552197
-0.4636909050183021,-0.4636909050183021,1.0000424817025342,0.00016174589727914135
-0.46167588587268255,-0.46167588587268255,1.0000910151151294,0.00016371189050387765
-0.45999929195822914,-0.45999929195822914,1.0002300075308623,0.0001621876481496635
-0.45839842501518435,-0.45839842501518435,0.9997923670169326,0.00016157753446605511
-0.4565074410289526,-0.4565074410289526,1.0020368000629698,0.0001622255636131852
-0.4548761871541501,-0.4548761871541501,1.0000398954996534,0.00016174503081098067
-0.4531993346645322,-0.4531993346645322,0.9997566405575803,0.00016056036878062146
-0.4514658997708466,-0.4514658997708466,1.0001262372063426,0.00016162144205119228
-0.44913608482820566,-0.44913608482820566,1.000266633618933,0.00016180424770235793
-0.4473367727950972,-0.4473367727950972,1.000038846269573,0.00016208314057897783
-0.44628603621022195,-0.44628603621022195,1.0001367586596372,0.00016770713055274706
-0.44497149757735316,-0.44497149757735316,0.999959802192189,0.00016177090006255914
-0.44294249437953115,-0.44294249437953115,1.0000075057021456,0.00016172216526505972
-0.4409411840904795,-0.4409411840904795,1.0000621951330655,0.00016332541489336565
-0.4392412354733096,-0.4392412354733096,0.9998741116200753,0.00016209441784934388
-0.43763227979434305,-0.43763227979434305,0.9999874888472149,0.00016154269437312937
-0.4358407159750641,-0.4358407159750641,0.9999970123341775,0.00016217581631521814
-0.43457716846605765,-0.43457716846605765,0.9999011699377306,0.00016173528484286236
-0.43314575603508276,-0.43314575603508276,1.0002519608934282,0.00016024830436310724
-0.4313229328072339,-0.4313229328072339,1.0000658280836436,0.00016172658833993702
-0.42926265109417727,-0.42926265109417727,0.9999642722690811,0.00016172116808318412
-0.4272250730828091,-0.4272250730828091,1.0002137083994156,0.00016555635230552958
-0.42627954286072056,-0.42627954286072056,1.0001459513635456,0.00016462826173328
-0.4252738475406659,-0.4252738475406659,0.9999513645418503,0.00016815497619496338
-0.4239519733193447,-0.4239519733193447,1.000125439893602,0.00016173341435157928
-0.4215770593902562,-0.4215770593902562,0.999544336165082,0.00016170329441426694
-0.41974748860302497,-0.41974748860302497,1.000084785206836,0.00016301629366541277
-0.41872887771532985,-0.41872887771532985,0.9997474529886606,0.00016217240944560414
-0.417059632307064,-0.417059632307064,1.0003164265406386,0.0001619245137170251
-0.41583653563211553,-0.41583653563211553,0.9996544697751573,0.00016287353834724906
-0.4146930193550361,-0.4146930193550361,1.0002412034294756,0.00016152660448073342
-0.41307913981436284,-0.41307913981436284,1.0004871568920328,0.0001619699839824523
-0.41168672286366925,-0.41168672286366925,1.0002800352853958,0.0001598778186507519
-0.40993885616117043,-0.40993885616117043,0.999606358932717,0.000161653639651507
-0.40785605559212856,-0.40785605559212856,1.0001826806534124,0.00016194661840049967
-0.40645873056346316,-0.40645873056346316,0.9998244597112216,0.00016205998832296474
-0.40535976411993035,-0.40535976411993035,0.9997044027135287,0.00016383362887668912
-0.40424900198486285,-0.40424900198486285,1.0001318650837894,0.00016845009111620036
-0.402648746977502,-0.402648746977502,1.000176279819809,0.00016175011698919898
-0.40081609204862617,-0.40081609204862617,0.9999478045696464,0.00016174220515675452
-0.39898998861390284,-0.39898998861390284,1.0000341338799643,0.0001627525753208159
-0.3979391824679624,-0.3979391824679624,1.0000493119068732,0.00016515201290043518
-0.39615509425566414,-0.39615509425566414,1.000024872206691,0.00016169345037465302
-0.3946796659118263,-0.3946796659118263,0.9999053485888785,0.00016281080583441595
-0.3934478821094672,-0.3934478821094672,1.0000979538862542,0.0001612222609466131
-0.3917880116110609,-0.3917880116110609,0.9998341304872811,0.00015990676716475368
-0.3906988188165997,-0.3906988188165997,1.0000372814768084,0.0001672172945754859
-0.38917549243924443,-0.38917549243924443,0.9997503234315135,0.00016173635934041089
-0.38722607634408635,-0.38722607634408635,0.9999448973148144,0.00016790568685391965
-0.3860096578617231,-0.3860096578617231,0.9999761489773572,0.0001618149733630879
-0.3847568419012532,-0.3847568419012532,1.0005834077680542,0.00016353998185491674
-0.38376094583945813,-0.38376094583945813,0.9999836788606171,0.0001680435949464336
-0.3819592992826074,-0.3819592992826074,1.0000731328893744,0.00016469588397886496
-0.38005523436659133,-0.38005523436659133,0.9999809353107454,0.00016181126344470064
-0.3789396555868734,-0.3789396555868734,1.0002961335943934,0.00016274719909407579
-0.37765689094521804,-0.37765689094521804,1.0000475963919135,0.00016170145357964123
-0.3760924043279374,-0.3760924043279374,1.0001509108526272,0.00016196804695793907
-0.3746085314094671,-0.3746085314094671,1.000196077181868,0.00016233183246034357
-0.3730392634861346,-0.3730392634861346,0.9998779663045433,0.00016104383787916165
-0.3714265388887725,-0.3714265388887725,1.000013430147647,0.00016188811877782683
-0.37000910868882786,-0.37000910868882786,1.0001264548395123,0.00016663550825842026
-0.3681240308920678,-0.3681240308920678,0.9998583093530483,0.00016180233308352125
-0.366330466929503,-0.366330466929503,1.0003233379798209,0.00016181366803301372
-0.36494499723266927,-0.36494499723266927,0.9998432856839743,0.00016205150461932172
-0.3638309279049281,-0.3638309279049281,1.0001867923338514,0.00016295480100690784
-0.362270666754921,-0.362270666754921,0.999899679413154,0.00016159780595747505
-0.36044680969353066,-0.36044680969353066,1.000153540951693,0.00016436498991520142
-0.3587671776433126,-0.3587671776433126,0.9999597383054294,0.00016230977240574916
-0.3568919040291803,-0.3568919040291803,1.0001875374370495,0.00016171862758419204
-0.35533978385064985,-0.35533978385064985,1.0000758449476943,0.0001618862208907057
-0.3536188715072058,-0.3536188715072058,1.0002275509994982,0.00016201859672134865
-0.35201405920815887,-0.35201405920815887,1.0011494280176945,0.0001608944560453906
-0.35043008485081373,-0.35043008485081373,1.000032477034993,0.0001618463204451228
-0.34907080358316306,-0.34907080358316306,1.000470205197156,0.00016614036881316743
-0.3470593973623181,-0.3470593973623181,1.000602872654971,0.00016187799336010521
-0.3452116379841755,-0.3452116379841755,1.0000415752577911,0.00016179884714547567
-0.3438740788944415,-0.3438740788944415,1.000498409996922,0.00016760666850457304
-0.3426941545512818,-0.3426941545512818,0.9996693137167159,0.0001616531318908361
-0.3404388567985734,-0.3404388567985734,0.9998943607782816,0.0001636388059873187
-0.33853385585098295,-0.33853385585098295,0.9999542467017569,0.0001617380813469322
-0.3367180142820871,-0.3367180142820871,1.0000169371533123,0.00016229849951285635
-0.3353302116083796,-0.3353302116083796,1.003227231893208,0.00016188470637162127
-0.333683639690571,-0.333683639690571,0.9996786084681029,0.00016174645035230977
-0.3319797709889826,-0.3319797709889826,0.9997726110454683,0.00016211374438210492
-0.330426330085902,-0.330426330085902,0.9999994051343231,0.00016043463987771184
-0.32862433602203966,-0.32862433602203966,0.999973021551132,0.0001616896831254437
-0.32629542691356617,-0.32629542691356617,1.0002156529316133,0.00016183476066350123
-0.32457928665025976,-0.32457928665025976,1.0000973311627193,0.00016179154114605228
-0.32334943305613706,-0.32334943305613706,0.9998199436335355,0.00016793215018110738
-0.32200542268692517,-0.32200542268692517,1.0000276583468575,0.00016163860831932227
-0.3197057177188981,-0.3197057177188981,1.0001007115865153,0.00016329629806981338
-0.3177733346958121,-0.3177733346958121,0.9997675776197668,0.00016166241978511495
-0.31596087478101254,-0.31596087478101254,1.000079626507128,0.00016224607813523443
-0.3145838322438067,-0.3145838322438067,0.9999083989668838,0.00016179240594544963
-0.3130469526651723,-0.3130469526651723,0.9997671833317294,0.00016159349671009544
-0.3114344999885361,-0.3114344999885361,0.9999675444479404,0.0001621034628452742
-0.310300935304258,-0.310300935304258,1.0002599960558016,0.00016029319945841028
-0.30867086682046646,-0.30867086682046646,0.999998132069422,0.00016166930342947447
-0.30638311348157005,-0.30638311348157005,0.9997329021768648,0.00016174210596328368
-0.30446789884445025,-0.30446789884445025,1.000852180506143,0.00016213548844230122
-0.3035375484636461,-0.3035375484636461,0.9998828505430473,0.0001645896309254065
-0.30236955649379527,-0.30236955649379527,1.0001563961594537,0.0001682810809913599
-0.3004666856584663,-0.3004666856584663,1.0000531743618912,0.00016144999999587154
-0.29863958149289827,-0.29863958149289827,0.9997720342546794,0.00016311588306231178
-0.2967945000898908,-0.2967945000898908,1.0000404033154193,0.0001618253187994232
-0.29556951325284897,-0.29556951325284897,1.000173435082988,0.00016221135222850642
-0.29413882024746274,-0.29413882024746274,1.0001492451733933,0.00016264787098178038
-0.2925214382019476,-0.2925214382019476,0.9998477322212501,0.00016215197077126193
-0.29141492774142536,-0.29141492774142536,1.0000709711919997,0.00016156021240768388
-0.28997573321976233,-0.28997573321976233,0.9998702582223933,0.00015991472092381708
-0.28816132639040004,-0.28816132639040004,0.9997536443239463,0.00016171785705655135
-0.2860995954171813,-0.2860995954171813,1.0001593495475134,0.00016193826938922402
-0.28436555975786176,-0.28436555975786176,0.9998621125310901,0.00016184421932004256
-0.2831133160427271,-0.2831133160427271,0.9999223469769669,0.00016412412714371909
-0.28211193414608715,-0.28211193414608715,1.0000748136817172,0.00016829187402095158
-0.2806233637929836,-0.2806233637929836,1.0000674477874794,0.00016169462726315948
-0.27841120685261556,-0.27841120685261556,0.9999876903134325,0.00016173027625334844
-0.27658467102301076,-0.27658467102301076,1.0000894629806083,0.00016277664699022607
-0.27523996721429284,-0.27523996721429284,1.0001323690704553,0.0001620396852711188
-0.27359532199188835,-0.27359532199188835,1.0003534173419484,0.0001623503754832096
-0.2719275734503753,-0.2719275734503753,1.0001402005002267,0.00016212288947379565
-0.2706581654820184,-0.2706581654820184,1.0002296852464527,0.00016139384122747263
-0.2692100814601872,-0.2692100814601872,0.999922196563567,0.00015966083623189596
-0.2677294501794677,-0.2677294501794677,1.0002639826218758,0.00016723834573856758
-0.2658858235859952,-0.2658858235859952,1.000741851228359,0.00016773421716366027
-0.26449834586892396,-0.26449834586892396,1.0000927177904613,0.00016188836060028976
-0.2631261478025408,-0.2631261478025408,1.000077866553832,0.0001621459965597864
-0.26219085857082974,-0.26219085857082974,1.000097790461901,0.00016341583088051492
-0.2611296763883729,-0.2611296763883729,1.0000779425248396,0.00016819574595997567
-0.2595543339761207,-0.2595543339761207,1.0003816157507317,0.00016476836998273036
-0.25765033636344015,-0.25765033636344015,0.999732521667798,0.0001617916660190369
-0.2561844749674492,-0.2561844749674492,0.9999366997726625,0.00016260703011919625
-0.25487364052969497,-0.25487364052969497,1.0000460693062425,0.000161847383321282
-0.2529891041536757,-0.2529891041536757,0.9999360386432226,0.00016166632303921328
-0.2514988870250818,-0.2514988870250818,0.9999943025368017,0.00016261704616422757
-0.2503707254269102,-0.2503707254269102,1.0000229779568564,0.00016110092261856405
-0.24878115359533695,-0.24878115359533695,1.0001130624083914,0.0001619154230738738
-0.24729909337183925,-0.24729909337183925,0.999882492842399,0.0001666613338061136
-0.24575708203701652,-0.24575708203701652,1.0010653036925095,0.00016196056759469976
-0.24422451965947403,-0.24422451965947403,0.9997314526478542,0.00016192645251726856
-0.24284404729187373,-0.24284404729187373,1.0000711876545676,0.00016181002898708058
-0.24159077957519912,-0.24159077957519912,1.0000848192761747,0.00016315774646288468
-0.2403117852860305,-0.2403117852860305,1.0002025031584467,0.00016159329899792643
-0.23846957497225957,-0.23846957497225957,0.9999501130691625,0.00016441803263092652
-0.23664723990368658,-0.23664723990368658,1.0001882963570239,0.00016221374433827987
-0.23473238308142755,-0.23473238308142755,0.999782195464498,0.00016183865221608626
-0.23330913119498292,-0.23330913119498292,1.000144250511753,0.00016197508574943145
-0.23163234060630203,-0.23163234060630203,1.0001505702173277,0.00016196886223588042
-0.22986899345196435,-0.22986899345196435,1.000115216192594,0.00016084219946324523
-0.22826743227269616,-0.22826743227269616,1.0003576094609559,0.00016184890600891663
-0.22703832361876267,-0.22703832361876267,0.9998690763578566,0.00016624539390555198
-0.22509122223127634,-0.22509122223127634,1.0003925670663363,0.00016181948215705978
-0.22309335088721127,-0.22309335088721127,0.9998648954757847,0.00016175563473002844
-0.22169681513187242,-0.22169681513187242,1.0003260426142377,0.00016763770944595613
-0.2205529492304777,-0.2205529492304777,0.9999693394595095,0.00016162000397396118
-0.21846699302768685,-0.21846699302768685,1.0002739113038963,0.00016167740277195613
-0.21653049991073203,-0.21653049991073203,1.000328913175529,0.00016267690415995464
-0.21518882060991018,-0.21518882060991018,0.9998000141886074,0.00016219228371713908
-0.2135899757646257,-0.2135899757646257,1.0007632479286965,0.00016156391178427787
-0.21169619846405113,-0.21169619846405113,1.000432846837387,0.00016210607324636305
-0.2103329372315784,-0.2103329372315784,0.9999706252505158,0.00016180726607529882
-0.20875563536974368,-0.20875563536974368,1.0001124414964682,0.00016060285890375804
-0.20702807311463403,-0.20702807311463403,0.9998126031445198,0.00016171969182918915
-0.20474276967870536,-0.20474276967870536,1.0001347712581812,0.00016171204342804325
-0.20284647006556042,-0.20284647006556042,1.000173832854579,0.00016202587674517065
-0.20147581438213819,-0.20147581438213819,0.999988287506836,0.00016763480748255765
-0.20016196061624214,-0.20016196061624214,1.0001901725361215,0.00016174984303851894
-0.19813237364505767,-0.19813237364505767,1.000000054475499,0.00016168151400630694
-0.19612983124243327,-0.19612983124243327,1.000052851112662,0.00016348783405855633
-0.19443074146765865,-0.19443074146765865,0.9999155099592436,0.0001621281443276374
-0.19282380723525422,-0.19282380723525422,1.0001936948595322,0.00016155784697483721
-0.19102917332420474,-0.19102917332420474,1.0001989805172868,0.00016217139060305857
-0.18976639210886787,-0.18976639210886787,0.9999663376777341,0.00016179364223769773
-0.18833720566763076,-0.18833720566763076,0.9999818158865134,0.00016033182701675588
-0.18651197981453152,-0.18651197981453152,0.9997564110884436,0.00016172258675120526
-0.18445383741564,-0.18445383741564,0.9999220474764343,0.00016171502640063043
-0.18253162318869726,-0.18253162318869726,1.000084599857497,0.00016195208614842591
-0.18146990510285832,-0.18146990510285832,1.0000488546370094,0.0001647845482319862
-0.18046297137407236,-0.18046297137407236,1.000112897279914,0.0001680584162088243
-0.17914154070967925,-0.17914154070967925,0.999638917597202,0.00016173749104415663
-0.17708942251701956,-0.17708942251701956,1.000019822841923,0.00016179919732044133
-0.17537338348265621,-0.17537338348265621,1.000075152463514,0.0001631220367008284
-0.17398924738226923,-0.17398924738226923,1.0000662652635242,0.00016202318610794255
-0.1721066362610145,-0.1721066362610145,1.0001867612414976,0.00016163867278800638
-0.17027539809205336,-0.17027539809205336,1.000028318923312,0.00016214087883160237
-0.16900952971773223,-0.16900952971773223,0.9998447830646061,0.00016159483366906172
-0.16757144753137254,-0.16757144753137254,1.0001281166683291,0.00015996634074481132
-0.16575583577578074,-0.16575583577578074,1.0000799757552379,0.00016171520719291492
-0.1636946629412705,-0.1636946629412705,1.000087726513954,0.00016192054646389087
-0.16196066767079173,-0.16196066767079173,0.9999333350607513,0.00016185693479903816
-0.16070848666204257,-0.16070848666204257,0.9998990691940826,0.00016421159623303117
-0.1597547000463237,-0.1597547000463237,1.000253140140829,0.00016842987794585447
-0.15847354223005822,-0.15847354223005822,1.0001447457324961,0.00016170345078794752
-0.1564115213092009,-0.1564115213092009,0.9999323290348652,0.0001616325795990951
-0.1550087883406377,-0.1550087883406377,1.0002995374894634,0.00016292490735894677
-0.153484831287642,-0.153484831287642,1.0001276189030655,0.00016179258896476477
-0.15162763172556878,-0.15162763172556878,0.999845799163543,0.00016203960430619831
-0.15021107958455104,-0.15021107958455104,1.0001089820790263,0.00016254915850805825
-0.14899509307724657,-0.14899509307724657,0.99996645693773,0.00016136227642027514
-0.1471323776335339,-0.1471323776335339,0.9996888187527831,0.00016201049671865024
-0.14601339272558106,-0.14601339272558106,1.000144167960031,0.0001651965949803536
-0.14436632418073714,-0.14436632418073714,1.0007980264823293,0.00016169599753404848
-0.14241461183410137,-0.14241461183410137,0.9998259562825975,0.00016803813932949246
-0.14128671027210657,-0.14128671027210657,1.0001109800278098,0.00016175951692494567
-0.14011714568187017,-0.14011714568187017,0.9998951584039162,0.0001638732649871586
-0.13919859289308079,-0.13919859289308079,0.9997661382799133,0.00016803635500973687
-0.13749441508189192,-0.13749441508189192,1.0002509344905623,0.0001616101352389648
-0.135562490861048,-0.135562490861048,0.9999611248591076,0.00016499270288411846
-0.1338594820459548,-0.1338594820459548,1.0000364965720052,0.00016259120945838246
-0.13246866340341512,-0.13246866340341512,0.9997178598612013,0.000161844867644119
-0.13058424029513843,-0.13058424029513843,0.9997435589874325,0.00016165934093184884
-0.1290711627691053,-0.1290711627691053,0.9998288837464958,0.0001625784721702277
-0.12763498008498572,-0.12763498008498572,0.9998428465478495,0.0001610831013172029
-0.12614763323072112,-0.12614763323072112,0.9997911165395784,0.00016179005297201863
-0.12454258588259108,-0.12454258588259108,1.0001479694318691,0.00016689132310281676
-0.12293616717288387,-0.12293616717288387,0.9998531265535447,0.00016179129490081497
-0.12132481877779355,-0.12132481877779355,1.0000836911460005,0.00016169204915904287
-0.11980954718601425,-0.11980954718601425,1.0000926618282022,0.0001621124485964729
-0.11883742147329031,-0.11883742147329031,1.0000957545913596,0.00016305120461376673
-0.11706765501148766,-0.11706765501148766,1.0000529546969081,0.00016168520066631907
