time,time,flux,flux_err
-0.49887008245787,-0.49887008245787,1.0000249659494735,6.795609175859303e-05
-0.4968707132744991,-0.4968707132744991,0.9999420790033913,6.795059170751388e-05
-0.4947663223319978,-0.4947663223319978,1.000116132554897,6.793214289096077e-05
-0.49362579395383366,-0.49362579395383366,1.0000554477714272,6.211518553358799e-05
-0.4925890235870611,-0.4925890235870611,1.0000309328320283,6.204302089629987e-05
-0.49139026228076543,-0.49139026228076543,1.0000371128042593,6.203095100777938e-05
-0.49024589038454,-0.49024589038454,1.0001154092245037,6.205251003258403e-05
-0.48832874050422104,-0.48832874050422104,1.0001071784613955,6.202276310855212e-05
-0.4857726049187477,-0.4857726049187477,0.9999223227184215,6.206942718357582e-05
-0.48494884200190425,-0.48494884200190425,0.999941935428008,6.199117422187702e-05
-0.483377067935362,-0.483377067935362,1.000038645306319,6.202977503386864e-05
-0.48247551019594537,-0.48247551019594537,1.0000388595179153,6.20581512868979e-05
-0.48153299051627985,-0.48153299051627985,1.0000074839054953,6.205650418327472e-05
-0.4802149599636323,-0.4802149599636323,1.0000199141352222,6.203071402449902e-05
-0.4781005540251499,-0.4781005540251499,1.0000767648394515,6.203399380669801e-05
-0.4770963545757695,-0.4770963545757695,0.9999026231362536,6.201429720812933e-05
-0.47564963179174813,-0.47564963179174813,1.0000089074863523,6.201927558929697e-05
-0.47362377492681845,-0.47362377492681845,0.9999378195778938,6.209903925072526e-05
-0.47251165749039503,-0.47251165749039503,1.000052213248776,6.197021084347288e-05
-0.47132107270590495,-0.47132107270590495,1.0000998998387227,6.206166705317947e-05
-0.4702872404261143,-0.4702872404261143,0.9999706478262551,6.21067971972441e-05
-0.46901664942270144,-0.46901664942270144,0.999868566329696,6.203952546615998e-05
-0.46773013983183775,-0.46773013983183775,1.0000888082405957,6.199049267590145e-05
-0.4669527675578138,-0.4669527675578138,0.9998687722695075,6.204400932775915e-05
-0.4653553851268953,-0.4653553851268953,0.9999549174378863,6.19912066771996e-05
-0.46423161635466387,-0.46423161635466387,1.0000569450412193,6.209619909081982e-05
-0.4629003765629022,-0.4629003765629022,0.9999670756703413,6.20635100628042e-05
-0.461227083299309,-0.461227083299309,1.000073028500448,6.19966021168467e-05
-0.45981760956783546,-0.45981760956783546,0.9999834303916465,6.205570945990269e-05
-0.45889031927217727,-0.45889031927217727,0.999893700405776,6.201964791445119e-05
-0.45791691782360433,-0.45791691782360433,0.9999600483892147,6.210920401673211e-05
-0.45606137671275065,-0.45606137671275065,1.0000189215549897,6.324520595390112e-05
-0.45476488586864433,-0.45476488586864433,1.0000910542990789,6.197718205121828e-05
-0.4539390945166815,-0.4539390945166815,1.0000816038669296,6.208590474253451e-05
-0.45257052454398944,-0.45257052454398944,0.9999280103518318,6.198917062100648e-05
-0.4510499463911401,-0.4510499463911401,0.999903320496619,6.205322873608011e-05
-0.4495404197936296,-0.4495404197936296,1.0000665678910923,6.203549610712794e-05
-0.44854169789177833,-0.44854169789177833,1.000062236987929,6.202911766354107e-05
-0.4469445603986969,-0.4469445603986969,0.9999332743747322,6.200069400356325e-05
-0.4458830896895961,-0.4458830896895961,1.000067545247284,6.206855430654536e-05
-0.44444584834127454,-0.44444584834127454,1.0001487777917677,6.204617589212101e-05
-0.44325996920088073,-0.44325996920088073,1.0000311380567641,6.207576481970714e-05
-0.4416087128120125,-0.4416087128120125,0.9999317866043178,6.202981516590228e-05
-0.4403949193190783,-0.4403949193190783,0.9999367226033,6.20454704217665e-05
-0.43910903916839744,-0.43910903916839744,1.0001419674913097,6.203902356772189e-05
-0.43792120967264053,-0.43792120967264053,0.9999541535404314,6.212369840391309e-05
-0.43564627594896593,-0.43564627594896593,0.9999670695449142,6.20167700001057e-05
-0.4338729459384922,-0.4338729459384922,1.0000672778606206,6.210000983006717e-05
-0.43237619267310945,-0.43237619267310945,0.9999481497304181,6.205578912527252e-05
-0.4312916903742007,-0.4312916903742007,1.0000754385142738,6.197751980854543e-05
-0.43010738005395976,-0.43010738005395976,1.000069836487549,6.20379716348327e-05
-0.4285885302204406,-0.4285885302204406,1.0000481904895504,6.203911678485482e-05
-0.42745019254944056,-0.42745019254944056,0.9999498663841887,6.201250321106925e-05
-0.426387960917782,-0.426387960917782,0.9999706536200328,6.202035525693402e-05
-0.4257219254839583,-0.4257219254839583,1.0000102053256694,6.201628204454718e-05
-0.42361905780853704,-0.42361905780853704,1.0001181896825502,6.203807392500459e-05
-0.42253586902370444,-0.42253586902370444,1.0000161314559746,6.203273599478923e-05
-0.4209089673633571,-0.4209089673633571,0.9999849812988251,6.222734545317676e-05
-0.4192198462813394,-0.4192198462813394,0.999989022272097,6.201364542089197e-05
-0.41845277833781436,-0.41845277833781436,0.9999936940584361,6.198034870843366e-05
-0.4170370903622825,-0.4170370903622825,0.9999509246686518,6.20587618826343e-05
-0.41574309646093754,-0.41574309646093754,1.000035506683803,6.207193154179361e-05
-0.41331283745967085,-0.41331283745967085,0.9999669392783254,6.199935428602387e-05
-0.4116743321108515,-0.4116743321108515,0.9999376555004282,6.204821799030167e-05
-0.41019694748392793,-0.41019694748392793,0.999954076911639,6.201721762603174e-05
-0.40904888821823987,-0.40904888821823987,0.99983722084723,6.209276252453853e-05
-0.4068491974758217,-0.4068491974758217,1.000018086839631,6.203806601726447e-05
-0.4054744385997765,-0.4054744385997765,0.9999738476472988,6.202289443789111e-05
-0.4043968021243927,-0.4043968021243927,0.9999822588789122,6.202814627096211e-05
-0.40300312602194027,-0.40300312602194027,1.000094667490441,6.20753750189597e-05
-0.40190723947162044,-0.40190723947162044,0.9999379083975027,6.207339967417903e-05
-0.40061115798016544,-0.40061115798016544,0.9999247018591794,6.20662241422032e-05
-0.39924673836358127,-0.39924673836358127,0.9999513090871561,6.200390991236955e-05
-0.3981518699627486,-0.3981518699627486,1.0000242674622106,6.206316375642008e-05
-0.3976870157785015,-0.3976870157785015,0.9999314134711874,6.200998843512381e-05
-0.3962230590521358,-0.3962230590521358,1.0000116544305557,6.203623923940022e-05
-0.3953450684290146,-0.3953450684290146,0.9999533413446985,6.195014490154346e-05
-0.39389434012555286,-0.39389434012555286,0.9999723077463745,6.206115428933272e-05
-0.39225340066332137,-0.39225340066332137,0.9999481665646386,6.201805828649252e-05
-0.3910063478528173,-0.3910063478528173,0.9997335311615385,6.209302486622117e-05
-0.3896687083150027,-0.3896687083150027,0.9999780664235057,6.207962427118833e-05
-0.38768673171289264,-0.38768673171289264,1.0000154829440788,6.200083592497823e-05
-0.3866572831015219,-0.3866572831015219,1.0000299152385208,6.20059237019714e-05
-0.3854019004429574,-0.3854019004429574,0.9999852029409327,6.214245385833233e-05
-0.3836724102962762,-0.3836724102962762,0.9999537846087133,6.204425333165371e-05
-0.38246489181619836,-0.38246489181619836,0.9999728760051884,6.197930826882373e-05
-0.381096439929388,-0.381096439929388,0.9998653132785881,6.20823562324784e-05
-0.3796096430916805,-0.3796096430916805,0.9999390183605218,6.205542439706003e-05
-0.3775415611860808,-0.3775415611860808,0.9999926155515458,6.201550097038475e-05
-0.3769419765420025,-0.3769419765420025,1.0001262374058093,6.203433611762056e-05
-0.37518883024313254,-0.37518883024313254,1.0000615269353266,6.20220606044793e-05
-0.37418423519993665,-0.37418423519993665,0.9999886282721464,6.200084444444257e-05
-0.3732452010124689,-0.3732452010124689,1.0000220467502277,6.206696745761918e-05
-0.3717671136953868,-0.3717671136953868,0.9999631714687753,6.20498525611683e-05
-0.36963546944753034,-0.36963546944753034,0.9999654579197588,6.202583087747902e-05
-0.36833695342502326,-0.36833695342502326,0.9999659286849454,6.204597018516049e-05
-0.36627904446213505,-0.36627904446213505,1.0000072904457917,6.21196152792602e-05
-0.3642563099405379,-0.3642563099405379,1.000167979754784,6.199145059394715e-05
-0.3627774241642328,-0.3627774241642328,1.0000340891790278,6.205752444735679e-05
-0.36203146994812413,-0.36203146994812413,0.9999551652311579,6.204663097395395e-05
-0.3611442358553177,-0.3611442358553177,0.9998580222814386,6.201985469875637e-05
-0.3598460316672572,-0.3598460316672572,0.9999823089794362,6.205788355503951e-05
-0.3587236659383052,-0.3587236659383052,1.0000982154245937,6.204480247465791e-05
-0.35736454026191494,-0.35736454026191494,0.9999899605439444,6.208609161290814e-05
-0.3561051172451698,-0.3561051172451698,1.0000584478237382,6.202571226674942e-05
-0.35469101033377226,-0.35469101033377226,0.9998904833934414,6.20712204932424e-05
-0.3528579677469679,-0.3528579677469679,1.0000641699986719,6.208016741538947e-05
-0.3513593142895843,-0.3513593142895843,0.9999536781746208,6.200697520821529e-05
-0.3499064454488689,-0.3499064454488689,0.9999799620290842,6.217245695155999e-05
-0.34821048955636796,-0.34821048955636796,1.0001284948254168,6.206002149207087e-05
-0.3465175370700308,-0.3465175370700308,0.9999234257732074,6.195845234119134e-05
-0.3453287145748618,-0.3453287145748618,1.0000063361504092,6.20822854554064e-05
-0.34391323893360093,-0.34391323893360093,0.9999539844922873,6.206538815196869e-05
-0.3422920527606038,-0.3422920527606038,0.9999212470146922,6.204218507710746e-05
-0.34117587361251933,-0.34117587361251933,1.0000762622071222,6.205864048871614e-05
-0.3399232414536527,-0.3399232414536527,1.0001722941717441,6.199873341054907e-05
-0.3381430009700125,-0.3381430009700125,1.0000898423586928,6.206546393658385e-05
-0.33637750368361596,-0.33637750368361596,0.9999996784501765,6.210768446252439e-05
-0.3344925337965833,-0.3344925337965833,1.000035991083402,6.19949691957209e-05
-0.33341364129883005,-0.33341364129883005,1.0000497123578937,6.206575440461427e-05
-0.3321037963251001,-0.3321037963251001,0.9999874947698151,6.203235405548337e-05
-0.3307355746117537,-0.3307355746117537,1.0000230064729632,6.206269798626597e-05
-0.32887288721976804,-0.32887288721976804,1.0001418286817487,6.20756077861441e-05
-0.3282544254747336,-0.3282544254747336,1.000092088942479,6.198140053587328e-05
-0.32652584700408627,-0.32652584700408627,0.999969867272555,6.204734410526803e-05
-0.3258855096763,-0.3258855096763,0.9999491548899904,6.201262433913278e-05
-0.3246092730507371,-0.3246092730507371,1.0000965827070136,6.206761312672304e-05
-0.32298256931826475,-0.32298256931826475,0.9999672278598707,6.198849356100659e-05
-0.32111373019142775,-0.32111373019142775,0.9998969738008514,6.209942231563997e-05
-0.3197905178021756,-0.3197905178021756,0.9999770290317388,6.201588803217882e-05
-0.31823070832615485,-0.31823070832615485,1.0000949060797368,6.206894895913316e-05
-0.3163890163152246,-0.3163890163152246,1.0000795424807116,6.203203994010341e-05
-0.31558402779337485,-0.31558402779337485,0.9999095582142363,6.197226651526612e-05
-0.31470124826882967,-0.31470124826882967,0.9999996645519179,6.203254078824505e-05
-0.31369374149362556,-0.31369374149362556,1.0000313637472396,6.208032493568326e-05
-0.31244064108177555,-0.31244064108177555,1.0000000277036603,6.206641222915855e-05
-0.3107669693243224,-0.3107669693243224,1.0000351453466811,6.200101762133959e-05
-0.30982079508248717,-0.30982079508248717,0.9999980418386712,6.207856747226988e-05
-0.3083346483501373,-0.3083346483501373,1.000036881211416,6.19953922858833e-05
-0.30771289354743203,-0.30771289354743203,1.000237897930231,6.207915644892398e-05
-0.3062304409540957,-0.3062304409540957,1.0000769002379835,6.202128040781267e-05
-0.30529378419159914,-0.30529378419159914,1.0001161700524859,6.201201354131236e-05
-0.30321336242486724,-0.30321336242486724,1.0001890628619816,6.200994808814427e-05
-0.3020716188111692,-0.3020716188111692,1.0000799707026196,6.202466519930142e-05
-0.3010116533623659,-0.3010116533623659,0.9999937836007172,6.207161604830091e-05
-0.29964314930548425,-0.29964314930548425,0.9998879214069248,6.20394852626393e-05
-0.2982351217608084,-0.2982351217608084,1.0000470586838004,6.197885002765464e-05
-0.29750132621848024,-0.29750132621848024,1.0002129639252009,6.203876427321441e-05
-0.296349239074334,-0.296349239074334,1.0000327833997962,6.205582035239871e-05
-0.29430484131153206,-0.29430484131153206,0.9999729425163535,6.205962835688388e-05
-0.29262679240782746,-0.29262679240782746,1.0000699588162731,6.203763957688351e-05
-0.29182175401074345,-0.29182175401074345,0.9999353864605546,6.203074462760417e-05
-0.29001077310240364,-0.29001077310240364,1.0000909294313023,6.20706021737928e-05
-0.2889881082403008,-0.2889881082403008,1.0000345439042109,6.198966358287671e-05
-0.28810093938373027,-0.28810093938373027,0.9999552698303903,6.205200187551231e-05
-0.2860789600410499,-0.2860789600410499,0.9999903518835577,6.207726599616836e-05
-0.28451763332268454,-0.28451763332268454,1.000020420002877,6.201548050958065e-05
-0.2833402485906845,-0.2833402485906845,1.0000409435684996,6.201350956305168e-05
-0.28107770125498066,-0.28107770125498066,1.000098613252443,6.211185798859424e-05
-0.27970800263865386,-0.27970800263865386,1.0000714635569883,6.19721653514311e-05
-0.2785200264523155,-0.2785200264523155,1.0000129774053994,6.205466323419135e-05
-0.2774080980947474,-0.2774080980947474,0.9999681463272797,6.211281574579272e-05
-0.2758390758011956,-0.2758390758011956,1.0000994552350704,6.208548753513043e-05
-0.27478693129669407,-0.27478693129669407,0.9999684661139474,6.195354669429612e-05
-0.2738409356024931,-0.2738409356024931,1.0000209544137226,6.203776067921809e-05
-0.27244916118506807,-0.27244916118506807,1.000053222505611,6.19959068212503e-05
-0.27137831820582503,-0.27137831820582503,1.00006792783332,6.207462425597368e-05
-0.2698288104846142,-0.2698288104846142,1.0000878483282833,6.210788770259835e-05
-0.26871442283591024,-0.26871442283591024,1.0000365461363676,6.200778671515043e-05
-0.2671859896290698,-0.2671859896290698,0.9999802398014082,6.199687567102581e-05
-0.26631910808209797,-0.26631910808209797,1.0000339768087165,6.206699598354484e-05
-0.265157129074214,-0.265157129074214,1.0000548461607692,6.20754135789019e-05
-0.2630971414851956,-0.2630971414851956,0.9999769262345838,6.207246119865344e-05
-0.26172025348059835,-0.26172025348059835,0.9999679272290802,6.196294458868663e-05
-0.26048655683698596,-0.26048655683698596,1.000049412040276,6.209968724389695e-05
-0.2587366572130122,-0.2587366572130122,1.000004779906891,6.204939653945962e-05
-0.25676689196552616,-0.25676689196552616,0.9999619536733914,6.202893202532294e-05
-0.25558909200044583,-0.25558909200044583,1.0000427305334971,6.20245719119012e-05
-0.2540741404736764,-0.2540741404736764,1.0001054999337597,6.204428776644712e-05
-0.2527913799000089,-0.2527913799000089,1.0000189525319934,6.201780179955977e-05
-0.2517333952098852,-0.2517333952098852,0.9999401194137285,6.20102934749398e-05
-0.25031277545494957,-0.25031277545494957,0.9999920483509517,6.203509705834743e-05
-0.24904325270908884,-0.24904325270908884,0.9999571075249353,6.205574564895534e-05
-0.24795016980351647,-0.24795016980351647,1.000030091654283,6.20199353215903e-05
-0.24632438504631865,-0.24632438504631865,1.000039119011601,6.204917494800875e-05
-0.2446996732687694,-0.2446996732687694,0.9999234129840039,6.207135122498818e-05
-0.2431348926285864,-0.2431348926285864,0.9999570768520251,6.205035358671388e-05
-0.24134853820141872,-0.24134853820141872,0.9999443529753205,6.209744979375278e-05
-0.2398461563658202,-0.2398461563658202,1.0000338890526654,6.21226865993881e-05
-0.23862495395442238,-0.23862495395442238,0.9999268629105664,6.194819624113662e-05
-0.23758405683911404,-0.23758405683911404,0.999921129746323,6.211816437362942e-05
-0.2360436785631464,-0.2360436785631464,1.0000424539820465,6.203235702586047e-05
-0.23450038923765532,-0.23450038923765532,0.9999578396854556,6.200806045419755e-05
-0.23336031482467662,-0.23336031482467662,1.0000924994892983,6.208346101081678e-05
-0.23203139647957868,-0.23203139647957868,0.9999912487454757,6.19850710100822e-05
-0.2306450917836628,-0.2306450917836628,1.0000747898296627,6.203000818438825e-05
-0.22946156267425977,-0.22946156267425977,1.0000399501153474,6.207424682654481e-05
-0.22809173162095248,-0.22809173162095248,1.0000530658885722,6.219660702543229e-05
-0.2264689705640194,-0.2264689705640194,0.9999657250510617,6.20282885713681e-05
-0.2257159832821344,-0.2257159832821344,1.0001781066854505,6.200460911402271e-05
-0.22474939013336553,-0.22474939013336553,1.0001038723288354,6.208191864829897e-05
-0.2235543926130049,-0.2235543926130049,1.0000239290363357,6.199424322486344e-05
-0.22150946103793104,-0.22150946103793104,1.0001859597412666,6.207730456647075e-05
-0.22025503616168862,-0.22025503616168862,0.9999159663983951,6.20073223016555e-05
-0.21855920787056676,-0.21855920787056676,1.000077252746148,6.194919760697635e-05
-0.21782720690389396,-0.21782720690389396,0.9999759239870745,6.206545795954967e-05
-0.21670447904471074,-0.21670447904471074,0.999969168896769,6.206511220750889e-05
-0.21487192641943692,-0.21487192641943692,1.0000741343197526,6.202762685503974e-05
-0.21287877754803047,-0.21287877754803047,0.9999306646658004,6.203834779464927e-05
-0.2119750146230217,-0.2119750146230217,0.9999824261884018,6.205131536372852e-05
-0.21043290841771523,-0.21043290841771523,0.9999880101605761,6.203139765431754e-05
-0.20973342636571032,-0.20973342636571032,1.000008777807826,6.210831038409245e-05
-0.208068324951455,-0.208068324951455,1.000041752535172,6.204689087327718e-05
-0.20602169031481027,-0.20602169031481027,1.000040137758906,6.205694647007577e-05
-0.20513540360407206,-0.20513540360407206,0.9999084230075892,6.202647137728578e-05
-0.2039036423971993,-0.2039036423971993,1.000070234596051,6.206737205761969e-05
-0.20263941243320005,-0.20263941243320005,1.0000586720774873,6.194855783333948e-05
-0.20160843437770382,-0.20160843437770382,0.99992332331884,6.205617369671974e-05
-0.19960375755326823,-0.19960375755326823,0.9999935524380902,6.202232413441216e-05
-0.1984783423395129,-0.1984783423395129,1.000121895435931,6.205561389345123e-05
-0.1972832456449396,-0.1972832456449396,0.9998937701032113,6.20699443795706e-05
-0.19495597233326406,-0.19495597233326406,1.0000713474382852,6.203850965450888e-05
-0.1934679165991838,-0.1934679165991838,1.0000635803187188,6.207443598115876e-05
-0.19189113202737645,-0.19189113202737645,0.9999537626715368,6.213604005217749e-05
-0.19023560510395326,-0.19023560510395326,1.000020415277048,6.201355788011547e-05
-0.1896526530108531,-0.1896526530108531,1.0000111711661712,6.199212372646887e-05
-0.18878817509394138,-0.18878817509394138,0.9999847545691191,6.208416205908119e-05
-0.1875173404740053,-0.1875173404740053,1.0000304253745154,6.20258756563451e-05
-0.18568436738569288,-0.18568436738569288,0.9999407174825764,6.205356028163697e-05
-0.1843788675905671,-0.1843788675905671,1.0000810090261956,6.202297171961516e-05
-0.18273710711946478,-0.18273710711946478,1.000060756449763,6.199280497625202e-05
-0.18152834341744892,-0.18152834341744892,1.0000622700169228,6.203219460649622e-05
-0.18025169135216856,-0.18025169135216856,0.9999411335121658,6.210516816762699e-05
-0.17851982189895352,-0.17851982189895352,0.9999253832139047,6.200329039198129e-05
-0.17685808468813774,-0.17685808468813774,1.0000288868041327,6.202367714684306e-05
-0.1762499025964644,-0.1762499025964644,1.000001797485302,6.208527184104802e-05
-0.17407222742185696,-0.17407222742185696,1.0000123036549244,6.206427573858335e-05
-0.17190190958936,-0.17190190958936,1.0000119565046703,6.204012439139162e-05
-0.17028211605502291,-0.17028211605502291,0.9999988773440567,6.205939592454105e-05
-0.16922976470086723,-0.16922976470086723,0.999975308935843,6.204922322211115e-05
-0.16845383935142308,-0.16845383935142308,1.0001275792165323,6.204104820394978e-05
-0.16740385783487,-0.16740385783487,0.9999405690561309,6.2018973409642e-05
-0.16619877959165025,-0.16619877959165025,1.0001094989307617,6.20053229411276e-05
-0.16524598671821877,-0.16524598671821877,1.000046181862459,6.203502569558607e-05
