time,time,flux,flux_err
-0.4985380041798635,-0.4985380041798635,0.9980844684149796,0.005298819984955487
-0.4961826973289135,-0.4961826973289135,0.9989028960278936,0.004017002046145018
-0.49415985259911394,-0.49415985259911394,0.9961809765324053,0.0035688255150302327
-0.493153122284275,-0.493153122284275,1.002024535820403,0.0032612792401493216
-0.4919469930573541,-0.4919469930573541,0.9977867492842073,0.0032413328155530773
-0.488796035724954,-0.488796035724954,1.0054839784546032,0.003250774195440763
-0.4868599821296812,-0.4868599821296812,0.9974776039991381,0.0032644403084542625
-0.48585132450898527,-0.48585132450898527,0.9896023807355812,0.009165160012120163
-0.48475580473968877,-0.48475580473968877,0.9852124340465782,0.005351012508650995
-0.4840149652387481,-0.4840149652387481,1.003815781313333,0.003251783535407444
-0.4810737510182662,-0.4810737510182662,1.0013811447721366,0.003248903747558441
-0.47999190861883106,-0.47999190861883106,1.0030712514511173,0.008824968523070895
-0.4783394096819393,-0.4783394096819393,1.001220949532847,0.0032781690838245385
-0.47698884907440514,-0.47698884907440514,1.0011110809655908,0.003243587776842318
-0.47595739527823755,-0.47595739527823755,0.9992161121270848,0.0032686353042049436
-0.4749848780898901,-0.4749848780898901,0.9954594089073063,0.003255217927937018
-0.47335233037301805,-0.47335233037301805,1.0072674122908842,0.006651376452110345
-0.4714982378100103,-0.4714982378100103,0.9985627319601331,0.00338538301845771
-0.46964743748176263,-0.46964743748176263,1.0031098101627773,0.0032621846766439262
-0.46833929115819045,-0.46833929115819045,1.0012875702229684,0.003324929748119146
-0.467424991644657,-0.467424991644657,0.997395463758002,0.0032777054777192805
-0.4666274154733401,-0.4666274154733401,1.002055906494982,0.005693992397715159
-0.4638096418522764,-0.4638096418522764,1.000315416473283,0.0032528480121347472
-0.4612274217324739,-0.4612274217324739,1.0007823032476102,0.008221231215057679
-0.45992629137690527,-0.45992629137690527,0.9999034401696312,0.003973357496347563
-0.4589209273814049,-0.4589209273814049,0.9978876560441604,0.0032665485349193794
-0.4571893988904776,-0.4571893988904776,1.0024134638100968,0.0032569995523643058
-0.45431342356168897,-0.45431342356168897,1.001388666802192,0.00325881195205863
-0.45243578076406266,-0.45243578076406266,1.001646214170742,0.0032484708579785956
-0.45110404574734275,-0.45110404574734275,0.997137637014918,0.006333436845546679
-0.4504003913018096,-0.4504003913018096,0.998379037371194,0.0032589556867812022
-0.4494387424274464,-0.4494387424274464,0.9982766876797055,0.0032609541957409937
-0.44684649966657164,-0.44684649966657164,1.0024468574667078,0.0032507754938336277
-0.445120447674708,-0.445120447674708,1.0153779761822526,0.009505675974559884
-0.4439512877477682,-0.4439512877477682,1.003302416677554,0.0032346876130468563
-0.4424524365378602,-0.4424524365378602,1.0019177712251708,0.0032764691844347415
-0.4415739424424828,-0.4415739424424828,0.9950368526531861,0.0032575636457450423
-0.4405055642782827,-0.4405055642782827,1.0079440150101842,0.005725163985385619
-0.43850373990135266,-0.43850373990135266,1.0019961657428207,0.003280099826540172
-0.43638703626565983,-0.43638703626565983,1.0047830938392355,0.0035850714338404636
-0.43437229265327915,-0.43437229265327915,0.999545248538974,0.0034163068887705108
-0.43336438515470943,-0.43336438515470943,1.0017284324849431,0.0032673898109351236
-0.4321630511825788,-0.4321630511825788,0.9956915985904601,0.006866095479610245
-0.42878548091466656,-0.42878548091466656,1.006549259650506,0.003263396940616435
-0.42687837530247635,-0.42687837530247635,0.999081563587902,0.0032511460545896083
-0.4254113600065466,-0.4254113600065466,0.9987592612578698,0.0045874184464327564
-0.42450940232738504,-0.42450940232738504,1.004605867525013,0.0032475757309118536
-0.42196741878724425,-0.42196741878724425,1.0024956228322488,0.003233005991315424
-0.41999598009788314,-0.41999598009788314,1.001880240600188,0.0032750826797486774
-0.4183947086872649,-0.4183947086872649,1.0010176345315478,0.0032667565299315457
-0.41706198752945056,-0.41706198752945056,1.0022134407405896,0.003251130488606327
-0.4162900070063188,-0.4162900070063188,1.0073665401444303,0.00742274148777413
-0.41545812820550054,-0.41545812820550054,1.0008870086475792,0.003258507060953078
-0.41415497656635125,-0.41415497656635125,0.9881123209593806,0.008151792355600648
-0.4121218563785078,-0.4121218563785078,0.9975960456263036,0.0033009601050444795
-0.41000308753791614,-0.41000308753791614,0.998271775757404,0.0032490919006525655
-0.40881878442378367,-0.40881878442378367,1.0039112033569209,0.0032739723361536687
-0.40780859796432195,-0.40780859796432195,1.0017552819218167,0.003277469357106493
-0.4071031713472621,-0.4071031713472621,1.001498615524098,0.0032540556977140754
-0.4056721451415797,-0.4056721451415797,0.9991124333869781,0.006173498594828865
-0.4030535187819623,-0.4030535187819623,0.9992857874782967,0.004082016286547923
-0.40082650847543844,-0.40082650847543844,1.0024891321311802,0.003224960236505773
-0.39941307141270954,-0.39941307141270954,0.9989031884479779,0.0036171674170168257
-0.39857130075106395,-0.39857130075106395,1.00161349631492,0.003256416092169348
-0.3959490838460624,-0.3959490838460624,0.999394107944811,0.003251984741641627
-0.39322371787202426,-0.39322371787202426,1.0005000815165774,0.003253394825104348
-0.39206656624664904,-0.39206656624664904,0.9955742781762545,0.009286513289026556
-0.39090426175389437,-0.39090426175389437,0.9994872690545311,0.005448007394674417
-0.390143307895778,-0.390143307895778,1.0022854581440332,0.0032537093384256187
-0.38763134043256287,-0.38763134043256287,1.000954184905246,0.003255051614128716
-0.3861270443216199,-0.3861270443216199,0.9985998963362605,0.0032687719051777307
-0.3846650125888118,-0.3846650125888118,1.0085378178672337,0.009204267179787552
-0.3832658057785011,-0.3832658057785011,1.0027129834271664,0.0032492133558518154
-0.38208680188981814,-0.38208680188981814,1.00021945015777,0.0032623395490634275
-0.38122456446217257,-0.38122456446217257,0.9980724121708082,0.003257687706348535
-0.3796554228218156,-0.3796554228218156,0.9915173371473347,0.006579042241685479
-0.377478014157532,-0.377478014157532,0.9968989772864205,0.003400659953609982
-0.37526372067586633,-0.37526372067586633,1.0021727569598078,0.0032355660000239054
-0.3738589922504616,-0.3738589922504616,0.9995884382280439,0.0033596609534795054
-0.3732252854511898,-0.3732252854511898,1.0007306544558285,0.004277063531012504
-0.3723332475878124,-0.3723332475878124,0.9990655779327211,0.005795679151663394
-0.36913638568512397,-0.36913638568512397,1.0001864987092977,0.0032579608360000074
-0.3672011330469104,-0.3672011330469104,1.0019826570184347,0.0032573469942207287
-0.36608151600157723,-0.36608151600157723,1.0015570861667678,0.004025114096946199
-0.36505567607528067,-0.36505567607528067,1.0041662507535183,0.003258950990868998
-0.36386085172416643,-0.36386085172416643,1.0055320650236768,0.0032655243092236186
-0.3609632348154264,-0.3609632348154264,0.9984699944935759,0.003251826992839582
-0.3594092195125995,-0.3594092195125995,0.9981890849181301,0.0032507056875876426
-0.35786200903821735,-0.35786200903821735,1.001968478110531,0.003241023916152698
-0.35678790468009536,-0.35678790468009536,1.00126760805505,0.006448317336048222
-0.3560420226531278,-0.3560420226531278,1.0015117806775236,0.0032456234073511073
-0.3545932293003716,-0.3545932293003716,1.002047364907995,0.003265949438542525
-0.3523230319304275,-0.3523230319304275,1.0009770371369922,0.0032532974355136074
-0.3507686512122746,-0.3507686512122746,0.9973499285001903,0.009565397538848327
-0.3496668920910452,-0.3496668920910452,0.9956273834321575,0.0032391267125639585
-0.34820653720453265,-0.34820653720453265,0.9992941111156393,0.00327796758645319
-0.34737129229470154,-0.34737129229470154,1.000568081939974,0.00326372337175381
-0.3462468333404104,-0.3462468333404104,1.0066160716193164,0.005653646686641379
-0.3442541147393058,-0.3442541147393058,1.0038570602953416,0.00830610848911013
-0.34236659800662894,-0.34236659800662894,0.9963392788528092,0.003615625834595953
-0.34035104312351905,-0.34035104312351905,1.001827247860082,0.0034284716460732424
-0.33934325188092773,-0.33934325188092773,0.9998176668268577,0.0032671758866862598
-0.33814161377595153,-0.33814161377595153,1.00448644517324,0.006970953536084198
-0.3347652527256287,-0.3347652527256287,1.00209030083128,0.003263235341962944
-0.332857283642079,-0.332857283642079,1.0033832797058746,0.0032510531419154345
-0.3313898073552991,-0.3313898073552991,1.0076190975455848,0.004656130716881117
-0.3304881422081962,-0.3304881422081962,0.9998078617922077,0.003248926716570883
-0.3279471994261257,-0.3279471994261257,0.9955577624581903,0.003233942359193752
-0.32623172626190355,-0.32623172626190355,1.0031472175379954,0.003260914835271645
-0.32452628006794837,-0.32452628006794837,1.0044075090864957,0.0032854974640469927
-0.32331796746875624,-0.32331796746875624,0.9998889588678764,0.0032478210341639695
-0.3223931056294532,-0.3223931056294532,1.0009925634291847,0.007507218908716441
-0.32167430870467795,-0.32167430870467795,0.9999218220168228,0.003251739204974624
-0.3204113561165286,-0.3204113561165286,1.0078524087619225,0.00791541194484055
-0.31843358448531944,-0.31843358448531944,0.9985132259222371,0.0032431383683340564
-0.316380148063763,-0.316380148063763,0.9995771916053926,0.0033116373551502097
-0.31510702486048103,-0.31510702486048103,0.9978360527426668,0.0032798275588259507
-0.31394609695707915,-0.31394609695707915,1.00381312267403,0.00326869259296627
-0.31322948733286465,-0.31322948733286465,1.0008566883969938,0.003270622480872065
-0.3122028976336878,-0.3122028976336878,1.0005137962725228,0.006188973171645443
-0.30945863800588996,-0.30945863800588996,1.004939008151472,0.004140337981791911
-0.30714934803763755,-0.30714934803763755,0.9978961332419584,0.003235796460504245
-0.3055767302896129,-0.3055767302896129,0.9990967084077192,0.003642512576942493
-0.30480053160863463,-0.30480053160863463,1.0016452413315347,0.0032653687055111693
-0.3025536915461998,-0.3025536915461998,1.0027380258092944,0.00323978958577766
-0.29965739902181665,-0.29965739902181665,0.9990146234129522,0.00325918471392192
-0.2982655632316892,-0.2982655632316892,1.00493385345762,0.009402891790083358
-0.29706248735674307,-0.29706248735674307,1.0069920793465155,0.005541256530034238
-0.29625437923969,-0.29625437923969,1.005326203764,0.003252369756869862
-0.2942961973079946,-0.2942961973079946,1.0039908528429797,0.0032560218346687417
-0.29220697552736963,-0.29220697552736963,1.002523810875963,0.003260004947969799
-0.29064392420623336,-0.29064392420623336,1.0130381344318453,0.009253173432119668
-0.28924450682316094,-0.28924450682316094,1.0006461193628573,0.0032480351324796278
-0.2880654305583448,-0.2880654305583448,1.0013154878589432,0.0032637586350741875
-0.28720333989913344,-0.28720333989913344,1.0035456812400905,0.0032607665872754882
-0.2856339745740115,-0.2856339745740115,1.0112091512689203,0.006535441319524889
-0.28345779126611886,-0.28345779126611886,1.0059433224798533,0.0034160191177116162
-0.28124288624385374,-0.28124288624385374,0.9953772380967175,0.0032340306307570405
-0.27983774448366605,-0.27983774448366605,1.004076366120436,0.003367962092858826
-0.2791104171257757,-0.2791104171257757,1.0021784077310152,0.0032762764180902524
-0.2769890481795301,-0.2769890481795301,1.0052106142973338,0.005899959087838138
-0.2740155052975751,-0.2740155052975751,1.0061801955024001,0.003257500622904472
-0.27260110584829816,-0.27260110584829816,1.0077416408091482,0.003235395900479899
-0.27134141715214355,-0.27134141715214355,1.0011894629025928,0.004092306809678796
-0.2705697307770606,-0.2705697307770606,1.0039697918878647,0.00326838618983434
-0.2678688345964474,-0.2678688345964474,0.9953246456908615,0.0032470889135532547
-0.2658710782212438,-0.2658710782212438,0.9977926606434862,0.00325122985931433
-0.26412763225016533,-0.26412763225016533,1.003050040074445,0.003253739976004948
-0.26289276947718465,-0.26289276947718465,1.0000953950415823,0.0065421974272147024
-0.2622045106756559,-0.2622045106756559,1.0035759975155218,0.0032576508769959185
-0.26110669836125455,-0.26110669836125455,0.9978197558496534,0.003266764753327688
-0.25832451659298383,-0.25832451659298383,1.004303127067478,0.003252496118290954
-0.2570718547278375,-0.2570718547278375,1.0068903277138082,0.009562162691611302
-0.2556455230274878,-0.2556455230274878,0.9990720466983023,0.0032396138638156368
-0.254185314404458,-0.254185314404458,1.001468362031479,0.0032778347763401687
-0.2533503837170429,-0.2533503837170429,1.0007020317778594,0.0032666218229044216
-0.2522247659806453,-0.2522247659806453,1.0035454606778211,0.00558302059875935
-0.2504617857011908,-0.2504617857011908,1.0041109185875743,0.0032765224822174067
-0.24864126235843287,-0.24864126235843287,1.0011112395221877,0.0036639337247355167
-0.24664289734064368,-0.24664289734064368,1.0043826865481855,0.0034363903666659707
-0.2454793036027695,-0.2454793036027695,0.998417974555655,0.0032562194847492202
-0.2444497482953011,-0.2444497482953011,0.9992378750913966,0.007169205945746016
-0.24202832268856583,-0.24202832268856583,1.014760073257094,0.00841985720756806
-0.23942005419085036,-0.23942005419085036,1.001147212959086,0.003260522903024911
-0.23796870180231053,-0.23796870180231053,0.9922802788086628,0.004703109464996889
-0.23680182638636324,-0.23680182638636324,1.0017748442541217,0.003262108003345801
-0.2353125935245771,-0.2353125935245771,0.9984823701324139,0.0032519665531876617
-0.23259548465139232,-0.23259548465139232,1.0023719833342013,0.0032490363090810805
-0.2315126641813549,-0.2315126641813549,0.9949363662331363,0.0032722144289704922
-0.23009456940781092,-0.23009456940781092,1.0015320026431622,0.0032607720750084555
-0.22882250834154547,-0.22882250834154547,1.0000038106897844,0.003266637532006864
-0.2281240974640241,-0.2281240974640241,1.0095921967120398,0.00758300500220561
-0.22715770279901334,-0.22715770279901334,0.9968853266366724,0.0032541734437235674
-0.2254807581914065,-0.2254807581914065,1.0120325724797814,0.007707260491003945
-0.22315124605884193,-0.22315124605884193,1.0004073873927912,0.003315765239419738
-0.22168646311984047,-0.22168646311984047,1.0002349391906462,0.003248529872790739
-0.2205122016115638,-0.2205122016115638,1.0022919445346559,0.003282991708381771
-0.21959564026692532,-0.21959564026692532,1.0030497105440548,0.003280255618645501
-0.2189113742017071,-0.2189113742017071,1.0055726043241007,0.004998130667987723
-0.21705317995365475,-0.21705317995365475,0.9909295395706351,0.004923102611180691
-0.21470877206520528,-0.21470877206520528,1.0072457114344746,0.004201560225035124
-0.2127848991236533,-0.2127848991236533,1.0011974478563015,0.003229311534755621
-0.21137063212518115,-0.21137063212518115,1.0028752032592565,0.0036764590343655477
-0.21052805371728028,-0.21052805371728028,1.0009951407222795,0.003260013688180182
-0.20790798969974275,-0.20790798969974275,1.0009626372389402,0.00324819681976116
-0.2051807128766086,-0.2051807128766086,0.9995932763279548,0.0032573722213404778
-0.20402382187457987,-0.20402382187457987,0.9955528513459114,0.009466744718544504
-0.2028625426981307,-0.2028625426981307,0.9950087913131677,0.005614287534896357
-0.20210064138882444,-0.20210064138882444,1.0036019630147648,0.0032566071823999336
-0.19959044979477766,-0.19959044979477766,1.0026111524947545,0.003257894459056296
-0.19802154172430164,-0.19802154172430164,1.009562202535364,0.009219521816384841
-0.19627714670568822,-0.19627714670568822,1.0015921464548645,0.0032704714586694987
-0.19492329813874676,-0.19492329813874676,1.0013944944102167,0.003248887747144131
-0.19389416870981221,-0.19389416870981221,0.9990583594916783,0.003271988276070768
-0.19292009253185824,-0.19292009253185824,1.0029133673724344,0.0032583817446508396
-0.19116291222453582,-0.19116291222453582,1.005048667773373,0.006448380519721006
-0.1890007118388894,-0.1890007118388894,1.0069349105522405,0.003422447954481155
-0.18685379807066055,-0.18685379807066055,1.0027123523322792,0.0033491648040226522
-0.18569137824888457,-0.18569137824888457,1.0006979760392194,0.003267501370110123
-0.18487230385435396,-0.18487230385435396,1.007927938150616,0.0060100612597295214
-0.18233969447610435,-0.18233969447610435,1.0017519471607588,0.003269066761507216
-0.17955634894533432,-0.17955634894533432,0.9989722168148472,0.003254581401838804
-0.17835042278311447,-0.17835042278311447,0.9975843685788112,0.0032298062757215177
-0.1771373041672632,-0.1771373041672632,1.0007091097621532,0.004147303749166688
-0.1761943611985771,-0.1761943611985771,1.003967177960147,0.0032608768978439435
-0.17337988926519757,-0.17337988926519757,0.9997143099141137,0.0032471670095667675
-0.17140601770661307,-0.17140601770661307,1.0004488305395554,0.0032588170418289715
-0.16981908253219444,-0.16981908253219444,0.9985053073650034,0.00324214732117597
-0.16874536073519267,-0.16874536073519267,0.9996142420534755,0.006652813427231787
-0.16799956823379034,-0.16799956823379034,1.0045300070082657,0.003244900893697969
-0.16651140502508496,-0.16651140502508496,1.0000248876212823,0.003279250288161075
-0.16401965726763593,-0.16401965726763593,0.9953733866971965,0.0032505426637309187
-0.16239093345429864,-0.16239093345429864,0.9931604301026553,0.009538982411707886
-0.1609890136656759,-0.1609890136656759,1.005569955245101,0.003253473373509212
-0.15996736698944006,-0.15996736698944006,1.010076338298307,0.003285144824421752
-0.15918476735969306,-0.15918476735969306,1.003991142680943,0.00325917963857357
-0.1578169418266043,-0.1578169418266043,0.9972059667766459,0.005523424295847255
-0.15563942195658456,-0.15563942195658456,1.0002009942959456,0.003694855243876394
-0.1533344339703035,-0.1533344339703035,1.0008847889224968,0.0032364505253287463
-0.15176935851268353,-0.15176935851268353,0.9992966721047575,0.003476234688839996
-0.15098950898318436,-0.15098950898318436,1.004997403977941,0.0032703391774147883
-0.1493429958449269,-0.1493429958449269,1.0095473072088623,0.007361078208587439
-0.14628789200651227,-0.14628789200651227,1.0003545183236064,0.003266988440005148
-0.14455158256023423,-0.14455158256023423,1.0033724907710084,0.0032396220362121498
-0.14325191613752394,-0.14325191613752394,1.0099953293668262,0.004807704373253939
-0.1424456267581263,-0.1424456267581263,1.002568200612035,0.0032520960122384744
-0.13990676398243523,-0.13990676398243523,1.0016408279057232,0.003240212809481799
-0.13818754363019253,-0.13818754363019253,1.0037916717039506,0.003271067679506279
-0.13683374941683724,-0.13683374941683724,1.008590251592239,0.008627149472118307
-0.13551516819934478,-0.13551516819934478,1.00305298555144,0.003250783188725264
-0.13451143863567266,-0.13451143863567266,1.0162623694799597,0.007640988531512054
-0.1337688364488713,-0.1337688364488713,1.0010745160528434,0.0032501681978301215
-0.13266619558271486,-0.13266619558271486,1.0113370171101081,0.0075333239525600575
-0.13095170328306266,-0.13095170328306266,1.005950029127169,0.003264025864353968
-0.12870627236115978,-0.12870627236115978,1.0014915788016054,0.003327869996679761
-0.12706480900451425,-0.12706480900451425,1.0007624086013913,0.0032902152804405427
-0.12590362791233928,-0.12590362791233928,1.001190295209686,0.0032728574286808886
-0.1251869242194516,-0.1251869242194516,0.9997239138402657,0.003272201476346275
-0.12415979409561259,-0.12415979409561259,1.0070886468682927,0.006233790771570214
-0.12141847214516019,-0.12141847214516019,1.0015647469302187,0.004269735080648001
-0.11910823446814903,-0.11910823446814903,0.9968293278461051,0.0032388206858338492
-0.11753393668404896,-0.11753393668404896,0.9982537251872288,0.0037008170131756406
-0.11675855356224929,-0.11675855356224929,1.006746949337258,0.0032708968057154016
-0.11509863637256786,-0.11509863637256786,0.9999165768584231,0.0032311821836231705
-0.1120585853648663,-0.1120585853648663,1.0046194349414497,0.00325412838719871
-0.11031832723674598,-0.11031832723674598,1.0000750930021993,0.0032520294271738068
