time,time,flux,flux_err
-0.49788737878164585,-0.49788737878164585,1.0000067317940131,0.00029892334520406925
-0.4956745033802387,-0.4956745033802387,0.9998537521895837,0.0002987647939384689
-0.49374060517463175,-0.49374060517463175,1.0002805716842433,0.0003070533104293684
-0.49180423392972444,-0.49180423392972444,1.0002997119578876,0.0002760513238287521
-0.49086121089203516,-0.49086121089203516,0.9998132582097139,0.00027283005423411747
-0.4903778904044884,-0.4903778904044884,0.99990751193516,0.00027292096245662526
-0.4891534379552468,-0.4891534379552468,1.0003559842118732,0.000272621720506846
-0.48711965624679576,-0.48711965624679576,1.0002451295709753,0.00027285859901325936
-0.48449157731956805,-0.48449157731956805,0.9998628020130361,0.00027269077753837594
-0.48357924851588907,-0.48357924851588907,0.9997789857824113,0.00027802803991245766
-0.48185807046393164,-0.48185807046393164,1.0001673426902653,0.00030370942527812623
-0.4793928769766353,-0.4793928769766353,0.9999809685533793,0.00027287799997885063
-0.4787277831099345,-0.4787277831099345,1.0001275520381712,0.00027286761089807354
-0.4776549430025625,-0.4776549430025625,0.9996557952129871,0.0002725569031293181
-0.47657001872139515,-0.47657001872139515,0.9993662808326305,0.00029668775923286566
-0.47389497067924824,-0.47389497067924824,1.0000231410707556,0.0002728211748424336
-0.47215149806288537,-0.47215149806288537,0.9997215611806862,0.00027271836674493046
-0.4709027613091166,-0.4709027613091166,1.0002003923668863,0.0002748883299069772
-0.46815480945806487,-0.46815480945806487,0.9995974733080221,0.00027401446426900887
-0.4670734939572867,-0.4670734939572867,0.9999455341672467,0.00027290265043766786
-0.466199442827201,-0.466199442827201,1.0005368609839274,0.0003184235372666176
-0.4647463774948847,-0.4647463774948847,0.999744062341762,0.00027271886823798224
-0.4625026091307518,-0.4625026091307518,0.9998248951883275,0.0002871763630208597
-0.46071809420536736,-0.46071809420536736,0.9999461727008772,0.00027276278420020246
-0.45940146253997227,-0.45940146253997227,0.9998688383590671,0.0002736569379162766
-0.45758891227742426,-0.45758891227742426,0.9997908548550656,0.0002730210994804711
-0.455565128858143,-0.455565128858143,1.0001204436862785,0.00027285440608663643
-0.45439742771413877,-0.45439742771413877,0.9997018008263471,0.00031878568050238033
-0.45294809055048973,-0.45294809055048973,0.99989572188075,0.00027264890905920834
-0.45093796925793866,-0.45093796925793866,1.0001050337515989,0.00029226875849063807
-0.4492548853420885,-0.4492548853420885,0.9998818767680261,0.00028119830764287897
-0.44829017169831786,-0.44829017169831786,0.9997338668858131,0.0002728330099451425
-0.4472000647598179,-0.4472000647598179,1.0003962248568619,0.0003107117747217753
-0.4459483569225995,-0.4459483569225995,1.0001667565190098,0.00027300129541706146
-0.443552208658366,-0.443552208658366,0.9996328058652135,0.0003153214208108369
-0.4423136064695427,-0.4423136064695427,1.00002398637755,0.00027265842017088577
-0.44081076516449685,-0.44081076516449685,1.0001060665160373,0.00027268894721805095
-0.43851591776910936,-0.43851591776910936,1.0002248096487245,0.0002886498145201455
-0.43703579780994917,-0.43703579780994917,1.0003210461738543,0.0002728777363900826
-0.436493460132624,-0.436493460132624,0.9998299295083009,0.00027283898672546714
-0.43518162878463046,-0.43518162878463046,1.0003740783313766,0.0002726281042371783
-0.4331522528867936,-0.4331522528867936,1.0001653481961645,0.00027286237332761114
-0.43066099082352594,-0.43066099082352594,0.9997837752420992,0.0002727202645415569
-0.429652697367419,-0.429652697367419,0.9998611911972259,0.0002727789668931068
-0.4280919143406209,-0.4280919143406209,0.9996544208382174,0.0003058780075154481
-0.42586783264559924,-0.42586783264559924,1.0001663602939082,0.0002751267571083179
-0.4249954730432364,-0.4249954730432364,0.9999875269352465,0.0002728990847262328
-0.4242315378884086,-0.4242315378884086,1.0004822976241967,0.000272808078003462
-0.422930509816797,-0.422930509816797,1.0004082239226768,0.00027272093840981167
-0.4201635253688437,-0.4201635253688437,1.000095615804666,0.00027289877454518297
-0.4184396314958576,-0.4184396314958576,0.9998524688141645,0.0002727034893079814
-0.41755188151582845,-0.41755188151582845,0.9998100321240102,0.00027585483949011454
-0.41495839023846204,-0.41495839023846204,0.9999398086036042,0.000274351037200995
-0.4132252303417772,-0.4132252303417772,1.0003118665887658,0.0002728979407390482
-0.4124338018940762,-0.4124338018940762,1.0003364508068695,0.00027270261583164023
-0.4111892599685234,-0.4111892599685234,1.000013565572134,0.0002727133306651356
-0.4092035485940869,-0.4092035485940869,1.0000614764281806,0.0002727719381256717
-0.4070530300596147,-0.4070530300596147,1.0001770394924738,0.0002902093848076767
-0.40577045762183844,-0.40577045762183844,1.0004882844466974,0.0002743259917396577
-0.4044853565239464,-0.4044853565239464,0.9999765225146892,0.00027267148097903215
-0.40185466662660474,-0.40185466662660474,0.9994406511148529,0.00027338729439054546
-0.4010133519550436,-0.4010133519550436,1.0001028097961897,0.00031845463350617354
-0.3998983743178542,-0.3998983743178542,1.0001419603968906,0.0002726071641922959
-0.39824948132591087,-0.39824948132591087,1.000300296205445,0.0002727604729430238
-0.3959334695828147,-0.3959334695828147,1.0000810205581279,0.0002834173600862578
-0.39450554686191025,-0.39450554686191025,1.0000109704200173,0.0002728017821183657
-0.3933132260368438,-0.3933132260368438,1.0004647524558805,0.00027307629665975993
-0.39143921515351393,-0.39143921515351393,0.9999500901799363,0.000273010352426044
-0.3892058530866052,-0.3892058530866052,1.0004769273950198,0.0003176786745136188
-0.38779101900872776,-0.38779101900872776,1.000046259790427,0.00027271187954153663
-0.38601873050938595,-0.38601873050938595,1.0000663884834193,0.00028701481174751923
-0.3837100526696304,-0.3837100526696304,0.9999406702903118,0.0002786257733313148
-0.382687510640244,-0.382687510640244,1.000165284892735,0.0002728645434022407
-0.381732947632554,-0.381732947632554,1.0005389462924428,0.00031372968618767304
-0.3805316788435448,-0.3805316788435448,0.9998933717980165,0.00027282552237347345
-0.3777842898853123,-0.3777842898853123,1.000429146123897,0.00027289611300488085
-0.3762560847972054,-0.3762560847972054,0.9999799666675301,0.0002726746849069178
-0.3751941934635397,-0.3751941934635397,1.000023917118495,0.0003091784363371284
-0.3731707716637175,-0.3731707716637175,0.9997762726944524,0.0002838371941353569
-0.3714572682409198,-0.3714572682409198,0.9998192232190712,0.000272836974558793
-0.3709129780821968,-0.3709129780821968,1.0004607109162222,0.0002730446478251118
-0.36999224570026856,-0.36999224570026856,1.0000403914019675,0.0002725456052246883
-0.368583405976824,-0.368583405976824,1.0000801509978674,0.0002728328619262495
-0.3657825754213263,-0.3657825754213263,1.0002086787733142,0.00027817759517704486
-0.36425290764018425,-0.36425290764018425,1.0003347647982364,0.0002728354274166651
-0.3633782352539129,-0.3633782352539129,0.9997393385248298,0.00030475929568992045
-0.3610470634928788,-0.3610470634928788,0.9999154400825961,0.00027417020199595226
-0.3593539695168147,-0.3593539695168147,1.0000128395640817,0.000272869769004673
-0.35865809759561673,-0.35865809759561673,1.0004116336356224,0.00027281719587065597
-0.35741348177107285,-0.35741348177107285,1.0005424210297102,0.00027276032960393804
-0.35620256895344937,-0.35620256895344937,0.9998861339803865,0.0002728684239991884
-0.3534258901825524,-0.3534258901825524,1.0002422960090207,0.0002934173057349126
-0.3520327325080871,-0.3520327325080871,1.0000899856423415,0.0002748329937077788
-0.3502460017814883,-0.3502460017814883,1.0002684237637562,0.0002736046650460845
-0.3476195138369803,-0.3476195138369803,1.0005178558943,0.000272934026227875
-0.3470502287440468,-0.3470502287440468,1.0008997483710815,0.000318618189600923
-0.3459378453408135,-0.3459378453408135,1.0000840309527803,0.0002726778094657159
-0.34427187962719474,-0.34427187962719474,0.9999738214869348,0.0002727687543065992
-0.3419722239370458,-0.3419722239370458,0.9998732077167046,0.0002859460678116195
-0.3405366780294571,-0.3405366780294571,1.0001049814836933,0.000272818138886649
-0.3393547200321336,-0.3393547200321336,0.9999813256579365,0.0002734465459602516
-0.3371323425817536,-0.3371323425817536,0.9996502253597239,0.0002730270047870319
-0.33542979001795176,-0.33542979001795176,1.0000146226792788,0.00031887678231168847
-0.33412602493917803,-0.33412602493917803,0.9999919386458886,0.0002726481518042992
-0.3325035336616565,-0.3325035336616565,1.0000128645838973,0.00027270282011113026
-0.3307850654964568,-0.3307850654964568,1.0001324675786396,0.00029768056797165737
-0.3292776685761055,-0.3292776685761055,1.000040566170301,0.000272802426419458
-0.32840658912464277,-0.32840658912464277,0.9999563670471188,0.0002728185120621601
-0.32698485354485457,-0.32698485354485457,0.9998385324715807,0.00027263834511788204
-0.32515290357841875,-0.32515290357841875,1.000572155987313,0.0002730996160883292
-0.32330617839761544,-0.32330617839761544,1.0001068399472384,0.0002726986804032014
-0.3218281745139393,-0.3218281745139393,1.0002628902403767,0.0002728003807992452
-0.31959872753359375,-0.31959872753359375,0.9999322377266633,0.0002867793329709413
-0.3177147437178064,-0.3177147437178064,1.0002163315558126,0.00027278303328578474
-0.3170314868504647,-0.3170314868504647,0.9994901152220489,0.0002728953867913105
-0.31603415918216343,-0.31603415918216343,1.0002237027786451,0.0002725547440808533
-0.31460647639905803,-0.31460647639905803,1.0003745445797905,0.0002729148028115185
-0.3114875228566234,-0.3114875228566234,1.00055798247629,0.00027279778834156355
-0.31004834736668274,-0.31004834736668274,1.0000767208416304,0.0002727978854131335
-0.30836991385440343,-0.30836991385440343,0.9998792725932477,0.00030427678390285953
-0.3062566298103775,-0.3062566298103775,0.9998212929002559,0.0002749281818057642
-0.3053713072105893,-0.3053713072105893,0.9998348482857317,0.00027285758935078545
-0.3047009240355692,-0.3047009240355692,0.9999186669451058,0.0002728178899075986
-0.30343731008324537,-0.30343731008324537,0.9997653357063762,0.0002726181614407054
-0.30090163936984027,-0.30090163936984027,1.0006333592828285,0.0002729158439063863
-0.2987106969798333,-0.2987106969798333,1.0002806310558368,0.0002727669486869606
-0.29753091937163845,-0.29753091937163845,1.000058609877486,0.00027539817184683727
-0.29444962407142156,-0.29444962407142156,1.0000483703884178,0.0002742898397060662
-0.29331710675614886,-0.29331710675614886,1.0002276778146644,0.00027296703212788406
-0.29264966686605476,-0.29264966686605476,1.0000109431891555,0.00031757567323698716
-0.29146356831188314,-0.29146356831188314,1.0002365838289584,0.00027279087868063446
-0.2894804053270491,-0.2894804053270491,0.9997802778023365,0.00027271837044925924
-0.2873223218601197,-0.2873223218601197,0.9995160046603054,0.0002888879257322927
-0.28598289877845673,-0.28598289877845673,0.999936192921942,0.0002739867466261054
-0.2842928109355853,-0.2842928109355853,1.000207792406458,0.0002731330860055642
-0.28186025670729575,-0.28186025670729575,0.9999087557766015,0.0002728381265850405
-0.28070375657698604,-0.28070375657698604,1.0003301380233458,0.0003185199003043869
-0.27925347654381766,-0.27925347654381766,0.9997478625741474,0.00027266530420700015
-0.2770253692942788,-0.2770253692942788,1.000193478734303,0.00028245377727488844
-0.2752841793611879,-0.2752841793611879,1.000188072234664,0.00027281706025869947
-0.27417943554755764,-0.27417943554755764,0.9998460753452847,0.0002730982666993779
-0.27266634210391205,-0.27266634210391205,1.0001786353059523,0.00027281041761954253
-0.2700773976641358,-0.2700773976641358,0.9999631093811063,0.0003168666477373272
-0.268623497421504,-0.268623497421504,1.0000288562238784,0.0002726406342925815
-0.2671082391345408,-0.2671082391345408,0.9996387185891086,0.00027261359382987763
-0.264828080094594,-0.264828080094594,0.9997651611955742,0.00029090417861363043
-0.26333661981916523,-0.26333661981916523,0.9998741793826229,0.00027279706478254383
-0.26279479685326806,-0.26279479685326806,1.0002580705375137,0.00027286393761185635
-0.26171807537175484,-0.26171807537175484,0.9993039933474694,0.0003122352252455876
-0.26047714819433165,-0.26047714819433165,0.9998459031890474,0.0002729227110297394
-0.25753491723298794,-0.25753491723298794,1.000118570447268,0.0002726963972283745
-0.2561030526747345,-0.2561030526747345,1.0004544580811925,0.00027283043024696257
-0.25482986124115997,-0.25482986124115997,1.000154271142104,0.0003078349661745581
-0.2525568589422619,-0.2525568589422619,0.9996140115675495,0.0002826808531414414
-0.2514182952203555,-0.2514182952203555,0.9999139714477542,0.00027281563427632155
-0.25104099733143814,-0.25104099733143814,0.9999068134465752,0.00027294624162041236
-0.24998747700883542,-0.24998747700883542,0.9999693559990268,0.000272500283868157
-0.24831148038356332,-0.24831148038356332,1.0001493598617592,0.00027290253816999375
-0.24535545433609512,-0.24535545433609512,0.9998820959338449,0.0002726305298592979
-0.24420251453557285,-0.24420251453557285,1.0001470504532861,0.000272848906449251
-0.2431528508415795,-0.2431528508415795,0.9999732404095241,0.0003020711516503084
-0.24074352344468936,-0.24074352344468936,0.9997089010185484,0.0002745116912520395
-0.23952400292182574,-0.23952400292182574,1.0001197657094245,0.0002729082130207306
-0.23879547349642963,-0.23879547349642963,1.0003427417072688,0.00029533321694174826
-0.23769112019945168,-0.23769112019945168,0.999757300109996,0.0002726840055561342
-0.2364808264261228,-0.2364808264261228,1.0000617003350292,0.0002728377241390778
-0.2337473904248327,-0.2337473904248327,1.0003919700036197,0.0002920391249442308
-0.23249821087374584,-0.23249821087374584,0.9999008048545772,0.00027277381910763163
-0.23113508746027947,-0.23113508746027947,0.9997181971671971,0.00027436461573996653
-0.2281458317724173,-0.2281458317724173,1.0000892115390398,0.0002737094656307662
-0.22731979680102085,-0.22731979680102085,0.9997052873001258,0.0003184034397173242
-0.22620695061195875,-0.22620695061195875,1.0002687753644104,0.0002726563740507993
-0.2245479721488664,-0.2245479721488664,1.000378339533345,0.00027277007142076566
-0.2226424919863348,-0.2226424919863348,0.9997868206716396,0.0002847452230597576
-0.22106843064684653,-0.22106843064684653,1.000341011713502,0.00027284595329815897
-0.22021906991139986,-0.22021906991139986,1.0005373537641782,0.00027352815807380707
-0.2190033947888878,-0.2190033947888878,1.000180526206093,0.0002726879372249486
-0.21686625349102542,-0.21686625349102542,1.0001379054675907,0.00027302785936292404
-0.2155129847174976,-0.2155129847174976,0.9999796579016529,0.00031850476691592936
-0.21409759349480736,-0.21409759349480736,1.000096343054072,0.0002726358574986733
-0.212320657428063,-0.212320657428063,1.000542589229807,0.0002889884638515651
-0.21043323665799107,-0.21043323665799107,0.9998342253688012,0.0002795591379476778
-0.2091246277865139,-0.2091246277865139,1.0003076053591964,0.00027289642974919387
-0.20811851505859522,-0.20811851505859522,1.0003746746613529,0.00027257028105434134
-0.20683043724711753,-0.20683043724711753,0.9997798164213061,0.0002728248589673273
-0.2042900853761239,-0.2042900853761239,1.0005698076566385,0.00027286869671361654
-0.20258247760939413,-0.20258247760939413,1.0000506934011906,0.0002726864747554644
-0.20134843356790952,-0.20134843356790952,1.0001837074865807,0.0002725736268850812
-0.19904772268491797,-0.19904772268491797,0.9999945709456858,0.000285538008473184
-0.19758467340870994,-0.19758467340870994,0.9996091507202255,0.0002728193781228217
-0.19704158175882186,-0.19704158175882186,1.000187915399789,0.0002728556633447191
-0.19572888153634266,-0.19572888153634266,0.9998750423436651,0.0002726029237080722
-0.19369573102303547,-0.19369573102303547,1.0004268195563768,0.0002729272530606166
-0.19106736404646654,-0.19106736404646654,0.9998705745570261,0.000272697223229515
-0.19015660536242648,-0.19015660536242648,1.000418170263289,0.00027831505333343143
-0.1884325066508609,-0.1884325066508609,1.0002449314134048,0.0003043464504194302
-0.18596733834856422,-0.18596733834856422,1.0002716722152116,0.000272928863653905
-0.18530416324501858,-0.18530416324501858,1.000223025142454,0.000272877036607601
-0.18423060851928313,-0.18423060851928313,0.9997872264004368,0.0002725436134135313
-0.18314481928973692,-0.18314481928973692,1.0005476542418437,0.00029727096323097575
-0.18047199697466568,-0.18047199697466568,0.9992463177166178,0.0002727204421592845
-0.17872722496831556,-0.17872722496831556,1.0004790229810863,0.00027278805490138773
-0.17748019921855301,-0.17748019921855301,0.9999952414008121,0.000274989929261344
-0.17472850897465833,-0.17472850897465833,1.000265747433322,0.00027414646863047634
-0.1736485896719387,-0.1736485896719387,1.00011048485373,0.000272898581275529
-0.17277604175615124,-0.17277604175615124,0.9997431604454574,0.0003182478185362539
-0.17132278204517207,-0.17132278204517207,0.9998875393826527,0.00027271852401761513
-0.169077797709906,-0.169077797709906,1.0002673107183395,0.00028767157219790394
-0.16729504337126855,-0.16729504337126855,1.0000860217710499,0.00027280220005769014
-0.16597902166249695,-0.16597902166249695,0.9999922061094384,0.0002737126280816207
-0.16432390995469176,-0.16432390995469176,1.0004087205878396,0.00027286341501461423
-0.16241801727883284,-0.16241801727883284,0.9999784719785939,0.00027323786607371135
-0.16129442394012586,-0.16129442394012586,1.0001630786042444,0.0003187455321713656
-0.1599108329639421,-0.1599108329639421,1.0003013961354121,0.0002727311144582538
-0.15788519423658726,-0.15788519423658726,1.0002979216409498,0.000292798291863951
-0.15643272570159752,-0.15643272570159752,1.0001688430141467,0.000287783332552395
-0.15514470827183685,-0.15514470827183685,1.0001246653688798,0.0002729160041504776
-0.15416095507680438,-0.15416095507680438,1.0003367361296318,0.0002727773516692615
-0.15285344312869711,-0.15285344312869711,1.000010543720619,0.0002728508781662858
-0.1505114691608469,-0.1505114691608469,1.0004018954220537,0.00027293242929394624
-0.14945384123711847,-0.14945384123711847,0.9998899559827616,0.00031567398833082396
-0.14812948997860076,-0.14812948997860076,0.9997578010281503,0.00027277190993350706
-0.1459012786624953,-0.1459012786624953,1.0000899692547818,0.0002890260027265321
-0.1440248999017058,-0.1440248999017058,0.9999417073761985,0.0002727319935937911
-0.14332355157093843,-0.14332355157093843,1.0001247590992743,0.0002729759099947023
-0.1425165593274869,-0.1425165593274869,1.0001165568504824,0.0003110195677713138
-0.14129150539374677,-0.14129150539374677,0.9998631772793967,0.0002726559439835943
-0.1383216016503866,-0.1383216016503866,1.0000769949712078,0.00027288498874392185
-0.13655021885351742,-0.13655021885351742,0.999768824491202,0.0002726660357312307
-0.13544311861769529,-0.13544311861769529,0.9998774576363063,0.0003063737668105446
-0.13298455936601386,-0.13298455936601386,0.9998077256699031,0.00027520494012405123
-0.1316670119544142,-0.1316670119544142,0.9999857412132955,0.0002728880279206383
-0.13101120298961177,-0.13101120298961177,0.9998620620084481,0.0002727865301870884
-0.12973674298700644,-0.12973674298700644,0.9999671309107386,0.00027263069615932403
-0.12741455619543557,-0.12741455619543557,0.9997606936619456,0.0002728752967412615
-0.12527559412410483,-0.12527559412410483,1.0001338823326926,0.00027269078672455114
-0.12432062994339503,-0.12432062994339503,0.9998789154710008,0.0002761809973315987
-0.12215719510859344,-0.12215719510859344,1.0002339915866247,0.0002742564456991499
-0.11991068314673611,-0.11991068314673611,1.0004100503382671,0.00027288476592790057
-0.11919298768625594,-0.11919298768625594,1.0000055146150308,0.00027280468563260974
-0.11797079449315788,-0.11797079449315788,1.0005489324604127,0.00027281443460626235
-0.11675711886637145,-0.11675711886637145,0.9995133505999313,0.0002726623028308145
-0.11395505619293544,-0.11395505619293544,0.9999232703432096,0.00029057608848605916
