time,time,flux,flux_err
-0.4994727141450615,-0.4994727141450615,0.9999128699469054,6.376303114929269e-05
-0.4978416398941287,-0.4978416398941287,0.9999781960767704,6.373522182777742e-05
-0.4962024152221905,-0.4962024152221905,1.0001434493812342,6.372303631422342e-05
-0.49466075759628436,-0.49466075759628436,1.0000854795584222,5.815997666057765e-05
-0.49328325626192965,-0.49328325626192965,1.0000172325063301,5.8159976510255514e-05
-0.49184645545101374,-0.49184645545101374,0.9999528585905597,5.815408494946315e-05
-0.4898923990534968,-0.4898923990534968,1.000135004087156,5.81578336784693e-05
-0.4883464230653772,-0.4883464230653772,0.999991173107867,5.9912773326630304e-05
-0.4865963448297407,-0.4865963448297407,0.9999764364474718,5.887125901153039e-05
-0.48457955549747567,-0.48457955549747567,1.00010665327161,5.8277238585236445e-05
-0.48291217880396287,-0.48291217880396287,0.9999320738892488,5.936709367726889e-05
-0.48151868240893236,-0.48151868240893236,1.0001755178439735,5.867819884574096e-05
-0.4799764875569963,-0.4799764875569963,0.9999891899618412,5.842988753497019e-05
-0.47856902356870706,-0.47856902356870706,0.9999105575308758,5.8372469556076655e-05
-0.4772847126587294,-0.4772847126587294,1.0000006467535556,5.820886430885642e-05
-0.47561682678133366,-0.47561682678133366,0.999989533514448,5.8165693605778765e-05
-0.4740150976947916,-0.4740150976947916,0.9999412248137844,5.8161097280788054e-05
-0.4726877899644023,-0.4726877899644023,0.9999667299685212,5.816493804304461e-05
-0.47130020358526964,-0.47130020358526964,1.0000158921384803,5.815937788817157e-05
-0.4699525831390929,-0.4699525831390929,1.0000511363722797,5.8162226915919326e-05
-0.4684539904606936,-0.4684539904606936,1.0001195568739876,5.8155962594842304e-05
-0.4667448964850337,-0.4667448964850337,0.9999891407124715,5.814724678609907e-05
-0.464610439902026,-0.464610439902026,1.0000047955914457,5.9034718724080337e-05
-0.46256264351322895,-0.46256264351322895,0.9999722576163471,5.861462249819416e-05
-0.46095538880108505,-0.46095538880108505,1.0000377146060362,5.824702856504228e-05
-0.4592192434480239,-0.4592192434480239,1.0000453532254858,5.882799793694443e-05
-0.45775497991780867,-0.45775497991780867,1.0000761654128556,5.8506182425825096e-05
-0.4564017957156466,-0.4564017957156466,1.0000541643289313,5.834509221317462e-05
-0.45487621267020584,-0.45487621267020584,0.999894528767927,5.830924636979062e-05
-0.4534313695221499,-0.4534313695221499,0.9999399275520086,5.8202687743206354e-05
-0.4519025609290111,-0.4519025609290111,0.9999682978974839,5.815766632923681e-05
-0.4504353755066404,-0.4504353755066404,1.0000069703016532,5.815683867528227e-05
-0.44900886072573487,-0.44900886072573487,1.0000398847090781,5.816316742839934e-05
-0.44764793224167077,-0.44764793224167077,1.0000607844169496,5.816341688108308e-05
-0.4462893843061465,-0.4462893843061465,1.0000684813496066,5.816497745510336e-05
-0.4449465905847319,-0.4449465905847319,0.9999834299103119,5.815404859307473e-05
-0.4431514097334002,-0.4431514097334002,0.9999034637367087,5.8150577578768176e-05
-0.4413183397038665,-0.4413183397038665,1.0000715077718718,5.911321994496035e-05
-0.4397133945400128,-0.4397133945400128,0.9999049465502969,5.8350692271504466e-05
-0.4378333632979775,-0.4378333632979775,1.0000680343222101,5.8267019599900034e-05
-0.4361638125774334,-0.4361638125774334,0.9999109151822593,5.91401481410597e-05
-0.43480171921037253,-0.43480171921037253,1.0002644833046341,5.896857524803961e-05
-0.433628172675526,-0.433628172675526,1.0000622069387095,5.8388836295329805e-05
-0.43205928330498866,-0.43205928330498866,0.9999593883907814,5.835890728689909e-05
-0.43075965919997544,-0.43075965919997544,0.9999465639753777,5.8154932948437416e-05
-0.4292126137755986,-0.4292126137755986,1.0000678280952477,5.819699919885332e-05
-0.42785747114539846,-0.42785747114539846,1.0000207570310364,5.818205971351243e-05
-0.42651100599978237,-0.42651100599978237,0.9999572103540542,5.815474095087024e-05
-0.4250954274997639,-0.4250954274997639,1.0000650748030595,5.81542552850576e-05
-0.42372182453327695,-0.42372182453327695,0.9999347310930726,5.815933659713946e-05
-0.422374430308264,-0.422374430308264,0.9999949905085568,5.816215855150551e-05
-0.4206734772058553,-0.4206734772058553,0.9999954972093977,5.815536860696434e-05
-0.41901856453041547,-0.41901856453041547,1.0000034469348393,5.916003357078187e-05
-0.417136131953157,-0.417136131953157,0.9999722374503639,5.915988715389117e-05
-0.4150206839709426,-0.4150206839709426,0.9999463126723928,5.827283820520085e-05
-0.413329673896078,-0.413329673896078,1.000101171019887,5.829329080018307e-05
-0.4119573072748608,-0.4119573072748608,1.000105072104436,5.8727186325899014e-05
-0.41016518417891346,-0.41016518417891346,0.999984783075179,5.859067420701843e-05
-0.408781710187759,-0.408781710187759,0.9999217075008378,5.824033708307448e-05
-0.4073351630795514,-0.4073351630795514,1.00001099611131,5.824915792117816e-05
-0.40575274812945283,-0.40575274812945283,1.0000430781352136,5.813557340913063e-05
-0.40445260188280374,-0.40445260188280374,0.9999725787984787,5.8164412066150096e-05
-0.40322503518909797,-0.40322503518909797,1.0001303988736339,5.8156681091337893e-05
-0.4020145005291852,-0.4020145005291852,1.0001027006726517,5.816794291554022e-05
-0.4006415553187253,-0.4006415553187253,1.0001044459105206,5.816204634610647e-05
-0.3992399692317122,-0.3992399692317122,0.9999678148352984,5.815123162291532e-05
-0.3975069510997855,-0.3975069510997855,1.000071759640441,5.815884932029768e-05
-0.3955617668885679,-0.3955617668885679,0.9999264000783896,5.814991635522392e-05
-0.39300805904422303,-0.39300805904422303,0.9999306933387393,5.8686029265841785e-05
-0.3910872518856195,-0.3910872518856195,1.0000037312986643,5.8257514468929604e-05
-0.38941549596565894,-0.38941549596565894,0.99999189786502,5.897058494624887e-05
-0.3882617563889653,-0.3882617563889653,1.0000240203743025,5.884629917805946e-05
-0.38711589897720844,-0.38711589897720844,1.0000141040558475,5.8387153822159276e-05
-0.38573585988851844,-0.38573585988851844,0.9999690100870113,5.8261738794635776e-05
-0.38411861468048303,-0.38411861468048303,0.9999244302684804,5.821721242264201e-05
-0.38324342625492136,-0.38324342625492136,1.0000356030373796,5.818966807188609e-05
-0.38197702298130026,-0.38197702298130026,1.0000266428960995,5.8210836806387075e-05
-0.3805345197448332,-0.3805345197448332,0.9999201437542217,5.8155509941939784e-05
-0.379198446800001,-0.379198446800001,1.000059834318504,5.8166577714823874e-05
-0.377818370325258,-0.377818370325258,1.0000609677521404,5.816114058351399e-05
-0.37647141316701893,-0.37647141316701893,0.9999735746069032,5.81624566065667e-05
-0.37475171261176,-0.37475171261176,1.0000467902848276,5.815601517243041e-05
-0.37291738975400224,-0.37291738975400224,1.0000134308223068,5.928937035353612e-05
-0.3713809700377169,-0.3713809700377169,1.0000215995192536,5.9245494846294705e-05
-0.3694821094337385,-0.3694821094337385,0.9999723150372908,5.838207378253585e-05
-0.36761070572174503,-0.36761070572174503,1.0000052107544288,5.8350005363331085e-05
-0.3660113037178235,-0.3660113037178235,0.9999888949084076,5.97486447727378e-05
-0.3645471977390116,-0.3645471977390116,1.0000133626142143,5.818975445245867e-05
-0.3631740644901583,-0.3631740644901583,1.0000569652429045,5.855239203431961e-05
-0.3617883469967637,-0.3617883469967637,0.9999655795841393,5.823459354987093e-05
-0.3602314665491576,-0.3602314665491576,0.9998087889235837,5.823205852004309e-05
-0.35868957565326126,-0.35868957565326126,1.0000761671123497,5.814298211437557e-05
-0.35719297093091884,-0.35719297093091884,1.000079843111225,5.817607527309704e-05
-0.3558453435449337,-0.3558453435449337,0.9999480859328862,5.815680699838923e-05
-0.35444460305516257,-0.35444460305516257,1.0001357715473163,5.816597578249018e-05
-0.3530539543608029,-0.3530539543608029,0.9999899230000295,5.8159176204212344e-05
-0.3515110983782506,-0.3515110983782506,0.9999640426136297,5.815287018504332e-05
-0.3495634554332355,-0.3495634554332355,1.0001399700801517,5.903165131251169e-05
-0.34751583601755553,-0.34751583601755553,0.9999830892928582,5.84518451209804e-05
-0.3454618756091804,-0.3454618756091804,1.0001210172759127,5.82987253723499e-05
-0.3436739572432998,-0.3436739572432998,0.9998141293470338,5.831056632988952e-05
-0.34201081828650787,-0.34201081828650787,1.0000263690551383,5.878857880055686e-05
-0.34057799750444245,-0.34057799750444245,0.9999741740049217,5.865290916707001e-05
-0.3392194859094161,-0.3392194859094161,0.9999564921526876,5.825337350326769e-05
-0.33771983754559187,-0.33771983754559187,1.0000891909776777,5.821625474881603e-05
-0.33630923046875977,-0.33630923046875977,1.0000348748581898,5.8184927486658016e-05
-0.33489311018856827,-0.33489311018856827,0.9999444323560096,5.8162948151877015e-05
-0.33356158666865665,-0.33356158666865665,0.9999664625079732,5.816295373176494e-05
-0.3321733567252522,-0.3321733567252522,1.0001715876365787,5.816637492097839e-05
-0.330825368220394,-0.330825368220394,1.0000163425808548,5.815724819666988e-05
-0.3294543974014232,-0.3294543974014232,0.9999770352083679,5.815992321397623e-05
-0.327943815922481,-0.327943815922481,1.0000172398732154,5.8153793731771644e-05
-0.32615186061520945,-0.32615186061520945,1.0001271530800335,5.815433096851506e-05
-0.3243283095674997,-0.3243283095674997,0.9999858621804906,5.909928000619939e-05
-0.3226496135263005,-0.3226496135263005,0.9998852941444601,5.834624463520164e-05
-0.32086330282108977,-0.32086330282108977,1.0000178344655324,5.833511475184087e-05
-0.319266372234415,-0.319266372234415,0.9999809671127011,5.948790521128447e-05
-0.3180046817360562,-0.3180046817360562,1.0000164441873445,5.852583607287694e-05
-0.3166763771871047,-0.3166763771871047,1.0000111412645052,5.850259275323785e-05
-0.3152969713919447,-0.3152969713919447,1.0000331199212398,5.822751660298106e-05
-0.3138101131808071,-0.3138101131808071,1.0000635663575934,5.817823992796706e-05
-0.3124042800111056,-0.3124042800111056,0.9999267699392196,5.8185736970988494e-05
-0.3109702749366988,-0.3109702749366988,0.999965330401474,5.816151843433061e-05
-0.30963809692038924,-0.30963809692038924,0.9998681049938638,5.8157616454362274e-05
-0.30825467893228053,-0.30825467893228053,1.0000446553481137,5.816621137220229e-05
-0.30690739221681723,-0.30690739221681723,0.9999343408918631,5.8158108200097924e-05
-0.30540999937293234,-0.30540999937293234,0.9999876015742977,5.81522965458488e-05
-0.30370589891754207,-0.30370589891754207,0.9999429844877736,5.815596120099496e-05
-0.3021227733312116,-0.3021227733312116,0.9999865857822975,5.887962549457907e-05
-0.29992446986361754,-0.29992446986361754,0.9999634112464355,5.8535544336152814e-05
-0.2980520205324865,-0.2980520205324865,1.000043324876611,5.823993598693506e-05
-0.29616731930727835,-0.29616731930727835,1.0001179718305686,5.874601063274086e-05
-0.2946926769480342,-0.2946926769480342,1.000080966228341,5.845735184866089e-05
-0.2931027256367088,-0.2931027256367088,0.9999543545704258,5.9305379066321425e-05
-0.29187053091081905,-0.29187053091081905,1.0000027184620912,5.8235574509872015e-05
-0.2903816274279961,-0.2903816274279961,1.0000537545531016,5.824974115511863e-05
-0.2887474077659135,-0.2887474077659135,1.000046494419133,5.815770408060016e-05
-0.28738741442357424,-0.28738741442357424,0.9999041835163492,5.814983306590917e-05
-0.2859650992359093,-0.2859650992359093,1.0000743366364198,5.8157028292575957e-05
-0.28465812447757344,-0.28465812447757344,0.9999978907583398,5.815601057686106e-05
-0.28349212332032037,-0.28349212332032037,0.9999868290027377,5.816163761152844e-05
-0.2819431701514986,-0.2819431701514986,0.9999707113011971,5.815264442537626e-05
-0.28010602827489495,-0.28010602827489495,1.0000701046532465,5.815627670849691e-05
-0.277957734548545,-0.277957734548545,0.9998991321433521,5.849830806194761e-05
-0.27590312855754745,-0.27590312855754745,1.0000079026869009,5.8322342284549596e-05
-0.274115970422281,-0.274115970422281,1.0000015909194953,5.833081395274904e-05
-0.27252148130428394,-0.27252148130428394,0.9998647899975713,5.926407051856192e-05
-0.271256826503668,-0.271256826503668,0.9999361916067098,5.849234745844403e-05
-0.26993207366758726,-0.26993207366758726,1.0001287184372045,5.846095432285007e-05
-0.268509289456415,-0.268509289456415,1.0000710892628901,5.822691158475182e-05
-0.267224509146763,-0.267224509146763,0.9999301123400025,5.820381706291237e-05
-0.2661455829795159,-0.2661455829795159,0.9999496448811186,5.818977069510083e-05
-0.26456904069200393,-0.26456904069200393,1.0000227619769828,5.815127745853399e-05
-0.26313959299004636,-0.26313959299004636,1.0000386755922182,5.816209149297388e-05
-0.2617820765895885,-0.2617820765895885,0.9999179153369859,5.815811248907454e-05
-0.2604205495736096,-0.2604205495736096,1.0000232382629874,5.8162567420626405e-05
-0.2588440373801859,-0.2588440373801859,0.9998676180394807,5.815351061114096e-05
-0.2569929733144818,-0.2569929733144818,1.0000322863209592,5.8173432983415174e-05
-0.25573630573198897,-0.25573630573198897,1.0001093424333116,5.986723685441327e-05
-0.25409148642065704,-0.25409148642065704,0.9998220865651566,5.883592820931676e-05
-0.2524267517284898,-0.2524267517284898,0.9999430477324417,5.82714285714372e-05
-0.25054418083600466,-0.25054418083600466,1.000019099303644,5.927121908163925e-05
-0.24917086711138836,-0.24917086711138836,0.9999462180233225,5.8709190504645624e-05
-0.24776164453141974,-0.24776164453141974,0.999947997909638,5.8408068502672183e-05
-0.24619390192310675,-0.24619390192310675,1.0000615473049366,5.831175410178366e-05
-0.2449090796755627,-0.2449090796755627,0.9999820611935739,5.827950811015611e-05
-0.24326777593305451,-0.24326777593305451,1.00004915313803,5.817444214884469e-05
-0.24140612091359798,-0.24140612091359798,0.9998866297568574,5.8165018333178864e-05
-0.24007783937704516,-0.24007783937704516,0.9999621332509134,5.8163065160378346e-05
-0.2386910854940652,-0.2386910854940652,0.9999692132669612,5.8160096447411485e-05
-0.23734352629689964,-0.23734352629689964,1.0000232458391827,5.815854123772423e-05
-0.23584517776762368,-0.23584517776762368,1.0000575560304685,5.8162380287374185e-05
-0.23413707787622115,-0.23413707787622115,0.999950468237785,5.8153671532610346e-05
-0.2319999390289013,-0.2319999390289013,1.0000302283725135,5.900782309822829e-05
-0.2299512968871568,-0.2299512968871568,0.9999128869009279,5.8596418507065326e-05
-0.22803611636190907,-0.22803611636190907,1.000032081726107,5.824811406954307e-05
-0.22636187260068255,-0.22636187260068255,0.9999772599120416,5.8848139702638295e-05
-0.22489616237799054,-0.22489616237799054,0.9999747637160441,5.845632537025261e-05
-0.2237246468255762,-0.2237246468255762,0.9998951505131799,5.832148239236654e-05
-0.22230802774502081,-0.22230802774502081,1.0000563711132706,5.825058905542898e-05
-0.22106294862605863,-0.22106294862605863,0.9998862196847481,5.825743107624236e-05
-0.21970401257640332,-0.21970401257640332,1.000153753561896,5.814758416499503e-05
-0.2183494333185081,-0.2183494333185081,0.9999079894390688,5.816108277370503e-05
-0.21696713457276928,-0.21696713457276928,0.9999826918993964,5.8161554470097536e-05
-0.21561902922476292,-0.21561902922476292,0.9999844794088266,5.815966405364726e-05
-0.21422984481687307,-0.21422984481687307,0.9998817031276597,5.8153462487915156e-05
-0.2128723008783709,-0.2128723008783709,1.0000083588051978,5.816499521170213e-05
-0.21130381835027948,-0.21130381835027948,1.0000942920914675,5.81510270673395e-05
-0.20949166043137665,-0.20949166043137665,0.9999468881031687,5.8153439838516144e-05
-0.2076730905828299,-0.2076730905828299,1.000000308163243,5.9078112283620274e-05
-0.20600406727098744,-0.20600406727098744,0.9999975842451032,5.8473435102104866e-05
-0.20416352161992107,-0.20416352161992107,0.9999735124572249,5.905202212143899e-05
-0.20267406765924534,-0.20267406765924534,1.0000404856099758,5.862814725153311e-05
-0.20147242655075387,-0.20147242655075387,0.9999965714865267,5.852321559245222e-05
-0.20012826974634662,-0.20012826974634662,1.0000591578941636,5.850008621099748e-05
-0.19873810834105826,-0.19873810834105826,0.9999036473604248,5.822834606064256e-05
-0.1971455836923269,-0.1971455836923269,1.000022414514305,5.817264171496889e-05
-0.19580194911395665,-0.19580194911395665,0.9999127165629403,5.8192877902522435e-05
-0.19443284530425445,-0.19443284530425445,0.9999948644935074,5.8159132103482765e-05
-0.19304688483753124,-0.19304688483753124,1.0000174860160276,5.816486459025462e-05
-0.19169871543927003,-0.19169871543927003,0.9999459679784419,5.8162648438631095e-05
-0.19032076803414383,-0.19032076803414383,1.000091434231178,5.816119211933139e-05
-0.18877157700480893,-0.18877157700480893,0.9999861236660343,5.815390922215263e-05
-0.18701346892266885,-0.18701346892266885,1.0000208631029035,5.815593356384342e-05
-0.1849841403090977,-0.1849841403090977,0.9998462177857222,5.910555613679319e-05
-0.18286803305963986,-0.18286803305963986,0.9999343223831041,5.8275957379997233e-05
-0.1809160680968489,-0.1809160680968489,0.9998823303658115,5.829343639311049e-05
-0.1793476451319293,-0.1793476451319293,0.9997708208352238,5.871184762540768e-05
-0.17755530491849641,-0.17755530491849641,1.0000323462562712,5.8581645720777724e-05
-0.17617227857481338,-0.17617227857481338,0.9999476452132774,5.8234810806162185e-05
-0.174725473800936,-0.174725473800936,1.0000547167052227,5.824788865683772e-05
-0.17308378039160743,-0.17308378039160743,1.000010968899217,5.8140971679136365e-05
-0.17160896777786547,-0.17160896777786547,0.9999788018732891,5.8163387509655514e-05
-0.17022540467878572,-0.17022540467878572,1.0000623025108952,5.816604977799916e-05
-0.16887723026738968,-0.16887723026738968,0.9999861087292963,5.8160333407045054e-05
-0.16749192076240432,-0.16749192076240432,1.0000586877024185,5.815966454385044e-05
-0.16595060845284024,-0.16595060845284024,0.9999580509273995,5.815804966943013e-05
-0.16415362429543165,-0.16415362429543165,1.0000010507742745,5.815530925631148e-05
-0.16242480590517516,-0.16242480590517516,0.9999836083309319,5.91214473687205e-05
-0.1603967008712061,-0.1603967008712061,1.000148959489476,5.867561507255253e-05
-0.1584770161753113,-0.1584770161753113,1.0000002782944803,5.8257851756773634e-05
-0.15680476610723418,-0.15680476610723418,0.9999588290315484,5.894192692451916e-05
-0.1553345907101175,-0.1553345907101175,1.0000016854343445,5.847161824274511e-05
-0.15404641388231538,-0.15404641388231538,0.9999113800602721,5.8356787128156025e-05
-0.15270550045242998,-0.15270550045242998,1.0000242478021035,5.8328854783172556e-05
-0.15133349616298802,-0.15133349616298802,0.9998971610273308,5.819629869411044e-05
-0.1504154731053859,-0.1504154731053859,1.0000515850593164,5.816283769947365e-05
-0.14902861995942657,-0.14902861995942657,1.0000369493867942,5.816817894965851e-05
-0.14769271605327958,-0.14769271605327958,0.9999785641109253,5.815633569644906e-05
-0.14630547969718463,-0.14630547969718463,0.9999521947533883,5.8168296825883814e-05
-0.1449573906538717,-0.1449573906538717,1.000000924828602,5.815857060119879e-05
-0.1435833599549369,-0.1435833599549369,0.9999104544302193,5.8155211219892144e-05
-0.14173544684235823,-0.14173544684235823,1.0001223832838964,5.8166240315887414e-05
-0.13999229837427266,-0.13999229837427266,0.9999641185425834,5.925710429663184e-05
-0.13846828083042056,-0.13846828083042056,1.0000046219348095,5.920408159687488e-05
-0.13678582004795317,-0.13678582004795317,0.999973082733,5.837362672494338e-05
-0.13500016522739317,-0.13500016522739317,1.0000336388428077,5.834779447758616e-05
-0.13340131557997664,-0.13340131557997664,1.0000851316482238,5.9692319756769135e-05
-0.13214194968604714,-0.13214194968604714,1.0000686234239626,5.856954181907008e-05
-0.13081088316976092,-0.13081088316976092,0.9999182858803877,5.853462719323124e-05
-0.12942988390495885,-0.12942988390495885,0.9999670252335843,5.823606436918808e-05
-0.12779547047248344,-0.12779547047248344,1.00006615107071,5.817826040083035e-05
-0.12600541698993767,-0.12600541698993767,0.9999759627217527,5.816190806663607e-05
